cm-1,A
4000.0,-0.0064660422492317515
3999.0,-0.006423252507643085
3998.0,-0.006423252507643085
3997.0,-0.006380458549692936
3996.0,-0.006380458549692936
3995.0,-0.0063376603745508575
3994.0,-0.006380458549692936
3993.0,-0.006423252507643085
3992.0,-0.006508827775289827
3991.0,-0.006551609086648202
3990.0,-0.006551609086648202
3989.0,-0.006508827775289827
3988.0,-0.0064660422492317515
3987.0,-0.0064660422492317515
3986.0,-0.006423252507643085
3985.0,-0.006423252507643085
3984.0,-0.006423252507643085
3983.0,-0.006380458549692936
3982.0,-0.006380458549692936
3981.0,-0.006380458549692936
3980.0,-0.006423252507643085
3979.0,-0.006551609086648202
3978.0,-0.0066799277408255975
3977.0,-0.0067226922016847546
3976.0,-0.006765452451992449
3975.0,-0.0067226922016847546
3974.0,-0.0066799277408255975
3973.0,-0.006637159068586307
3972.0,-0.00659438618413688
3971.0,-0.006508827775289827
3970.0,-0.006423252507643085
3969.0,-0.006380458549692936
3968.0,-0.006380458549692936
3967.0,-0.006423252507643085
3966.0,-0.006508827775289827
3965.0,-0.006551609086648202
3964.0,-0.00659438618413688
3963.0,-0.00659438618413688
3962.0,-0.006637159068586307
3961.0,-0.00659438618413688
3960.0,-0.006551609086648202
3959.0,-0.0064660422492317515
3958.0,-0.006380458549692936
3957.0,-0.006380458549692936
3956.0,-0.006423252507643085
3955.0,-0.0064660422492317515
3954.0,-0.0064660422492317515
3953.0,-0.006423252507643085
3952.0,-0.0063376603745508575
3951.0,-0.0063376603745508575
3950.0,-0.006380458549692936
3949.0,-0.0064660422492317515
3948.0,-0.00659438618413688
3947.0,-0.006637159068586307
3946.0,-0.0066799277408255975
3945.0,-0.0067226922016847546
3944.0,-0.0067226922016847546
3943.0,-0.0067226922016847546
3942.0,-0.0067226922016847546
3941.0,-0.0067226922016847546
3940.0,-0.0067226922016847546
3939.0,-0.0066799277408255975
3938.0,-0.006637159068586307
3937.0,-0.006508827775289827
3936.0,-0.006423252507643085
3935.0,-0.0062948579813855154
3934.0,-0.006209240537657479
3933.0,-0.006209240537657479
3932.0,-0.0062948579813855154
3931.0,-0.0063376603745508575
3930.0,-0.006380458549692936
3929.0,-0.006380458549692936
3928.0,-0.006380458549692936
3927.0,-0.006380458549692936
3926.0,-0.006423252507643085
3925.0,-0.006508827775289827
3924.0,-0.00659438618413688
3923.0,-0.006637159068586307
3922.0,-0.0067226922016847546
3921.0,-0.006765452451992449
3920.0,-0.006808208492578682
3919.0,-0.006765452451992449
3918.0,-0.0067226922016847546
3917.0,-0.006637159068586307
3916.0,-0.00659438618413688
3915.0,-0.00659438618413688
3914.0,-0.00659438618413688
3913.0,-0.00659438618413688
3912.0,-0.00659438618413688
3911.0,-0.006551609086648202
3910.0,-0.006551609086648202
3909.0,-0.006508827775289827
3908.0,-0.0064660422492317515
3907.0,-0.006423252507643085
3906.0,-0.006380458549692936
3905.0,-0.0063376603745508575
3904.0,-0.006380458549692936
3903.0,-0.006380458549692936
3902.0,-0.006423252507643085
3901.0,-0.0064660422492317515
3900.0,-0.0064660422492317515
3899.0,-0.0064660422492317515
3898.0,-0.006508827775289827
3897.0,-0.006551609086648202
3896.0,-0.00659438618413688
3895.0,-0.0066799277408255975
3894.0,-0.0066799277408255975
3893.0,-0.0067226922016847546
3892.0,-0.0067226922016847546
3891.0,-0.0067226922016847546
3890.0,-0.006637159068586307
3889.0,-0.006551609086648202
3888.0,-0.0064660422492317515
3887.0,-0.006508827775289827
3886.0,-0.006551609086648202
3885.0,-0.006551609086648202
3884.0,-0.006508827775289827
3883.0,-0.0064660422492317515
3882.0,-0.006508827775289827
3881.0,-0.006637159068586307
3880.0,-0.0066799277408255975
3879.0,-0.00659438618413688
3878.0,-0.0064660422492317515
3877.0,-0.0063376603745508575
3876.0,-0.0062948579813855154
3875.0,-0.0062948579813855154
3874.0,-0.006380458549692936
3873.0,-0.0064660422492317515
3872.0,-0.006551609086648202
3871.0,-0.006637159068586307
3870.0,-0.006637159068586307
3869.0,-0.006508827775289827
3868.0,-0.006380458549692936
3867.0,-0.0062948579813855154
3866.0,-0.0063376603745508575
3865.0,-0.006380458549692936
3864.0,-0.0064660422492317515
3863.0,-0.006508827775289827
3862.0,-0.006508827775289827
3861.0,-0.006508827775289827
3860.0,-0.006551609086648202
3859.0,-0.006637159068586307
3858.0,-0.0066799277408255975
3857.0,-0.006765452451992449
3856.0,-0.0067226922016847546
3855.0,-0.00659438618413688
3854.0,-0.006551609086648202
3853.0,-0.00659438618413688
3852.0,-0.006551609086648202
3851.0,-0.0064660422492317515
3850.0,-0.006423252507643085
3849.0,-0.006380458549692936
3848.0,-0.0063376603745508575
3847.0,-0.0062948579813855154
3846.0,-0.006252051369364686
3845.0,-0.006209240537657479
3844.0,-0.006209240537657479
3843.0,-0.006166425485431226
3842.0,-0.006123606211854593
3841.0,-0.006080782716094024
3840.0,-0.006209240537657479
3839.0,-0.006423252507643085
3838.0,-0.006637159068586307
3837.0,-0.0066799277408255975
3836.0,-0.006551609086648202
3835.0,-0.0064660422492317515
3834.0,-0.0064660422492317515
3833.0,-0.006508827775289827
3832.0,-0.006551609086648202
3831.0,-0.00659438618413688
3830.0,-0.006637159068586307
3829.0,-0.006637159068586307
3828.0,-0.006637159068586307
3827.0,-0.0066799277408255975
3826.0,-0.0066799277408255975
3825.0,-0.0066799277408255975
3824.0,-0.0066799277408255975
3823.0,-0.006637159068586307
3822.0,-0.006551609086648202
3821.0,-0.006423252507643085
3820.0,-0.0062948579813855154
3819.0,-0.0062948579813855154
3818.0,-0.006423252507643085
3817.0,-0.0067226922016847546
3816.0,-0.00697919057427665
3815.0,-0.007021925578680754
3814.0,-0.006850960324272126
3813.0,-0.0066799277408255975
3812.0,-0.00659438618413688
3811.0,-0.006551609086648202
3810.0,-0.006551609086648202
3809.0,-0.006551609086648202
3808.0,-0.00659438618413688
3807.0,-0.006637159068586307
3806.0,-0.006637159068586307
3805.0,-0.006637159068586307
3804.0,-0.0066799277408255975
3803.0,-0.006765452451992449
3802.0,-0.006765452451992449
3801.0,-0.0067226922016847546
3800.0,-0.00659438618413688
3799.0,-0.006508827775289827
3798.0,-0.00659438618413688
3797.0,-0.0066799277408255975
3796.0,-0.006765452451992449
3795.0,-0.0067226922016847546
3794.0,-0.006637159068586307
3793.0,-0.00659438618413688
3792.0,-0.00659438618413688
3791.0,-0.00659438618413688
3790.0,-0.006637159068586307
3789.0,-0.0066799277408255975
3788.0,-0.0067226922016847546
3787.0,-0.006808208492578682
3786.0,-0.006808208492578682
3785.0,-0.006808208492578682
3784.0,-0.006765452451992449
3783.0,-0.006637159068586307
3782.0,-0.006508827775289827
3781.0,-0.006380458549692936
3780.0,-0.0063376603745508575
3779.0,-0.0063376603745508575
3778.0,-0.006423252507643085
3777.0,-0.0064660422492317515
3776.0,-0.006508827775289827
3775.0,-0.006508827775289827
3774.0,-0.0064660422492317515
3773.0,-0.0064660422492317515
3772.0,-0.006423252507643085
3771.0,-0.006423252507643085
3770.0,-0.0064660422492317515
3769.0,-0.0064660422492317515
3768.0,-0.006508827775289827
3767.0,-0.00659438618413688
3766.0,-0.006637159068586307
3765.0,-0.0066799277408255975
3764.0,-0.0066799277408255975
3763.0,-0.006637159068586307
3762.0,-0.00659438618413688
3761.0,-0.006551609086648202
3760.0,-0.006551609086648202
3759.0,-0.006551609086648202
3758.0,-0.00659438618413688
3757.0,-0.00659438618413688
3756.0,-0.006508827775289827
3755.0,-0.006423252507643085
3754.0,-0.006380458549692936
3753.0,-0.0063376603745508575
3752.0,-0.006423252507643085
3751.0,-0.006551609086648202
3750.0,-0.006637159068586307
3749.0,-0.006551609086648202
3748.0,-0.0064660422492317515
3747.0,-0.006380458549692936
3746.0,-0.006380458549692936
3745.0,-0.006380458549692936
3744.0,-0.006380458549692936
3743.0,-0.0062948579813855154
3742.0,-0.006209240537657479
3741.0,-0.006252051369364686
3740.0,-0.0062948579813855154
3739.0,-0.0062948579813855154
3738.0,-0.006252051369364686
3737.0,-0.006252051369364686
3736.0,-0.0063376603745508575
3735.0,-0.006423252507643085
3734.0,-0.006423252507643085
3733.0,-0.0063376603745508575
3732.0,-0.006252051369364686
3731.0,-0.006209240537657479
3730.0,-0.006209240537657479
3729.0,-0.006252051369364686
3728.0,-0.0063376603745508575
3727.0,-0.006423252507643085
3726.0,-0.0064660422492317515
3725.0,-0.006551609086648202
3724.0,-0.00659438618413688
3723.0,-0.0066799277408255975
3722.0,-0.0067226922016847546
3721.0,-0.0066799277408255975
3720.0,-0.00659438618413688
3719.0,-0.0064660422492317515
3718.0,-0.006380458549692936
3717.0,-0.0062948579813855154
3716.0,-0.006252051369364686
3715.0,-0.006209240537657479
3714.0,-0.006166425485431226
3713.0,-0.006080782716094024
3712.0,-0.005995123054691298
3711.0,-0.005995123054691298
3710.0,-0.006037954997317296
3709.0,-0.006166425485431226
3708.0,-0.0062948579813855154
3707.0,-0.0064660422492317515
3706.0,-0.006551609086648202
3705.0,-0.006551609086648202
3704.0,-0.006551609086648202
3703.0,-0.006551609086648202
3702.0,-0.00659438618413688
3701.0,-0.00659438618413688
3700.0,-0.006551609086648202
3699.0,-0.0064660422492317515
3698.0,-0.006423252507643085
3697.0,-0.006380458549692936
3696.0,-0.0063376603745508575
3695.0,-0.0062948579813855154
3694.0,-0.0062948579813855154
3693.0,-0.0062948579813855154
3692.0,-0.0063376603745508575
3691.0,-0.0062948579813855154
3690.0,-0.006252051369364686
3689.0,-0.006209240537657479
3688.0,-0.006123606211854593
3687.0,-0.006037954997317296
3686.0,-0.005995123054691298
3685.0,-0.005995123054691298
3684.0,-0.006037954997317296
3683.0,-0.006037954997317296
3682.0,-0.005995123054691298
3681.0,-0.005909446494558601
3680.0,-0.0058666018753847915
3679.0,-0.00582375302902749
3678.0,-0.005738042651424635
3677.0,-0.005652315355074045
3676.0,-0.005609445360280407
3675.0,-0.005609445360280407
3674.0,-0.005652315355074045
3673.0,-0.005738042651424635
3672.0,-0.0058666018753847915
3671.0,-0.005952286887382918
3670.0,-0.005909446494558601
3669.0,-0.005695181118510195
3668.0,-0.005480809979401258
3667.0,-0.005395031886706203
3666.0,-0.0054379230508221355
3665.0,-0.005480809979401258
3664.0,-0.00552369267327979
3663.0,-0.005480809979401258
3662.0,-0.005480809979401258
3661.0,-0.0054379230508221355
3660.0,-0.005480809979401258
3659.0,-0.0054379230508221355
3658.0,-0.005395031886706203
3657.0,-0.005309236848516363
3656.0,-0.005223424858135761
3655.0,-0.005137595908863979
3654.0,-0.005137595908863979
3653.0,-0.005137595908863979
3652.0,-0.005180512503780488
3651.0,-0.005223424858135761
3650.0,-0.005223424858135761
3649.0,-0.005309236848516363
3648.0,-0.005395031886706203
3647.0,-0.0054379230508221355
3646.0,-0.0054379230508221355
3645.0,-0.005480809979401258
3644.0,-0.00552369267327979
3643.0,-0.00552369267327979
3642.0,-0.005480809979401258
3641.0,-0.0054379230508221355
3640.0,-0.0054379230508221355
3639.0,-0.005480809979401258
3638.0,-0.005566571133294396
3637.0,-0.005609445360280407
3636.0,-0.005566571133294396
3635.0,-0.0054379230508221355
3634.0,-0.005352136486216796
3633.0,-0.005309236848516363
3632.0,-0.005309236848516363
3631.0,-0.005309236848516363
3630.0,-0.005309236848516363
3629.0,-0.005309236848516363
3628.0,-0.005309236848516363
3627.0,-0.005352136486216796
3626.0,-0.0054379230508221355
3625.0,-0.005609445360280407
3624.0,-0.005780899954652252
3623.0,-0.0058666018753847915
3622.0,-0.005909446494558601
3621.0,-0.005909446494558601
3620.0,-0.00582375302902749
3619.0,-0.005738042651424635
3618.0,-0.005609445360280407
3617.0,-0.005480809979401258
3616.0,-0.005480809979401258
3615.0,-0.00552369267327979
3614.0,-0.005609445360280407
3613.0,-0.005652315355074045
3612.0,-0.005652315355074045
3611.0,-0.005652315355074045
3610.0,-0.005609445360280407
3609.0,-0.005566571133294396
3608.0,-0.005480809979401258
3607.0,-0.005395031886706203
3606.0,-0.005352136486216796
3605.0,-0.005395031886706203
3604.0,-0.0054379230508221355
3603.0,-0.0054379230508221355
3602.0,-0.005480809979401258
3601.0,-0.0054379230508221355
3600.0,-0.005395031886706203
3599.0,-0.005309236848516363
3598.0,-0.005266332972768684
3597.0,-0.005180512503780488
3596.0,-0.005137595908863979
3595.0,-0.005094675072548682
3594.0,-0.005137595908863979
3593.0,-0.005180512503780488
3592.0,-0.005266332972768684
3591.0,-0.005395031886706203
3590.0,-0.005480809979401258
3589.0,-0.00552369267327979
3588.0,-0.0054379230508221355
3587.0,-0.005266332972768684
3586.0,-0.005094675072548682
3585.0,-0.005008820672367076
3584.0,-0.004965887106823441
3583.0,-0.004965887106823441
3582.0,-0.004965887106823441
3581.0,-0.004965887106823441
3580.0,-0.004965887106823441
3579.0,-0.004965887106823441
3578.0,-0.004922949296525481
3577.0,-0.00488000724063431
3576.0,-0.004794110388711914
3575.0,-0.004708196544336296
3574.0,-0.004665233247877154
3573.0,-0.004665233247877154
3572.0,-0.004665233247877154
3571.0,-0.004622265700782613
3570.0,-0.004536317851322913
3569.0,-0.004493337547274212
3568.0,-0.004536317851322913
3567.0,-0.004665233247877154
3566.0,-0.004751155591001144
3565.0,-0.004751155591001144
3564.0,-0.004751155591001144
3563.0,-0.004794110388711914
3562.0,-0.004837060938309712
3561.0,-0.004837060938309712
3560.0,-0.004708196544336296
3559.0,-0.004622265700782613
3558.0,-0.004536317851322913
3557.0,-0.004536317851322913
3556.0,-0.0045792939022115675
3555.0,-0.004536317851322913
3554.0,-0.00445035298922436
3553.0,-0.004321373782642635
3552.0,-0.004149341900058889
3551.0,-0.004063300397667113
3550.0,-0.004063300397667113
3549.0,-0.004149341900058889
3548.0,-0.0042353663594676405
3547.0,-0.004364371107751008
3546.0,-0.004364371107751008
3545.0,-0.0042783722001624724
3544.0,-0.004106323279658319
3543.0,-0.003891166236910326
3542.0,-0.003762020828246282
3541.0,-0.003675902548784027
3540.0,-0.003675902548784027
3539.0,-0.0037189638231147626
3538.0,-0.003805073565025019
3537.0,-0.003805073565025019
3536.0,-0.003805073565025019
3535.0,-0.003762020828246282
3534.0,-0.0037189638231147626
3533.0,-0.0037189638231147626
3532.0,-0.003762020828246282
3531.0,-0.003805073565025019
3530.0,-0.003762020828246282
3529.0,-0.003675902548784027
3528.0,-0.003546693102131737
3527.0,-0.0034174452021935586
3526.0,-0.0033312585613267665
3525.0,-0.0032450548131470747
3524.0,-0.003158833950862139
3523.0,-0.003029470553618019
3522.0,-0.0029432068763250996
3521.0,-0.002856926061120646
3520.0,-0.0028137792246734072
3519.0,-0.002856926061120646
3518.0,-0.002900068611387585
3517.0,-0.0029432068763250996
3516.0,-0.002900068611387585
3515.0,-0.0028137792246734072
3514.0,-0.0027274726898296464
3513.0,-0.002597980719908577
3512.0,-0.0024684501283323
3511.0,-0.0023820749327607693
3510.0,-0.002338880892056583
3509.0,-0.0022956825549340643
3508.0,-0.0022524799205383417
3507.0,-0.0021660617565077978
3506.0,-0.0020796263931210923
3505.0,-0.0020364022595291686
3504.0,-0.0020364022595291686
3503.0,-0.0020364022595291686
3502.0,-0.0020364022595291686
3501.0,-0.0020364022595291686
3500.0,-0.0019931738235303698
3499.0,-0.0019931738235303698
3498.0,-0.0019499410842680476
3497.0,-0.0019067040408846658
3496.0,-0.0019499410842680476
3495.0,-0.0020364022595291686
3494.0,-0.0021660617565077978
3493.0,-0.0022524799205383417
3492.0,-0.0022524799205383417
3491.0,-0.0022524799205383417
3490.0,-0.0022956825549340643
3489.0,-0.002338880892056583
3488.0,-0.0023820749327607693
3487.0,-0.0023820749327607693
3486.0,-0.002338880892056583
3485.0,-0.002338880892056583
3484.0,-0.0023820749327607693
3483.0,-0.0025116312849080558
3482.0,-0.002597980719908577
3481.0,-0.0026411490000399773
3480.0,-0.002684312989729598
3479.0,-0.0027706281011936618
3478.0,-0.002856926061120646
3477.0,-0.0029863408567849525
3476.0,-0.0030725959676747294
3475.0,-0.0030725959676747294
3474.0,-0.0030725959676747294
3473.0,-0.003029470553618019
3472.0,-0.0029432068763250996
3471.0,-0.0029432068763250996
3470.0,-0.0029432068763250996
3469.0,-0.003029470553618019
3468.0,-0.003115717099805959
3467.0,-0.003201946521692367
3466.0,-0.0032450548131470747
3465.0,-0.0032881588260753603
3464.0,-0.0033312585613267665
3463.0,-0.0033312585613267665
3462.0,-0.0033312585613267665
3461.0,-0.0032881588260753603
3460.0,-0.0032450548131470747
3459.0,-0.003158833950862139
3458.0,-0.0030725959676747294
3457.0,-0.003029470553618019
3456.0,-0.0029863408567849525
3455.0,-0.0029432068763250996
3454.0,-0.0029432068763250996
3453.0,-0.003029470553618019
3452.0,-0.003115717099805959
3451.0,-0.003158833950862139
3450.0,-0.003201946521692367
3449.0,-0.0032450548131470747
3448.0,-0.0032450548131470747
3447.0,-0.0032450548131470747
3446.0,-0.003158833950862139
3445.0,-0.003029470553618019
3444.0,-0.0029432068763250996
3443.0,-0.0029432068763250996
3442.0,-0.0029863408567849525
3441.0,-0.0030725959676747294
3440.0,-0.003115717099805959
3439.0,-0.003158833950862139
3438.0,-0.003158833950862139
3437.0,-0.0030725959676747294
3436.0,-0.0029863408567849525
3435.0,-0.0029432068763250996
3434.0,-0.002900068611387585
3433.0,-0.002900068611387585
3432.0,-0.0029432068763250996
3431.0,-0.0029863408567849525
3430.0,-0.0030725959676747294
3429.0,-0.0030725959676747294
3428.0,-0.003115717099805959
3427.0,-0.003158833950862139
3426.0,-0.003158833950862139
3425.0,-0.003201946521692367
3424.0,-0.0032450548131470747
3423.0,-0.0032450548131470747
3422.0,-0.003158833950862139
3421.0,-0.0029863408567849525
3420.0,-0.0027706281011936618
3419.0,-0.002597980719908577
3418.0,-0.0025116312849080558
3417.0,-0.0025548081484823015
3416.0,-0.002684312989729598
3415.0,-0.0028137792246734072
3414.0,-0.002900068611387585
3413.0,-0.0029432068763250996
3412.0,-0.002856926061120646
3411.0,-0.0027706281011936618
3410.0,-0.002684312989729598
3409.0,-0.002597980719908577
3408.0,-0.002597980719908577
3407.0,-0.002597980719908577
3406.0,-0.0026411490000399773
3405.0,-0.002684312989729598
3404.0,-0.002684312989729598
3403.0,-0.0026411490000399773
3402.0,-0.002684312989729598
3401.0,-0.0027274726898296464
3400.0,-0.0027706281011936618
3399.0,-0.0027274726898296464
3398.0,-0.002684312989729598
3397.0,-0.0026411490000399773
3396.0,-0.002597980719908577
3395.0,-0.0026411490000399773
3394.0,-0.0026411490000399773
3393.0,-0.0026411490000399773
3392.0,-0.0026411490000399773
3391.0,-0.002597980719908577
3390.0,-0.002597980719908577
3389.0,-0.0025548081484823015
3388.0,-0.0025116312849080558
3387.0,-0.0024684501283323
3386.0,-0.0024252646779014952
3385.0,-0.0023820749327607693
3384.0,-0.0024252646779014952
3383.0,-0.0025548081484823015
3382.0,-0.0026411490000399773
3381.0,-0.002684312989729598
3380.0,-0.002597980719908577
3379.0,-0.0025548081484823015
3378.0,-0.0024684501283323
3377.0,-0.0024684501283323
3376.0,-0.0024684501283323
3375.0,-0.0024684501283323
3374.0,-0.0024684501283323
3373.0,-0.0024684501283323
3372.0,-0.0025116312849080558
3371.0,-0.0025548081484823015
3370.0,-0.0025548081484823015
3369.0,-0.0025116312849080558
3368.0,-0.0024684501283323
3367.0,-0.0024252646779014952
3366.0,-0.0024252646779014952
3365.0,-0.0024684501283323
3364.0,-0.0024684501283323
3363.0,-0.0024252646779014952
3362.0,-0.0024252646779014952
3361.0,-0.0023820749327607693
3360.0,-0.002338880892056583
3359.0,-0.002338880892056583
3358.0,-0.0023820749327607693
3357.0,-0.0024252646779014952
3356.0,-0.0024684501283323
3355.0,-0.0025116312849080558
3354.0,-0.0025116312849080558
3353.0,-0.0024684501283323
3352.0,-0.0023820749327607693
3351.0,-0.002338880892056583
3350.0,-0.0022956825549340643
3349.0,-0.0022956825549340643
3348.0,-0.0022524799205383417
3347.0,-0.0022956825549340643
3346.0,-0.0022956825549340643
3345.0,-0.002338880892056583
3344.0,-0.002338880892056583
3343.0,-0.0023820749327607693
3342.0,-0.0024252646779014952
3341.0,-0.0024684501283323
3340.0,-0.0025116312849080558
3339.0,-0.0025116312849080558
3338.0,-0.0024684501283323
3337.0,-0.002338880892056583
3336.0,-0.0022956825549340643
3335.0,-0.002338880892056583
3334.0,-0.0024252646779014952
3333.0,-0.0024684501283323
3332.0,-0.0024684501283323
3331.0,-0.0024684501283323
3330.0,-0.0023820749327607693
3329.0,-0.002338880892056583
3328.0,-0.002338880892056583
3327.0,-0.002338880892056583
3326.0,-0.0024252646779014952
3325.0,-0.0024684501283323
3324.0,-0.0025116312849080558
3323.0,-0.0024684501283323
3322.0,-0.0024684501283323
3321.0,-0.0024252646779014952
3320.0,-0.0023820749327607693
3319.0,-0.0023820749327607693
3318.0,-0.002338880892056583
3317.0,-0.002338880892056583
3316.0,-0.0023820749327607693
3315.0,-0.0024252646779014952
3314.0,-0.0024684501283323
3313.0,-0.0024684501283323
3312.0,-0.0024684501283323
3311.0,-0.0025116312849080558
3310.0,-0.0025548081484823015
3309.0,-0.0025116312849080558
3308.0,-0.0024684501283323
3307.0,-0.0024252646779014952
3306.0,-0.0024252646779014952
3305.0,-0.0024684501283323
3304.0,-0.0024684501283323
3303.0,-0.0024684501283323
3302.0,-0.0025116312849080558
3301.0,-0.0025548081484823015
3300.0,-0.002597980719908577
3299.0,-0.0025548081484823015
3298.0,-0.0025548081484823015
3297.0,-0.0025548081484823015
3296.0,-0.002597980719908577
3295.0,-0.002597980719908577
3294.0,-0.0025116312849080558
3293.0,-0.0023820749327607693
3292.0,-0.0022524799205383417
3291.0,-0.0022092729880145434
3290.0,-0.0022956825549340643
3289.0,-0.0024252646779014952
3288.0,-0.0025548081484823015
3287.0,-0.002597980719908577
3286.0,-0.0025548081484823015
3285.0,-0.0024684501283323
3284.0,-0.0024252646779014952
3283.0,-0.0024684501283323
3282.0,-0.0025548081484823015
3281.0,-0.0026411490000399773
3280.0,-0.002684312989729598
3279.0,-0.002597980719908577
3278.0,-0.0024684501283323
3277.0,-0.0023820749327607693
3276.0,-0.002338880892056583
3275.0,-0.002338880892056583
3274.0,-0.002338880892056583
3273.0,-0.002338880892056583
3272.0,-0.002338880892056583
3271.0,-0.0024252646779014952
3270.0,-0.0025116312849080558
3269.0,-0.002597980719908577
3268.0,-0.002597980719908577
3267.0,-0.002597980719908577
3266.0,-0.0025116312849080558
3265.0,-0.0024252646779014952
3264.0,-0.002338880892056583
3263.0,-0.0022524799205383417
3262.0,-0.0021660617565077978
3261.0,-0.0021660617565077978
3260.0,-0.0022092729880145434
3259.0,-0.0022956825549340643
3258.0,-0.002338880892056583
3257.0,-0.002338880892056583
3256.0,-0.0022956825549340643
3255.0,-0.0022956825549340643
3254.0,-0.002338880892056583
3253.0,-0.0024252646779014952
3252.0,-0.0025116312849080558
3251.0,-0.0025116312849080558
3250.0,-0.0025548081484823015
3249.0,-0.0025116312849080558
3248.0,-0.0024684501283323
3247.0,-0.0024252646779014952
3246.0,-0.0023820749327607693
3245.0,-0.0024252646779014952
3244.0,-0.0024684501283323
3243.0,-0.0024684501283323
3242.0,-0.0024684501283323
3241.0,-0.0023820749327607693
3240.0,-0.0022956825549340643
3239.0,-0.0022956825549340643
3238.0,-0.0023820749327607693
3237.0,-0.0025116312849080558
3236.0,-0.002597980719908577
3235.0,-0.002597980719908577
3234.0,-0.0025548081484823015
3233.0,-0.0025116312849080558
3232.0,-0.0024684501283323
3231.0,-0.0024684501283323
3230.0,-0.0024684501283323
3229.0,-0.0024684501283323
3228.0,-0.0025116312849080558
3227.0,-0.0025116312849080558
3226.0,-0.0025548081484823015
3225.0,-0.002597980719908577
3224.0,-0.002597980719908577
3223.0,-0.002597980719908577
3222.0,-0.0025548081484823015
3221.0,-0.0025548081484823015
3220.0,-0.0025548081484823015
3219.0,-0.002597980719908577
3218.0,-0.0026411490000399773
3217.0,-0.002684312989729598
3216.0,-0.0027274726898296464
3215.0,-0.002856926061120646
3214.0,-0.0029863408567849525
3213.0,-0.003029470553618019
3212.0,-0.0029863408567849525
3211.0,-0.002856926061120646
3210.0,-0.002684312989729598
3209.0,-0.0025116312849080558
3208.0,-0.0023820749327607693
3207.0,-0.0022956825549340643
3206.0,-0.0022956825549340643
3205.0,-0.002338880892056583
3204.0,-0.0024684501283323
3203.0,-0.0025548081484823015
3202.0,-0.0025548081484823015
3201.0,-0.0025548081484823015
3200.0,-0.0025116312849080558
3199.0,-0.0024684501283323
3198.0,-0.0024684501283323
3197.0,-0.0024684501283323
3196.0,-0.0025548081484823015
3195.0,-0.0026411490000399773
3194.0,-0.0027706281011936618
3193.0,-0.002856926061120646
3192.0,-0.002856926061120646
3191.0,-0.002900068611387585
3190.0,-0.002900068611387585
3189.0,-0.0029432068763250996
3188.0,-0.0029432068763250996
3187.0,-0.0029863408567849525
3186.0,-0.0029863408567849525
3185.0,-0.003029470553618019
3184.0,-0.0029863408567849525
3183.0,-0.003029470553618019
3182.0,-0.0030725959676747294
3181.0,-0.003158833950862139
3180.0,-0.0032450548131470747
3179.0,-0.0032450548131470747
3178.0,-0.003158833950862139
3177.0,-0.0030725959676747294
3176.0,-0.0029432068763250996
3175.0,-0.002900068611387585
3174.0,-0.002900068611387585
3173.0,-0.0029432068763250996
3172.0,-0.003029470553618019
3171.0,-0.0030725959676747294
3170.0,-0.003115717099805959
3169.0,-0.003115717099805959
3168.0,-0.0030725959676747294
3167.0,-0.0030725959676747294
3166.0,-0.0030725959676747294
3165.0,-0.003115717099805959
3164.0,-0.003201946521692367
3163.0,-0.0032450548131470747
3162.0,-0.0032450548131470747
3161.0,-0.0032450548131470747
3160.0,-0.003201946521692367
3159.0,-0.003201946521692367
3158.0,-0.003201946521692367
3157.0,-0.0032450548131470747
3156.0,-0.0032881588260753603
3155.0,-0.0033312585613267665
3154.0,-0.0033312585613267665
3153.0,-0.0033312585613267665
3152.0,-0.0033312585613267665
3151.0,-0.0033743540197499478
3150.0,-0.0033743540197499478
3149.0,-0.0034174452021935586
3148.0,-0.0034605321095062536
3147.0,-0.0034605321095062536
3146.0,-0.0034174452021935586
3145.0,-0.0033312585613267665
3144.0,-0.0032881588260753603
3143.0,-0.0033312585613267665
3142.0,-0.0034174452021935586
3141.0,-0.003503614742536687
3140.0,-0.0035897671891400584
3139.0,-0.003632837004408529
3138.0,-0.003675902548784027
3137.0,-0.0037189638231147626
3136.0,-0.003675902548784027
3135.0,-0.003675902548784027
3134.0,-0.003675902548784027
3133.0,-0.003675902548784027
3132.0,-0.003675902548784027
3131.0,-0.003675902548784027
3130.0,-0.003675902548784027
3129.0,-0.003675902548784027
3128.0,-0.003675902548784027
3127.0,-0.0037189638231147626
3126.0,-0.0037189638231147626
3125.0,-0.0037189638231147626
3124.0,-0.003762020828246282
3123.0,-0.003805073565025019
3122.0,-0.0038481220342978517
3121.0,-0.003805073565025019
3120.0,-0.0037189638231147626
3119.0,-0.003632837004408529
3118.0,-0.003546693102131737
3117.0,-0.003546693102131737
3116.0,-0.003546693102131737
3115.0,-0.003632837004408529
3114.0,-0.003632837004408529
3113.0,-0.003632837004408529
3112.0,-0.0035897671891400584
3111.0,-0.0035897671891400584
3110.0,-0.003632837004408529
3109.0,-0.0037189638231147626
3108.0,-0.003805073565025019
3107.0,-0.003891166236910326
3106.0,-0.0039772418455368275
3105.0,-0.0039772418455368275
3104.0,-0.003934206173708432
3103.0,-0.003891166236910326
3102.0,-0.003891166236910326
3101.0,-0.003891166236910326
3100.0,-0.003934206173708432
3099.0,-0.003934206173708432
3098.0,-0.003891166236910326
3097.0,-0.0038481220342978517
3096.0,-0.003805073565025019
3095.0,-0.003805073565025019
3094.0,-0.0038481220342978517
3093.0,-0.003891166236910326
3092.0,-0.0039772418455368275
3091.0,-0.004020273253241502
3090.0,-0.004063300397667113
3089.0,-0.004106323279658319
3088.0,-0.004149341900058889
3087.0,-0.004192356259714369
3086.0,-0.0042353663594676405
3085.0,-0.004192356259714369
3084.0,-0.004149341900058889
3083.0,-0.004106323279658319
3082.0,-0.004063300397667113
3081.0,-0.004063300397667113
3080.0,-0.004020273253241502
3079.0,-0.004020273253241502
3078.0,-0.004020273253241502
3077.0,-0.004020273253241502
3076.0,-0.0039772418455368275
3075.0,-0.004020273253241502
3074.0,-0.004063300397667113
3073.0,-0.004149341900058889
3072.0,-0.0042353663594676405
3071.0,-0.004321373782642635
3070.0,-0.004364371107751008
3069.0,-0.004364371107751008
3068.0,-0.004407364176330919
3067.0,-0.004364371107751008
3066.0,-0.004321373782642635
3065.0,-0.0042353663594676405
3064.0,-0.004149341900058889
3063.0,-0.004106323279658319
3062.0,-0.004192356259714369
3061.0,-0.0042783722001624724
3060.0,-0.004321373782642635
3059.0,-0.0042783722001624724
3058.0,-0.004192356259714369
3057.0,-0.004106323279658319
3056.0,-0.004106323279658319
3055.0,-0.004106323279658319
3054.0,-0.004106323279658319
3053.0,-0.004106323279658319
3052.0,-0.004106323279658319
3051.0,-0.004149341900058889
3050.0,-0.004192356259714369
3049.0,-0.004192356259714369
3048.0,-0.004192356259714369
3047.0,-0.004192356259714369
3046.0,-0.004192356259714369
3045.0,-0.004149341900058889
3044.0,-0.004063300397667113
3043.0,-0.004020273253241502
3042.0,-0.0039772418455368275
3041.0,-0.0039772418455368275
3040.0,-0.004020273253241502
3039.0,-0.004063300397667113
3038.0,-0.004020273253241502
3037.0,-0.003934206173708432
3036.0,-0.003891166236910326
3035.0,-0.0038481220342978517
3034.0,-0.0038481220342978517
3033.0,-0.0038481220342978517
3032.0,-0.003805073565025019
3031.0,-0.003762020828246282
3030.0,-0.003632837004408529
3029.0,-0.003546693102131737
3028.0,-0.0034174452021935586
3027.0,-0.0033312585613267665
3026.0,-0.003201946521692367
3025.0,-0.003029470553618019
3024.0,-0.0028137792246734072
3023.0,-0.002597980719908577
3022.0,-0.0022956825549340643
3021.0,-0.0020364022595291686
3020.0,-0.001776967077439462
3019.0,-0.0015173768235041685
3018.0,-0.001257631312230778
3017.0,-0.0009543984064577238
3016.0,-0.0006075870628903246
3015.0,-0.00017368305846510168
3014.0,0.00030411258916074324
3013.0,0.000869458712629001
3012.0,0.0015226969634936083
3011.0,0.0021769192542746563
3010.0,0.0028321285541661467
3009.0,0.003488327845821315
3008.0,0.004233220950025984
3007.0,0.005067263269958211
3006.0,0.005946936412324799
3005.0,0.006828394969235152
3004.0,0.007667440952535687
3003.0,0.00850811108984062
3002.0,0.009350411681145587
3001.0,0.010283280051895272
3000.0,0.011129033935354915
2999.0,0.011887159731648111
2998.0,0.012467797270160563
2997.0,0.012825498912458322
2996.0,0.013004460275618523
2995.0,0.013004460275618523
2994.0,0.012780770091995297
2993.0,0.012378417874516323
2992.0,0.011708658092512314
2991.0,0.01086177578421088
2990.0,0.00974996707218323
2989.0,0.00850811108984062
2988.0,0.007313960837872058
2987.0,0.00612308505878878
2986.0,0.005111204635089406
2985.0,0.004189368323957332
2984.0,0.0033570086445275926
2983.0,0.002613615602686581
2982.0,0.0019587356365717845
2981.0,0.001348404001626502
2980.0,0.000869458712629001
2979.0,0.0004779868710962365
2978.0,4.343161980746579e-05
2977.0,-0.0003906892499099257
2976.0,-0.0007810273534953893
2975.0,-0.0011710149414008164
2974.0,-0.0015606526425728795
2973.0,-0.0019067040408846658
2972.0,-0.0022092729880145434
2971.0,-0.0025116312849080558
2970.0,-0.0028137792246734072
2969.0,-0.003158833950862139
2968.0,-0.003503614742536687
2967.0,-0.003891166236910326
2966.0,-0.004321373782642635
2965.0,-0.004708196544336296
2964.0,-0.005094675072548682
2963.0,-0.0054379230508221355
2962.0,-0.005738042651424635
2961.0,-0.005909446494558601
2960.0,-0.006037954997317296
2959.0,-0.006037954997317296
2958.0,-0.005909446494558601
2957.0,-0.005652315355074045
2956.0,-0.005352136486216796
2955.0,-0.004922949296525481
2954.0,-0.004407364176330919
2953.0,-0.003805073565025019
2952.0,-0.003029470553618019
2951.0,-0.0022524799205383417
2950.0,-0.0014308122463981832
2949.0,-0.0006509536295951079
2948.0,-8.685021164911433e-05
2947.0,0.00021720154586435392
2946.0,0.0001303078917322953
2945.0,-0.00030389978481260016
2944.0,-0.0010843812922201046
2943.0,-0.0021660617565077978
2942.0,-0.003503614742536687
2941.0,-0.005051749993995713
2940.0,-0.006765452451992449
2939.0,-0.008557591784247087
2938.0,-0.010427172717049071
2937.0,-0.012288739834606766
2936.0,-0.014100321519620707
2935.0,-0.01594624365756614
2934.0,-0.017700971224116735
2933.0,-0.019448637493636678
2932.0,-0.021230658479702402
2931.0,-0.023005397249934667
2930.0,-0.024813932629310642
2929.0,-0.026574118150334503
2928.0,-0.02828650942627764
2927.0,-0.029870564003952715
2926.0,-0.031287248876997964
2925.0,-0.032457582714929156
2924.0,-0.03326287588447885
2923.0,-0.033745336013974114
2922.0,-0.03390603702668793
2921.0,-0.033664963203177134
2920.0,-0.03310193666384764
2919.0,-0.03225602589045318
2918.0,-0.031327657761131
2917.0,-0.03031630598858559
2916.0,-0.0292619958041751
2915.0,-0.02820511990544272
2914.0,-0.027064062151045398
2913.0,-0.02596090985637911
2912.0,-0.024936968037443386
2911.0,-0.02399280460647102
2910.0,-0.023128946010495532
2909.0,-0.022428371185486462
2908.0,-0.021767972682406267
2907.0,-0.021147935720994493
2906.0,-0.02052701227456266
2905.0,-0.019946681678842282
2904.0,-0.019407108018883346
2903.0,-0.018908444316327433
2902.0,-0.018409207382068526
2901.0,-0.017951068830742045
2900.0,-0.017450729510536167
2899.0,-0.01703333929878026
2898.0,-0.0166155475571772
2897.0,-0.016239191042638712
2896.0,-0.015778756389040804
2895.0,-0.015275906681875284
2894.0,-0.014772474073063702
2893.0,-0.014268457209642982
2892.0,-0.013763854733932934
2891.0,-0.013258665283516713
2890.0,-0.012795058145412597
2889.0,-0.012373167222489823
2888.0,-0.011950866059398546
2887.0,-0.011485859999405879
2886.0,-0.010978012174742258
2885.0,-0.010511962737213665
2884.0,-0.01013027721514792
2883.0,-0.009833178608563031
2882.0,-0.009705788390518055
2881.0,-0.009663316679379363
2880.0,-0.009705788390518055
2879.0,-0.009833178608563031
2878.0,-0.010087846998524608
2877.0,-0.010469569796391909
2876.0,-0.010978012174742258
2875.0,-0.011570443597278324
2874.0,-0.012162067970823198
2873.0,-0.0127107127417867
2872.0,-0.013216539624440582
2871.0,-0.013595523537289544
2870.0,-0.013974177020915857
2869.0,-0.014352500651008793
2868.0,-0.01468851187233744
2867.0,-0.01506621401114927
2866.0,-0.015527404313787407
2865.0,-0.01611366635890832
2864.0,-0.016866270828975072
2863.0,-0.017784353096678363
2862.0,-0.018825278003951063
2861.0,-0.019988159591285193
2860.0,-0.021272013951038282
2859.0,-0.022634539944118792
2858.0,-0.02399280460647102
2857.0,-0.025346834509827332
2856.0,-0.02653326452329674
2855.0,-0.027431157766903524
2854.0,-0.028001579346857763
2853.0,-0.028042295090749736
2852.0,-0.02771646220899049
2851.0,-0.026941627959029546
2850.0,-0.025879083293366634
2849.0,-0.024567757196038098
2848.0,-0.023046584075505194
2847.0,-0.021478732257527167
2846.0,-0.019946681678842282
2845.0,-0.018492453401472986
2844.0,-0.017242084547645753
2843.0,-0.016155511951454482
2842.0,-0.015192041762834396
2841.0,-0.014352500651008793
2840.0,-0.013553430541676015
2839.0,-0.012921545544560153
2838.0,-0.012330955580146963
2837.0,-0.011866356527724164
2836.0,-0.011443562022074527
2835.0,-0.01110502981598005
2834.0,-0.010808597512206308
2833.0,-0.010554351540322138
2832.0,-0.010384771498377354
2831.0,-0.010257542998301172
2830.0,-0.010087846998524608
2829.0,-0.009918084665901272
2828.0,-0.009705788390518055
2827.0,-0.009493388287539872
2826.0,-0.00932339338101329
2825.0,-0.009195853519521346
2824.0,-0.009025742086910427
2823.0,-0.008855563996212457
2822.0,-0.008727886652384775
2821.0,-0.00864274756528527
2820.0,-0.008600171761917519
2819.0,-0.008600171761917519
2818.0,-0.008600171761917519
2817.0,-0.008557591784247087
2816.0,-0.008472419302722134
2815.0,-0.008429826797229811
2814.0,-0.008387230114158761
2813.0,-0.008344629252689195
2812.0,-0.008302024212001324
2811.0,-0.008302024212001324
2810.0,-0.008344629252689195
2809.0,-0.008344629252689195
2808.0,-0.00825941499127536
2807.0,-0.008088936291577475
2806.0,-0.008003671840159488
2805.0,-0.007918390645599072
2804.0,-0.007918390645599072
2803.0,-0.007961033336183032
2802.0,-0.008003671840159488
2801.0,-0.008046306158350447
2800.0,-0.008088936291577475
2799.0,-0.008088936291577475
2798.0,-0.008046306158350447
2797.0,-0.008046306158350447
2796.0,-0.008003671840159488
2795.0,-0.008003671840159488
2794.0,-0.008003671840159488
2793.0,-0.007961033336183032
2792.0,-0.007875743767585153
2791.0,-0.007790437445978515
2790.0,-0.007790437445978515
2789.0,-0.007790437445978515
2788.0,-0.007833092701319266
2787.0,-0.007790437445978515
2786.0,-0.0077051143647803855
2785.0,-0.007619774517403144
2784.0,-0.007577098304338836
2783.0,-0.007577098304338836
2782.0,-0.007619774517403144
2781.0,-0.0077051143647803855
2780.0,-0.007747778000740002
2779.0,-0.007747778000740002
2778.0,-0.007747778000740002
2777.0,-0.007747778000740002
2776.0,-0.007790437445978515
2775.0,-0.007833092701319266
2774.0,-0.007833092701319266
2773.0,-0.007833092701319266
2772.0,-0.007747778000740002
2771.0,-0.0077051143647803855
2770.0,-0.0077051143647803855
2769.0,-0.007747778000740002
2768.0,-0.007790437445978515
2767.0,-0.007790437445978515
2766.0,-0.007790437445978515
2765.0,-0.0077051143647803855
2764.0,-0.007619774517403144
2763.0,-0.007619774517403144
2762.0,-0.007619774517403144
2761.0,-0.00766244653727588
2760.0,-0.0077051143647803855
2759.0,-0.007747778000740002
2758.0,-0.007790437445978515
2757.0,-0.007790437445978515
2756.0,-0.007790437445978515
2755.0,-0.007833092701319266
2754.0,-0.007833092701319266
2753.0,-0.007790437445978515
2752.0,-0.007747778000740002
2751.0,-0.00766244653727588
2750.0,-0.007619774517403144
2749.0,-0.007577098304338836
2748.0,-0.007577098304338836
2747.0,-0.007619774517403144
2746.0,-0.0077051143647803855
2745.0,-0.007790437445978515
2744.0,-0.007833092701319266
2743.0,-0.007833092701319266
2742.0,-0.007790437445978515
2741.0,-0.007747778000740002
2740.0,-0.0077051143647803855
2739.0,-0.007747778000740002
2738.0,-0.007747778000740002
2737.0,-0.007790437445978515
2736.0,-0.007790437445978515
2735.0,-0.007833092701319266
2734.0,-0.007875743767585153
2733.0,-0.007875743767585153
2732.0,-0.007875743767585153
2731.0,-0.007875743767585153
2730.0,-0.007833092701319266
2729.0,-0.007790437445978515
2728.0,-0.007790437445978515
2727.0,-0.007790437445978515
2726.0,-0.007833092701319266
2725.0,-0.007833092701319266
2724.0,-0.007833092701319266
2723.0,-0.007790437445978515
2722.0,-0.007747778000740002
2721.0,-0.007747778000740002
2720.0,-0.007747778000740002
2719.0,-0.007790437445978515
2718.0,-0.007833092701319266
2717.0,-0.007790437445978515
2716.0,-0.007747778000740002
2715.0,-0.007747778000740002
2714.0,-0.007747778000740002
2713.0,-0.007790437445978515
2712.0,-0.007833092701319266
2711.0,-0.007875743767585153
2710.0,-0.007875743767585153
2709.0,-0.007833092701319266
2708.0,-0.007747778000740002
2707.0,-0.0077051143647803855
2706.0,-0.0077051143647803855
2705.0,-0.0077051143647803855
2704.0,-0.00766244653727588
2703.0,-0.007619774517403144
2702.0,-0.007619774517403144
2701.0,-0.007619774517403144
2700.0,-0.00766244653727588
2699.0,-0.0077051143647803855
2698.0,-0.007747778000740002
2697.0,-0.0077051143647803855
2696.0,-0.00766244653727588
2695.0,-0.007619774517403144
2694.0,-0.007619774517403144
2693.0,-0.007619774517403144
2692.0,-0.0077051143647803855
2691.0,-0.007747778000740002
2690.0,-0.007747778000740002
2689.0,-0.0077051143647803855
2688.0,-0.007619774517403144
2687.0,-0.007577098304338836
2686.0,-0.007577098304338836
2685.0,-0.007619774517403144
2684.0,-0.007577098304338836
2683.0,-0.007577098304338836
2682.0,-0.007619774517403144
2681.0,-0.00766244653727588
2680.0,-0.0077051143647803855
2679.0,-0.0077051143647803855
2678.0,-0.007619774517403144
2677.0,-0.007534417897257839
2676.0,-0.007534417897257839
2675.0,-0.007619774517403144
2674.0,-0.007747778000740002
2673.0,-0.007790437445978515
2672.0,-0.007790437445978515
2671.0,-0.007747778000740002
2670.0,-0.007747778000740002
2669.0,-0.0077051143647803855
2668.0,-0.0077051143647803855
2667.0,-0.0077051143647803855
2666.0,-0.0077051143647803855
2665.0,-0.007747778000740002
2664.0,-0.0077051143647803855
2663.0,-0.0077051143647803855
2662.0,-0.007747778000740002
2661.0,-0.007790437445978515
2660.0,-0.007790437445978515
2659.0,-0.007833092701319266
2658.0,-0.007790437445978515
2657.0,-0.007790437445978515
2656.0,-0.007790437445978515
2655.0,-0.007790437445978515
2654.0,-0.007833092701319266
2653.0,-0.007790437445978515
2652.0,-0.007747778000740002
2651.0,-0.0077051143647803855
2650.0,-0.0077051143647803855
2649.0,-0.007747778000740002
2648.0,-0.007747778000740002
2647.0,-0.0077051143647803855
2646.0,-0.007619774517403144
2645.0,-0.007534417897257839
2644.0,-0.007449044497748858
2643.0,-0.007449044497748858
2642.0,-0.007491733295335923
2641.0,-0.007577098304338836
2640.0,-0.00766244653727588
2639.0,-0.0077051143647803855
2638.0,-0.0077051143647803855
2637.0,-0.007747778000740002
2636.0,-0.007747778000740002
2635.0,-0.007747778000740002
2634.0,-0.007747778000740002
2633.0,-0.0077051143647803855
2632.0,-0.0077051143647803855
2631.0,-0.0077051143647803855
2630.0,-0.007747778000740002
2629.0,-0.007747778000740002
2628.0,-0.0077051143647803855
2627.0,-0.0077051143647803855
2626.0,-0.0077051143647803855
2625.0,-0.007747778000740002
2624.0,-0.007747778000740002
2623.0,-0.007790437445978515
2622.0,-0.007875743767585153
2621.0,-0.007918390645599072
2620.0,-0.007961033336183032
2619.0,-0.007918390645599072
2618.0,-0.007875743767585153
2617.0,-0.007790437445978515
2616.0,-0.007747778000740002
2615.0,-0.007747778000740002
2614.0,-0.007790437445978515
2613.0,-0.007875743767585153
2612.0,-0.007918390645599072
2611.0,-0.007961033336183032
2610.0,-0.007961033336183032
2609.0,-0.007961033336183032
2608.0,-0.007918390645599072
2607.0,-0.007875743767585153
2606.0,-0.007833092701319266
2605.0,-0.007790437445978515
2604.0,-0.007833092701319266
2603.0,-0.007918390645599072
2602.0,-0.008003671840159488
2601.0,-0.008046306158350447
2600.0,-0.008046306158350447
2599.0,-0.008003671840159488
2598.0,-0.008003671840159488
2597.0,-0.007961033336183032
2596.0,-0.007961033336183032
2595.0,-0.007961033336183032
2594.0,-0.007961033336183032
2593.0,-0.007918390645599072
2592.0,-0.007875743767585153
2591.0,-0.007833092701319266
2590.0,-0.007790437445978515
2589.0,-0.007790437445978515
2588.0,-0.007747778000740002
2587.0,-0.007747778000740002
2586.0,-0.007747778000740002
2585.0,-0.007747778000740002
2584.0,-0.007790437445978515
2583.0,-0.007833092701319266
2582.0,-0.007833092701319266
2581.0,-0.007833092701319266
2580.0,-0.007790437445978515
2579.0,-0.007790437445978515
2578.0,-0.007833092701319266
2577.0,-0.007918390645599072
2576.0,-0.007961033336183032
2575.0,-0.008046306158350447
2574.0,-0.008088936291577475
2573.0,-0.008088936291577475
2572.0,-0.008003671840159488
2571.0,-0.007961033336183032
2570.0,-0.007961033336183032
2569.0,-0.007961033336183032
2568.0,-0.008046306158350447
2567.0,-0.008088936291577475
2566.0,-0.008131562240662582
2565.0,-0.008131562240662582
2564.0,-0.008088936291577475
2563.0,-0.008046306158350447
2562.0,-0.008003671840159488
2561.0,-0.008003671840159488
2560.0,-0.008003671840159488
2559.0,-0.008046306158350447
2558.0,-0.008131562240662582
2557.0,-0.008174184006426444
2556.0,-0.008174184006426444
2555.0,-0.008174184006426444
2554.0,-0.008174184006426444
2553.0,-0.008216801589690181
2552.0,-0.008216801589690181
2551.0,-0.008216801589690181
2550.0,-0.008174184006426444
2549.0,-0.008131562240662582
2548.0,-0.008046306158350447
2547.0,-0.008003671840159488
2546.0,-0.007961033336183032
2545.0,-0.007961033336183032
2544.0,-0.008046306158350447
2543.0,-0.008131562240662582
2542.0,-0.00825941499127536
2541.0,-0.008302024212001324
2540.0,-0.008302024212001324
2539.0,-0.00825941499127536
2538.0,-0.008216801589690181
2537.0,-0.008174184006426444
2536.0,-0.008174184006426444
2535.0,-0.008174184006426444
2534.0,-0.00825941499127536
2533.0,-0.00825941499127536
2532.0,-0.00825941499127536
2531.0,-0.00825941499127536
2530.0,-0.00825941499127536
2529.0,-0.008302024212001324
2528.0,-0.008302024212001324
2527.0,-0.008302024212001324
2526.0,-0.00825941499127536
2525.0,-0.008216801589690181
2524.0,-0.008174184006426444
2523.0,-0.008131562240662582
2522.0,-0.008131562240662582
2521.0,-0.008131562240662582
2520.0,-0.008131562240662582
2519.0,-0.008174184006426444
2518.0,-0.008216801589690181
2517.0,-0.008216801589690181
2516.0,-0.008216801589690181
2515.0,-0.008216801589690181
2514.0,-0.008174184006426444
2513.0,-0.008131562240662582
2512.0,-0.008088936291577475
2511.0,-0.008088936291577475
2510.0,-0.008131562240662582
2509.0,-0.008216801589690181
2508.0,-0.00825941499127536
2507.0,-0.008302024212001324
2506.0,-0.008302024212001324
2505.0,-0.008302024212001324
2504.0,-0.00825941499127536
2503.0,-0.008174184006426444
2502.0,-0.008131562240662582
2501.0,-0.008088936291577475
2500.0,-0.008046306158350447
2499.0,-0.008046306158350447
2498.0,-0.008088936291577475
2497.0,-0.008131562240662582
2496.0,-0.008131562240662582
2495.0,-0.008131562240662582
2494.0,-0.008131562240662582
2493.0,-0.008131562240662582
2492.0,-0.008174184006426444
2491.0,-0.00825941499127536
2490.0,-0.008302024212001324
2489.0,-0.008302024212001324
2488.0,-0.00825941499127536
2487.0,-0.008216801589690181
2486.0,-0.00825941499127536
2485.0,-0.008344629252689195
2484.0,-0.008472419302722134
2483.0,-0.00851500763145463
2482.0,-0.008557591784247087
2481.0,-0.00851500763145463
2480.0,-0.008472419302722134
2479.0,-0.008387230114158761
2478.0,-0.008387230114158761
2477.0,-0.008387230114158761
2476.0,-0.008387230114158761
2475.0,-0.008344629252689195
2474.0,-0.008344629252689195
2473.0,-0.00825941499127536
2472.0,-0.00825941499127536
2471.0,-0.008302024212001324
2470.0,-0.008344629252689195
2469.0,-0.008429826797229811
2468.0,-0.008472419302722134
2467.0,-0.00851500763145463
2466.0,-0.008557591784247087
2465.0,-0.008557591784247087
2464.0,-0.00851500763145463
2463.0,-0.00851500763145463
2462.0,-0.008472419302722134
2461.0,-0.008472419302722134
2460.0,-0.00851500763145463
2459.0,-0.00851500763145463
2458.0,-0.00851500763145463
2457.0,-0.008472419302722134
2456.0,-0.008472419302722134
2455.0,-0.008429826797229811
2454.0,-0.008429826797229811
2453.0,-0.008387230114158761
2452.0,-0.008344629252689195
2451.0,-0.008344629252689195
2450.0,-0.008344629252689195
2449.0,-0.008344629252689195
2448.0,-0.008387230114158761
2447.0,-0.008344629252689195
2446.0,-0.008302024212001324
2445.0,-0.00825941499127536
2444.0,-0.00825941499127536
2443.0,-0.00825941499127536
2442.0,-0.008302024212001324
2441.0,-0.008387230114158761
2440.0,-0.008387230114158761
2439.0,-0.008387230114158761
2438.0,-0.008387230114158761
2437.0,-0.008344629252689195
2436.0,-0.008302024212001324
2435.0,-0.008302024212001324
2434.0,-0.00825941499127536
2433.0,-0.008216801589690181
2432.0,-0.008131562240662582
2431.0,-0.008088936291577475
2430.0,-0.008046306158350447
2429.0,-0.008003671840159488
2428.0,-0.007961033336183032
2427.0,-0.007961033336183032
2426.0,-0.007961033336183032
2425.0,-0.007961033336183032
2424.0,-0.007918390645599072
2423.0,-0.007875743767585153
2422.0,-0.007833092701319266
2421.0,-0.007833092701319266
2420.0,-0.007875743767585153
2419.0,-0.007875743767585153
2418.0,-0.007918390645599072
2417.0,-0.007918390645599072
2416.0,-0.007875743767585153
2415.0,-0.007833092701319266
2414.0,-0.007790437445978515
2413.0,-0.007747778000740002
2412.0,-0.007747778000740002
2411.0,-0.007747778000740002
2410.0,-0.007833092701319266
2409.0,-0.007875743767585153
2408.0,-0.007833092701319266
2407.0,-0.007790437445978515
2406.0,-0.0077051143647803855
2405.0,-0.0077051143647803855
2404.0,-0.00766244653727588
2403.0,-0.0077051143647803855
2402.0,-0.0077051143647803855
2401.0,-0.0077051143647803855
2400.0,-0.007619774517403144
2399.0,-0.007619774517403144
2398.0,-0.007619774517403144
2397.0,-0.00766244653727588
2396.0,-0.0077051143647803855
2395.0,-0.0077051143647803855
2394.0,-0.0077051143647803855
2393.0,-0.0077051143647803855
2392.0,-0.0077051143647803855
2391.0,-0.00766244653727588
2390.0,-0.00766244653727588
2389.0,-0.00766244653727588
2388.0,-0.00766244653727588
2387.0,-0.007619774517403144
2386.0,-0.007534417897257839
2385.0,-0.0074063515036710825
2384.0,-0.007320952922744706
2383.0,-0.007320952922744706
2382.0,-0.0074063515036710825
2381.0,-0.007619774517403144
2380.0,-0.007833092701319266
2379.0,-0.008088936291577475
2378.0,-0.00825941499127536
2377.0,-0.008429826797229811
2376.0,-0.008387230114158761
2375.0,-0.008174184006426444
2374.0,-0.007790437445978515
2373.0,-0.007363654312278367
2372.0,-0.007021925578680754
2371.0,-0.00697919057427665
2370.0,-0.007192823557040651
2369.0,-0.0074063515036710825
2368.0,-0.007534417897257839
2367.0,-0.007577098304338836
2366.0,-0.007577098304338836
2365.0,-0.007320952922744706
2364.0,-0.006551609086648202
2363.0,-0.005609445360280407
2362.0,-0.005094675072548682
2361.0,-0.0054379230508221355
2360.0,-0.00659438618413688
2359.0,-0.008003671840159488
2358.0,-0.009025742086910427
2357.0,-0.009068276192218505
2356.0,-0.008557591784247087
2355.0,-0.008216801589690181
2354.0,-0.00825941499127536
2353.0,-0.008429826797229811
2352.0,-0.008046306158350447
2351.0,-0.00697919057427665
2350.0,-0.005909446494558601
2349.0,-0.005652315355074045
2348.0,-0.006551609086648202
2347.0,-0.007961033336183032
2346.0,-0.00881300905208926
2345.0,-0.00864274756528527
2344.0,-0.0077051143647803855
2343.0,-0.00710738297405733
2342.0,-0.007235537545951853
2341.0,-0.007790437445978515
2340.0,-0.008174184006426444
2339.0,-0.008302024212001324
2338.0,-0.008429826797229811
2337.0,-0.008429826797229811
2336.0,-0.008387230114158761
2335.0,-0.008429826797229811
2334.0,-0.008855563996212457
2333.0,-0.009408399151866753
2332.0,-0.009705788390518055
2331.0,-0.009578360794542107
2330.0,-0.00923837096846647
2329.0,-0.00881300905208926
2328.0,-0.008429826797229811
2327.0,-0.008174184006426444
2326.0,-0.008174184006426444
2325.0,-0.008344629252689195
2324.0,-0.008472419302722134
2323.0,-0.008600171761917519
2322.0,-0.008600171761917519
2321.0,-0.00851500763145463
2320.0,-0.008216801589690181
2319.0,-0.007918390645599072
2318.0,-0.007790437445978515
2317.0,-0.007790437445978515
2316.0,-0.007961033336183032
2315.0,-0.008174184006426444
2314.0,-0.00825941499127536
2313.0,-0.008174184006426444
2312.0,-0.008003671840159488
2311.0,-0.007875743767585153
2310.0,-0.008003671840159488
2309.0,-0.008131562240662582
2308.0,-0.00825941499127536
2307.0,-0.008302024212001324
2306.0,-0.00825941499127536
2305.0,-0.008174184006426444
2304.0,-0.008131562240662582
2303.0,-0.008131562240662582
2302.0,-0.008216801589690181
2301.0,-0.00825941499127536
2300.0,-0.00825941499127536
2299.0,-0.00825941499127536
2298.0,-0.008302024212001324
2297.0,-0.008387230114158761
2296.0,-0.008429826797229811
2295.0,-0.008429826797229811
2294.0,-0.008429826797229811
2293.0,-0.008472419302722134
2292.0,-0.008557591784247087
2291.0,-0.008600171761917519
2290.0,-0.008685319195167907
2289.0,-0.008727886652384775
2288.0,-0.008727886652384775
2287.0,-0.008685319195167907
2286.0,-0.008685319195167907
2285.0,-0.008685319195167907
2284.0,-0.008727886652384775
2283.0,-0.008770449937752556
2282.0,-0.008855563996212457
2281.0,-0.008898114770939713
2280.0,-0.008940661377087267
2279.0,-0.008983203815471796
2278.0,-0.009068276192218505
2277.0,-0.009068276192218505
2276.0,-0.009110806132212712
2275.0,-0.009110806132212712
2274.0,-0.009110806132212712
2273.0,-0.009110806132212712
2272.0,-0.009068276192218505
2271.0,-0.008983203815471796
2270.0,-0.008940661377087267
2269.0,-0.008898114770939713
2268.0,-0.008940661377087267
2267.0,-0.008983203815471796
2266.0,-0.009068276192218505
2265.0,-0.009110806132212712
2264.0,-0.009110806132212712
2263.0,-0.009110806132212712
2262.0,-0.009110806132212712
2261.0,-0.009110806132212712
2260.0,-0.009068276192218505
2259.0,-0.009110806132212712
2258.0,-0.009110806132212712
2257.0,-0.009110806132212712
2256.0,-0.009068276192218505
2255.0,-0.009068276192218505
2254.0,-0.009068276192218505
2253.0,-0.009068276192218505
2252.0,-0.009025742086910427
2251.0,-0.009068276192218505
2250.0,-0.009110806132212712
2249.0,-0.009153331907708395
2248.0,-0.009153331907708395
2247.0,-0.009195853519521346
2246.0,-0.009280884255358668
2245.0,-0.009280884255358668
2244.0,-0.009280884255358668
2243.0,-0.00923837096846647
2242.0,-0.00923837096846647
2241.0,-0.00923837096846647
2240.0,-0.009280884255358668
2239.0,-0.009365898346244794
2238.0,-0.00945089579869407
2237.0,-0.009493388287539872
2236.0,-0.009408399151866753
2235.0,-0.009365898346244794
2234.0,-0.009365898346244794
2233.0,-0.009365898346244794
2232.0,-0.009408399151866753
2231.0,-0.009493388287539872
2230.0,-0.009535876619218175
2229.0,-0.009578360794542107
2228.0,-0.009578360794542107
2227.0,-0.009578360794542107
2226.0,-0.009578360794542107
2225.0,-0.009578360794542107
2224.0,-0.009578360794542107
2223.0,-0.009578360794542107
2222.0,-0.009578360794542107
2221.0,-0.009578360794542107
2220.0,-0.009578360794542107
2219.0,-0.009578360794542107
2218.0,-0.009578360794542107
2217.0,-0.009620840814324794
2216.0,-0.009663316679379363
2215.0,-0.009705788390518055
2214.0,-0.009748255948553552
2213.0,-0.009748255948553552
2212.0,-0.009705788390518055
2211.0,-0.009705788390518055
2210.0,-0.009748255948553552
2209.0,-0.009748255948553552
2208.0,-0.009748255948553552
2207.0,-0.009748255948553552
2206.0,-0.00979071935429765
2205.0,-0.009833178608563031
2204.0,-0.009875633712160159
2203.0,-0.009918084665901272
2202.0,-0.009960531470597278
2201.0,-0.009960531470597278
2200.0,-0.009960531470597278
2199.0,-0.009918084665901272
2198.0,-0.009918084665901272
2197.0,-0.009918084665901272
2196.0,-0.009918084665901272
2195.0,-0.009875633712160159
2194.0,-0.009918084665901272
2193.0,-0.009918084665901272
2192.0,-0.009875633712160159
2191.0,-0.009875633712160159
2190.0,-0.009875633712160159
2189.0,-0.009918084665901272
2188.0,-0.009960531470597278
2187.0,-0.009960531470597278
2186.0,-0.010002974127059527
2185.0,-0.009960531470597278
2184.0,-0.009918084665901272
2183.0,-0.009833178608563031
2182.0,-0.009748255948553552
2181.0,-0.009663316679379363
2180.0,-0.009620840814324794
2179.0,-0.009620840814324794
2178.0,-0.009663316679379363
2177.0,-0.009705788390518055
2176.0,-0.009705788390518055
2175.0,-0.009748255948553552
2174.0,-0.00979071935429765
2173.0,-0.00979071935429765
2172.0,-0.00979071935429765
2171.0,-0.00979071935429765
2170.0,-0.009833178608563031
2169.0,-0.009833178608563031
2168.0,-0.009833178608563031
2167.0,-0.009833178608563031
2166.0,-0.009833178608563031
2165.0,-0.009833178608563031
2164.0,-0.009875633712160159
2163.0,-0.009875633712160159
2162.0,-0.009875633712160159
2161.0,-0.009833178608563031
2160.0,-0.00979071935429765
2159.0,-0.009748255948553552
2158.0,-0.009705788390518055
2157.0,-0.009705788390518055
2156.0,-0.009748255948553552
2155.0,-0.00979071935429765
2154.0,-0.009833178608563031
2153.0,-0.009875633712160159
2152.0,-0.009833178608563031
2151.0,-0.00979071935429765
2150.0,-0.009748255948553552
2149.0,-0.009748255948553552
2148.0,-0.009705788390518055
2147.0,-0.009705788390518055
2146.0,-0.009748255948553552
2145.0,-0.00979071935429765
2144.0,-0.00979071935429765
2143.0,-0.009748255948553552
2142.0,-0.009748255948553552
2141.0,-0.009705788390518055
2140.0,-0.009663316679379363
2139.0,-0.009620840814324794
2138.0,-0.009578360794542107
2137.0,-0.009578360794542107
2136.0,-0.009578360794542107
2135.0,-0.009535876619218175
2134.0,-0.009535876619218175
2133.0,-0.009493388287539872
2132.0,-0.00945089579869407
2131.0,-0.009408399151866753
2130.0,-0.009408399151866753
2129.0,-0.009365898346244794
2128.0,-0.00932339338101329
2127.0,-0.009280884255358668
2126.0,-0.009280884255358668
2125.0,-0.00932339338101329
2124.0,-0.009365898346244794
2123.0,-0.009365898346244794
2122.0,-0.009365898346244794
2121.0,-0.00932339338101329
2120.0,-0.00923837096846647
2119.0,-0.00923837096846647
2118.0,-0.00923837096846647
2117.0,-0.00923837096846647
2116.0,-0.00923837096846647
2115.0,-0.00923837096846647
2114.0,-0.00932339338101329
2113.0,-0.009365898346244794
2112.0,-0.009365898346244794
2111.0,-0.009365898346244794
2110.0,-0.00932339338101329
2109.0,-0.009280884255358668
2108.0,-0.009195853519521346
2107.0,-0.009153331907708395
2106.0,-0.009195853519521346
2105.0,-0.009280884255358668
2104.0,-0.00932339338101329
2103.0,-0.00932339338101329
2102.0,-0.009280884255358668
2101.0,-0.00923837096846647
2100.0,-0.009195853519521346
2099.0,-0.009153331907708395
2098.0,-0.009110806132212712
2097.0,-0.009068276192218505
2096.0,-0.009025742086910427
2095.0,-0.009025742086910427
2094.0,-0.009025742086910427
2093.0,-0.009025742086910427
2092.0,-0.008983203815471796
2091.0,-0.008983203815471796
2090.0,-0.009025742086910427
2089.0,-0.009068276192218505
2088.0,-0.009068276192218505
2087.0,-0.009068276192218505
2086.0,-0.009110806132212712
2085.0,-0.009153331907708395
2084.0,-0.009110806132212712
2083.0,-0.009068276192218505
2082.0,-0.009110806132212712
2081.0,-0.009153331907708395
2080.0,-0.009195853519521346
2079.0,-0.009195853519521346
2078.0,-0.00923837096846647
2077.0,-0.009280884255358668
2076.0,-0.009280884255358668
2075.0,-0.009280884255358668
2074.0,-0.009280884255358668
2073.0,-0.00932339338101329
2072.0,-0.00932339338101329
2071.0,-0.009365898346244794
2070.0,-0.009365898346244794
2069.0,-0.009408399151866753
2068.0,-0.009365898346244794
2067.0,-0.009408399151866753
2066.0,-0.00945089579869407
2065.0,-0.009493388287539872
2064.0,-0.009535876619218175
2063.0,-0.009578360794542107
2062.0,-0.009663316679379363
2061.0,-0.009748255948553552
2060.0,-0.00979071935429765
2059.0,-0.00979071935429765
2058.0,-0.009833178608563031
2057.0,-0.009833178608563031
2056.0,-0.009833178608563031
2055.0,-0.009918084665901272
2054.0,-0.009960531470597278
2053.0,-0.010045412636098483
2052.0,-0.010087846998524608
2051.0,-0.01013027721514792
2050.0,-0.010172703286778884
2049.0,-0.010172703286778884
2048.0,-0.010172703286778884
2047.0,-0.010215125214226628
2046.0,-0.010257542998301172
2045.0,-0.010342366139567627
2044.0,-0.010384771498377354
2043.0,-0.010384771498377354
2042.0,-0.010427172717049071
2041.0,-0.010469569796391909
2040.0,-0.010511962737213665
2039.0,-0.010596736206525126
2038.0,-0.010639116736629983
2037.0,-0.010639116736629983
2036.0,-0.010554351540322138
2035.0,-0.010511962737213665
2034.0,-0.010511962737213665
2033.0,-0.010554351540322138
2032.0,-0.010511962737213665
2031.0,-0.010511962737213665
2030.0,-0.010511962737213665
2029.0,-0.010511962737213665
2028.0,-0.010554351540322138
2027.0,-0.010554351540322138
2026.0,-0.010596736206525126
2025.0,-0.010639116736629983
2024.0,-0.010596736206525126
2023.0,-0.010596736206525126
2022.0,-0.010639116736629983
2021.0,-0.01068149313144362
2020.0,-0.01068149313144362
2019.0,-0.01068149313144362
2018.0,-0.01068149313144362
2017.0,-0.01068149313144362
2016.0,-0.010639116736629983
2015.0,-0.010596736206525126
2014.0,-0.010511962737213665
2013.0,-0.010427172717049071
2012.0,-0.010342366139567627
2011.0,-0.010257542998301172
2010.0,-0.010257542998301172
2009.0,-0.010257542998301172
2008.0,-0.010257542998301172
2007.0,-0.010299956639812091
2006.0,-0.010384771498377354
2005.0,-0.010427172717049071
2004.0,-0.010427172717049071
2003.0,-0.010427172717049071
2002.0,-0.010384771498377354
2001.0,-0.010384771498377354
2000.0,-0.010342366139567627
1999.0,-0.010299956639812091
1998.0,-0.010299956639812091
1997.0,-0.010257542998301172
1996.0,-0.010257542998301172
1995.0,-0.010299956639812091
1994.0,-0.010342366139567627
1993.0,-0.010384771498377354
1992.0,-0.010342366139567627
1991.0,-0.010299956639812091
1990.0,-0.010299956639812091
1989.0,-0.010299956639812091
1988.0,-0.010257542998301172
1987.0,-0.010299956639812091
1986.0,-0.010342366139567627
1985.0,-0.010342366139567627
1984.0,-0.010342366139567627
1983.0,-0.010342366139567627
1982.0,-0.010299956639812091
1981.0,-0.010215125214226628
1980.0,-0.010172703286778884
1979.0,-0.010172703286778884
1978.0,-0.010172703286778884
1977.0,-0.010172703286778884
1976.0,-0.010087846998524608
1975.0,-0.010045412636098483
1974.0,-0.010045412636098483
1973.0,-0.010087846998524608
1972.0,-0.010087846998524608
1971.0,-0.010045412636098483
1970.0,-0.010045412636098483
1969.0,-0.010045412636098483
1968.0,-0.010087846998524608
1967.0,-0.01013027721514792
1966.0,-0.010172703286778884
1965.0,-0.010172703286778884
1964.0,-0.01013027721514792
1963.0,-0.01013027721514792
1962.0,-0.01013027721514792
1961.0,-0.01013027721514792
1960.0,-0.01013027721514792
1959.0,-0.01013027721514792
1958.0,-0.010172703286778884
1957.0,-0.010172703286778884
1956.0,-0.01013027721514792
1955.0,-0.010215125214226628
1954.0,-0.010299956639812091
1953.0,-0.010427172717049071
1952.0,-0.010469569796391909
1951.0,-0.010469569796391909
1950.0,-0.010511962737213665
1949.0,-0.010554351540322138
1948.0,-0.010511962737213665
1947.0,-0.010511962737213665
1946.0,-0.010511962737213665
1945.0,-0.010511962737213665
1944.0,-0.010596736206525126
1943.0,-0.01068149313144362
1942.0,-0.010850957373922832
1941.0,-0.010893313104380464
1940.0,-0.010850957373922832
1939.0,-0.010808597512206308
1938.0,-0.010808597512206308
1937.0,-0.010808597512206308
1936.0,-0.010808597512206308
1935.0,-0.010766233518425317
1934.0,-0.010766233518425317
1933.0,-0.010766233518425317
1932.0,-0.010808597512206308
1931.0,-0.010808597512206308
1930.0,-0.010850957373922832
1929.0,-0.010850957373922832
1928.0,-0.010808597512206308
1927.0,-0.010808597512206308
1926.0,-0.010850957373922832
1925.0,-0.010850957373922832
1924.0,-0.010850957373922832
1923.0,-0.010850957373922832
1922.0,-0.010850957373922832
1921.0,-0.010850957373922832
1920.0,-0.010850957373922832
1919.0,-0.010850957373922832
1918.0,-0.010850957373922832
1917.0,-0.010808597512206308
1916.0,-0.01068149313144362
1915.0,-0.010596736206525126
1914.0,-0.010639116736629983
1913.0,-0.01068149313144362
1912.0,-0.01068149313144362
1911.0,-0.01068149313144362
1910.0,-0.01068149313144362
1909.0,-0.010723865391772947
1908.0,-0.010723865391772947
1907.0,-0.01068149313144362
1906.0,-0.01068149313144362
1905.0,-0.010639116736629983
1904.0,-0.010639116736629983
1903.0,-0.010639116736629983
1902.0,-0.010639116736629983
1901.0,-0.010639116736629983
1900.0,-0.010639116736629983
1899.0,-0.010639116736629983
1898.0,-0.01068149313144362
1897.0,-0.010639116736629983
1896.0,-0.010596736206525126
1895.0,-0.010639116736629983
1894.0,-0.010723865391772947
1893.0,-0.010766233518425317
1892.0,-0.010766233518425317
1891.0,-0.010766233518425317
1890.0,-0.010808597512206308
1889.0,-0.010766233518425317
1888.0,-0.01068149313144362
1887.0,-0.010639116736629983
1886.0,-0.010639116736629983
1885.0,-0.010639116736629983
1884.0,-0.010596736206525126
1883.0,-0.010554351540322138
1882.0,-0.010596736206525126
1881.0,-0.010596736206525126
1880.0,-0.010554351540322138
1879.0,-0.010554351540322138
1878.0,-0.010596736206525126
1877.0,-0.01068149313144362
1876.0,-0.01068149313144362
1875.0,-0.01068149313144362
1874.0,-0.01068149313144362
1873.0,-0.010596736206525126
1872.0,-0.010469569796391909
1871.0,-0.010427172717049071
1870.0,-0.010469569796391909
1869.0,-0.010511962737213665
1868.0,-0.010469569796391909
1867.0,-0.010427172717049071
1866.0,-0.010427172717049071
1865.0,-0.010384771498377354
1864.0,-0.010342366139567627
1863.0,-0.010342366139567627
1862.0,-0.010384771498377354
1861.0,-0.010299956639812091
1860.0,-0.010172703286778884
1859.0,-0.010045412636098483
1858.0,-0.009960531470597278
1857.0,-0.009918084665901272
1856.0,-0.009833178608563031
1855.0,-0.00979071935429765
1854.0,-0.00979071935429765
1853.0,-0.009748255948553552
1852.0,-0.009578360794542107
1851.0,-0.00945089579869407
1850.0,-0.009408399151866753
1849.0,-0.009408399151866753
1848.0,-0.009280884255358668
1847.0,-0.009195853519521346
1846.0,-0.009153331907708395
1845.0,-0.009110806132212712
1844.0,-0.009025742086910427
1843.0,-0.008983203815471796
1842.0,-0.008898114770939713
1841.0,-0.008770449937752556
1840.0,-0.008600171761917519
1839.0,-0.008429826797229811
1838.0,-0.008302024212001324
1837.0,-0.008088936291577475
1836.0,-0.007833092701319266
1835.0,-0.007619774517403144
1834.0,-0.007577098304338836
1833.0,-0.007491733295335923
1832.0,-0.007320952922744706
1831.0,-0.007192823557040651
1830.0,-0.007021925578680754
1829.0,-0.006808208492578682
1828.0,-0.006551609086648202
1827.0,-0.006423252507643085
1826.0,-0.006423252507643085
1825.0,-0.0062948579813855154
1824.0,-0.005995123054691298
1823.0,-0.005738042651424635
1822.0,-0.00552369267327979
1821.0,-0.005352136486216796
1820.0,-0.005051749993995713
1819.0,-0.00488000724063431
1818.0,-0.004751155591001144
1817.0,-0.0045792939022115675
1816.0,-0.004364371107751008
1815.0,-0.0042353663594676405
1814.0,-0.004149341900058889
1813.0,-0.004020273253241502
1812.0,-0.003762020828246282
1811.0,-0.003546693102131737
1810.0,-0.0033743540197499478
1809.0,-0.003158833950862139
1808.0,-0.0028137792246734072
1807.0,-0.0025116312849080558
1806.0,-0.002338880892056583
1805.0,-0.0021228462251614566
1804.0,-0.001776967077439462
1803.0,-0.0014308122463981832
1802.0,-0.0011277002770349043
1801.0,-0.0005642161653756084
1800.0,0.0001303078917322953
1799.0,0.0007389288868995258
1798.0,0.0012612837441823288
1797.0,0.001915112063444413
1796.0,0.0026573093983774942
1795.0,0.0034007772998332353
1794.0,0.004189368323957332
1793.0,0.005594853310833647
1792.0,0.007667440952535687
1791.0,0.009794384815193347
1790.0,0.011619434777991433
1789.0,0.013586594534531482
1788.0,0.015832872853011715
1787.0,0.018498511851753108
1786.0,0.021773818325474092
1785.0,0.025672564576383117
1784.0,0.029792641193145286
1783.0,0.03371743783253667
1782.0,0.03791491948264003
1781.0,0.04291974034210022
1780.0,0.04837110616336182
1779.0,0.05310580489767336
1778.0,0.0571489934456626
1777.0,0.06103020277710969
1776.0,0.06489597884855036
1775.0,0.0684912781333824
1774.0,0.0725783049495814
1773.0,0.07878187880504961
1772.0,0.08661005636824437
1771.0,0.09312646527792956
1770.0,0.09810596802617932
1769.0,0.1038045895457893
1768.0,0.11137127461477392
1767.0,0.11947222180119477
1766.0,0.12667939818460128
1765.0,0.13341732293645103
1764.0,0.1415229581866595
1763.0,0.15323004646278116
1762.0,0.16870625562299035
1761.0,0.18415670933673334
1760.0,0.19599694527038736
1759.0,0.20523320205917894
1758.0,0.21538270736712462
1757.0,0.2280452510360509
1756.0,0.2395021247734732
1755.0,0.2454987706130829
1754.0,0.24718356881172854
1753.0,0.24848994972995864
1752.0,0.25204469309327027
1751.0,0.2573534100612638
1750.0,0.2619332852225307
1749.0,0.26464066699828925
1748.0,0.26472055193954325
1747.0,0.26145725907121475
1746.0,0.2555505425532014
1745.0,0.2482591261890994
1744.0,0.23987921473543228
1743.0,0.2301059641878309
1742.0,0.21903497039168318
1741.0,0.20648899420714217
1740.0,0.19266796070880954
1739.0,0.1789452449531117
1738.0,0.16653413982930765
1737.0,0.1548399223480541
1736.0,0.14242629585250421
1735.0,0.1290696416513042
1734.0,0.1169634899723202
1733.0,0.10801676914803293
1732.0,0.1005078038618683
1731.0,0.09344948089854999
1730.0,0.08692825969074924
1729.0,0.08113125661901543
1728.0,0.0759792995259323
1727.0,0.07145053299833615
1726.0,0.0675769736232612
1725.0,0.06403953101083348
1724.0,0.060730413661268745
1723.0,0.05784307153250956
1722.0,0.055270639696704205
1721.0,0.05271335532220167
1720.0,0.04978123335813667
1719.0,0.0469171560879138
1718.0,0.04469717723830824
1717.0,0.042775942156833
1716.0,0.0402909757535701
1715.0,0.03763066432997886
1714.0,0.03517488211661135
1713.0,0.032873418923587305
1712.0,0.030490901403433135
1711.0,0.028167720075074953
1710.0,0.02617967564731627
1709.0,0.024430342106337877
1708.0,0.02277955336461468
1707.0,0.0211806132671577
1706.0,0.019996628416253603
1705.0,0.019042683770379876
1704.0,0.017955020928509757
1703.0,0.016689514205884493
1702.0,0.015517693597737248
1701.0,0.014663358264387139
1700.0,0.014124642691606404
1699.0,0.013586594534531482
1698.0,0.013004460275618523
1697.0,0.012378417874516323
1696.0,0.011664044143949504
1695.0,0.011039929609661936
1694.0,0.010594681998483901
1693.0,0.010105436281226954
1692.0,0.009572341514736404
1691.0,0.009039900317800775
1690.0,0.0087296108049002
1689.0,0.008419542825660153
1688.0,0.008021209005416363
1687.0,0.0074464821678643656
1686.0,0.00696076819309055
1685.0,0.006872514894289861
1684.0,0.00696076819309055
1683.0,0.006872514894289861
1682.0,0.006651960076740071
1681.0,0.006343371384537999
1680.0,0.005946936412324799
1679.0,0.005638848091999105
1678.0,0.005330978174470591
1677.0,0.005067263269958211
1676.0,0.00484762310854614
1675.0,0.004759798137184523
1674.0,0.004671990922590297
1673.0,0.0044964297349936455
1672.0,0.004189368323957332
1671.0,0.003926345514724705
1670.0,0.003794893821675638
1669.0,0.003707281458678491
1668.0,0.0034445503666347133
1667.0,0.0031819781204844855
1666.0,0.0029632891174733444
1665.0,0.0027447101798967477
1664.0,0.0025262411970197185
1663.0,0.0024388843664115978
1662.0,0.002395212539545666
1661.0,0.0022642234021015284
1660.0,0.0020023635919956817
1659.0,0.0016970599014589638
1658.0,0.0014791171649619628
1657.0,0.001304841688344327
1656.0,0.0009565003968372565
1655.0,0.0005649501236701937
1654.0,0.0004779868710962365
1653.0,0.0006954276616513155
1652.0,0.0007389288868995258
1651.0,0.0006519307932786322
1650.0,0.0004779868710962365
1649.0,0.00021720154586435392
1648.0,-4.3427276862573194e-05
1647.0,-8.685021164911433e-05
1646.0,-4.3427276862573194e-05
1645.0,-8.685021164911433e-05
1644.0,-0.0002604985473904087
1643.0,-0.00043407747931878404
1642.0,-0.0005208409361854294
1641.0,-0.0006075870628903246
1640.0,-0.0006509536295951079
1639.0,-0.0007810273534953893
1638.0,-0.0008677215312267172
1637.0,-0.0008677215312267172
1636.0,-0.0008677215312267172
1635.0,-0.0008243766056055257
1634.0,-0.0008243766056055257
1633.0,-0.0009110621312231615
1632.0,-0.001041057986093552
1631.0,-0.0011710149414008164
1630.0,-0.001257631312230778
1629.0,-0.0013009330204178937
1628.0,-0.001344230411601366
1627.0,-0.001474096691732818
1626.0,-0.0016039241497978196
1625.0,-0.001733712809000476
1624.0,-0.0018202170383281313
1623.0,-0.0019067040408846658
1622.0,-0.0019067040408846658
1621.0,-0.0019931738235303698
1620.0,-0.0021228462251614566
1619.0,-0.0022956825549340643
1618.0,-0.0024252646779014952
1617.0,-0.0025548081484823015
1616.0,-0.002684312989729598
1615.0,-0.0027706281011936618
1614.0,-0.002856926061120646
1613.0,-0.0029863408567849525
1612.0,-0.003115717099805959
1611.0,-0.003201946521692367
1610.0,-0.0032881588260753603
1609.0,-0.0033312585613267665
1608.0,-0.003503614742536687
1607.0,-0.003632837004408529
1606.0,-0.003762020828246282
1605.0,-0.003934206173708432
1604.0,-0.004106323279658319
1603.0,-0.0042353663594676405
1602.0,-0.004321373782642635
1601.0,-0.004407364176330919
1600.0,-0.004493337547274212
1599.0,-0.0045792939022115675
1598.0,-0.004665233247877154
1597.0,-0.004837060938309712
1596.0,-0.004965887106823441
1595.0,-0.005094675072548682
1594.0,-0.005180512503780488
1593.0,-0.005266332972768684
1592.0,-0.005395031886706203
1591.0,-0.005480809979401258
1590.0,-0.005609445360280407
1589.0,-0.005695181118510195
1588.0,-0.00582375302902749
1587.0,-0.005909446494558601
1586.0,-0.006037954997317296
1585.0,-0.006123606211854593
1584.0,-0.006209240537657479
1583.0,-0.0063376603745508575
1582.0,-0.006380458549692936
1581.0,-0.0064660422492317515
1580.0,-0.006508827775289827
1579.0,-0.00659438618413688
1578.0,-0.006637159068586307
1577.0,-0.006637159068586307
1576.0,-0.0066799277408255975
1575.0,-0.006765452451992449
1574.0,-0.006765452451992449
1573.0,-0.006808208492578682
1572.0,-0.0068937079479005625
1571.0,-0.006936451364292662
1570.0,-0.00697919057427665
1569.0,-0.007021925578680754
1568.0,-0.007064656378331868
1567.0,-0.00710738297405733
1566.0,-0.007192823557040651
1565.0,-0.007192823557040651
1564.0,-0.007192823557040651
1563.0,-0.007150105366684922
1562.0,-0.007150105366684922
1561.0,-0.007192823557040651
1560.0,-0.007192823557040651
1559.0,-0.007150105366684922
1558.0,-0.007278247334244092
1557.0,-0.007235537545951853
1556.0,-0.007192823557040651
1555.0,-0.007192823557040651
1554.0,-0.007235537545951853
1553.0,-0.007278247334244092
1552.0,-0.007320952922744706
1551.0,-0.007363654312278367
1550.0,-0.007320952922744706
1549.0,-0.007278247334244092
1548.0,-0.007235537545951853
1547.0,-0.007192823557040651
1546.0,-0.007192823557040651
1545.0,-0.007192823557040651
1544.0,-0.007235537545951853
1543.0,-0.007320952922744706
1542.0,-0.007363654312278367
1541.0,-0.007363654312278367
1540.0,-0.0074063515036710825
1539.0,-0.007491733295335923
1538.0,-0.007491733295335923
1537.0,-0.007449044497748858
1536.0,-0.007491733295335923
1535.0,-0.007534417897257839
1534.0,-0.007577098304338836
1533.0,-0.007534417897257839
1532.0,-0.007534417897257839
1531.0,-0.007534417897257839
1530.0,-0.007534417897257839
1529.0,-0.007534417897257839
1528.0,-0.007534417897257839
1527.0,-0.007491733295335923
1526.0,-0.0074063515036710825
1525.0,-0.007278247334244092
1524.0,-0.007192823557040651
1523.0,-0.007192823557040651
1522.0,-0.007278247334244092
1521.0,-0.007449044497748858
1520.0,-0.007534417897257839
1519.0,-0.007534417897257839
1518.0,-0.007534417897257839
1517.0,-0.007534417897257839
1516.0,-0.007534417897257839
1515.0,-0.007491733295335923
1514.0,-0.007449044497748858
1513.0,-0.0074063515036710825
1512.0,-0.007363654312278367
1511.0,-0.0074063515036710825
1510.0,-0.007449044497748858
1509.0,-0.007491733295335923
1508.0,-0.0074063515036710825
1507.0,-0.007363654312278367
1506.0,-0.0074063515036710825
1505.0,-0.007320952922744706
1504.0,-0.007235537545951853
1503.0,-0.007235537545951853
1502.0,-0.007235537545951853
1501.0,-0.007192823557040651
1500.0,-0.00710738297405733
1499.0,-0.007021925578680754
1498.0,-0.00697919057427665
1497.0,-0.00697919057427665
1496.0,-0.007064656378331868
1495.0,-0.00710738297405733
1494.0,-0.007150105366684922
1493.0,-0.007064656378331868
1492.0,-0.00697919057427665
1491.0,-0.006850960324272126
1490.0,-0.0066799277408255975
1489.0,-0.00659438618413688
1488.0,-0.006551609086648202
1487.0,-0.006551609086648202
1486.0,-0.006508827775289827
1485.0,-0.0064660422492317515
1484.0,-0.0063376603745508575
1483.0,-0.006252051369364686
1482.0,-0.006123606211854593
1481.0,-0.005909446494558601
1480.0,-0.005652315355074045
1479.0,-0.0054379230508221355
1478.0,-0.005180512503780488
1477.0,-0.004837060938309712
1476.0,-0.00445035298922436
1475.0,-0.004063300397667113
1474.0,-0.003546693102131737
1473.0,-0.002684312989729598
1472.0,-0.0016039241497978196
1471.0,-0.0006509536295951079
1470.0,0.0003910410285830057
1469.0,0.0017406615763013722
1468.0,0.0035758960449088217
1467.0,0.00621118618129457
1466.0,0.010327752376126709
1465.0,0.016103208673694303
1464.0,0.022139270735302752
1463.0,0.02696455931306696
1462.0,0.030863766403287585
1461.0,0.03442204208947208
1460.0,0.03800971255993524
1459.0,0.04224908912272074
1458.0,0.04875964967565971
1457.0,0.05685187064143715
1456.0,0.06203099704854709
1455.0,0.06393888339001164
1454.0,0.06469430971007495
1453.0,0.06524912533642091
1452.0,0.0655520510510299
1451.0,0.06529959828457499
1450.0,0.06454311928839007
1449.0,0.06313454102437754
1448.0,0.06098022355133348
1447.0,0.05784307153250956
1446.0,0.05399011523423525
1445.0,0.049294465226138895
1444.0,0.04387961360698034
1443.0,0.038057116858612794
1442.0,0.032218091924200776
1441.0,0.02677975314776626
1440.0,0.021910826943857264
1439.0,0.017638298366853045
1438.0,0.013541787262693505
1437.0,0.009527946474380489
1436.0,0.00621118618129457
1435.0,0.004145520125434121
1434.0,0.0028758443407954637
1433.0,0.0016970599014589638
1432.0,0.0005649501236701937
1431.0,-0.0003906892499099257
1430.0,-0.0011277002770349043
1429.0,-0.0018202170383281313
1428.0,-0.0024252646779014952
1427.0,-0.0028137792246734072
1426.0,-0.003158833950862139
1425.0,-0.003503614742536687
1424.0,-0.003891166236910326
1423.0,-0.004149341900058889
1422.0,-0.004364371107751008
1421.0,-0.004708196544336296
1420.0,-0.005094675072548682
1419.0,-0.005309236848516363
1418.0,-0.0054379230508221355
1417.0,-0.005566571133294396
1416.0,-0.005652315355074045
1415.0,-0.005609445360280407
1414.0,-0.005566571133294396
1413.0,-0.00552369267327979
1412.0,-0.005480809979401258
1411.0,-0.005309236848516363
1410.0,-0.005094675072548682
1409.0,-0.004965887106823441
1408.0,-0.004837060938309712
1407.0,-0.004622265700782613
1406.0,-0.0042783722001624724
1405.0,-0.0038481220342978517
1404.0,-0.0033743540197499478
1403.0,-0.0027706281011936618
1402.0,-0.0021228462251614566
1401.0,-0.0014308122463981832
1400.0,-0.0003472966853634851
1399.0,0.0011741809597138886
1398.0,0.0029195645282691363
1397.0,0.00484762310854614
1396.0,0.007490664932224611
1395.0,0.01117359295472431
1394.0,0.015337693809893471
1393.0,0.019269623464054586
1392.0,0.02300845469384938
1391.0,0.026733563891471412
1390.0,0.03058408764601861
1389.0,0.03498654972775217
1388.0,0.04014804520039483
1387.0,0.045612749855485024
1386.0,0.05002482217034632
1385.0,0.05305672930217464
1384.0,0.0549747987575373
1383.0,0.055961719945581745
1382.0,0.055961719945581745
1381.0,0.05482695382609992
1380.0,0.05261529831525902
1379.0,0.04958646063061889
1378.0,0.046192002334692894
1377.0,0.04291974034210022
1376.0,0.04043395336207234
1375.0,0.03924390909822728
1374.0,0.039719535563357944
1373.0,0.04138834223512067
1372.0,0.04344740808260106
1371.0,0.045612749855485024
1370.0,0.0478374257855374
1369.0,0.049927370249842395
1368.0,0.05163594401163074
1367.0,0.05281143447390635
1366.0,0.053449489430144714
1365.0,0.05403929642243144
1364.0,0.0549747987575373
1363.0,0.05635711724787096
1362.0,0.05789269101064454
1361.0,0.058936011780097886
1360.0,0.05943371350990989
1359.0,0.05948351506743288
1358.0,0.059135024033278416
1357.0,0.05843887976392925
1356.0,0.05734718830678798
1355.0,0.055764156206519866
1354.0,0.053842605077627725
1353.0,0.051684859310652254
1352.0,0.04934311749548925
1351.0,0.0469171560879138
1350.0,0.044456557540257124
1349.0,0.042057664554595586
1348.0,0.039767126871487646
1347.0,0.03763066432997886
1346.0,0.035646070707806565
1345.0,0.03376437590141812
1344.0,0.031984286006358165
1343.0,0.03030458888152676
1342.0,0.02872415126189476
1341.0,0.02738066094037661
1340.0,0.026225806029419818
1339.0,0.02521206778644225
1338.0,0.024338466818941473
1337.0,0.02351246269481
1336.0,0.022688026603074007
1335.0,0.021956506090037076
1334.0,0.021271822861508305
1333.0,0.02067930261797568
1332.0,0.02013307743509718
1331.0,0.019632973815224997
1330.0,0.0192242260373785
1329.0,0.018861217359339655
1328.0,0.018634490921455527
1327.0,0.01845319495476394
1326.0,0.018362575344230914
1325.0,0.018362575344230914
1324.0,0.018362575344230914
1323.0,0.018362575344230914
1322.0,0.01831727262871463
1321.0,0.01831727262871463
1320.0,0.018271974638383703
1319.0,0.018226681372252695
1318.0,0.018226681372252695
1317.0,0.018226681372252695
1316.0,0.018226681372252695
1315.0,0.018226681372252695
1314.0,0.018271974638383703
1313.0,0.018362575344230914
1312.0,0.01845319495476394
1311.0,0.018498511851753108
1310.0,0.01858915983411169
1309.0,0.018725167293411005
1308.0,0.018815862601645694
1307.0,0.018861217359339655
1306.0,0.018861217359339655
1305.0,0.018861217359339655
1304.0,0.018770512579999288
1303.0,0.018634490921455527
1302.0,0.018498511851753108
1301.0,0.01831727262871463
1300.0,0.018045555530026514
1299.0,0.017638298366853045
1298.0,0.017186237868137555
1297.0,0.016554142658660398
1296.0,0.015832872853011715
1295.0,0.014977917890464765
1294.0,0.014079779876432497
1293.0,0.01318349541446362
1292.0,0.012378417874516323
1291.0,0.011842527443247208
1290.0,0.011708658092512314
1289.0,0.0119764380713403
1288.0,0.01264661126420652
1287.0,0.013765869865004277
1286.0,0.015247721884586563
1285.0,0.017095882207371904
1284.0,0.019269623464054586
1283.0,0.021636852916117055
1282.0,0.024200690320592466
1281.0,0.02691835039863255
1280.0,0.02969962459782227
1279.0,0.03240522732811035
1278.0,0.03503362516890207
1277.0,0.037583306554248797
1276.0,0.03995754427315856
1275.0,0.04215336629184985
1274.0,0.04411991377462465
1273.0,0.04585401117045196
1272.0,0.04730440041308315
1271.0,0.04851676924770687
1270.0,0.04944043838819989
1269.0,0.05012229596312534
1268.0,0.05051241005349638
1267.0,0.05065879322950262
1266.0,0.05051241005349638
1265.0,0.050171041064686284
1264.0,0.04958646063061889
1263.0,0.04875964967565971
1262.0,0.0478374257855374
1261.0,0.04682039893436585
1260.0,0.04570923829887308
1259.0,0.04450467081587295
1258.0,0.043303435105349175
1257.0,0.04215336629184985
1256.0,0.041101805289228244
1255.0,0.04010041213405646
1254.0,0.03919637508823026
1253.0,0.038341651362284734
1252.0,0.037583306554248797
1251.0,0.03692083935817303
1250.0,0.036401037402758574
1249.0,0.03602339000339416
1248.0,0.035740369803151095
1247.0,0.03555179208333925
1246.0,0.03550466044490741
1245.0,0.03555179208333925
1244.0,0.035693217696063595
1243.0,0.03597620715996652
1242.0,0.03630659476198117
1241.0,0.036779013477011624
1240.0,0.037299268295658994
1239.0,0.03791491948264003
1238.0,0.038673844065289176
1237.0,0.03957679292217042
1236.0,0.04062466342415694
1235.0,0.04186632432376469
1234.0,0.043303435105349175
1233.0,0.044937930324967956
1232.0,0.04672366333269573
1231.0,0.04875964967565971
1230.0,0.051049389754451946
1229.0,0.05354773498692689
1228.0,0.05635711724787096
1227.0,0.05943371350990989
1226.0,0.06278310913729457
1225.0,0.06641148980334699
1224.0,0.0702746216219956
1223.0,0.07422394616325367
1222.0,0.07831352451639795
1221.0,0.08259953204474924
1220.0,0.08708744882390307
1219.0,0.09167586072382083
1218.0,0.09631326826349751
1217.0,0.10083635852278117
1216.0,0.1052410056281079
1215.0,0.10941133229451272
1214.0,0.11328372588352176
1213.0,0.11679296664760996
1212.0,0.11981544717356662
1211.0,0.12216810850710624
1210.0,0.12389767862220635
1209.0,0.12517042212027807
1208.0,0.1260984021355387
1207.0,0.12679569072295926
1206.0,0.12731939284807026
1205.0,0.12784372725170723
1204.0,0.12842706445412122
1203.0,0.12918657608440243
1202.0,0.13018179202067182
1201.0,0.13153190097901324
1200.0,0.13329924395750092
1199.0,0.13537027545448765
1198.0,0.13780896894840278
1197.0,0.14068153490288382
1196.0,0.143996546002779
1195.0,0.1478861391502384
1194.0,0.15236565568174498
1193.0,0.1576404266693252
1192.0,0.16380251922107458
1191.0,0.17069622716897515
1190.0,0.17842097208799124
1189.0,0.18708664335714453
1188.0,0.19681611146465805
1187.0,0.20725821416525125
1186.0,0.2182446253475312
1185.0,0.22958986848609375
1184.0,0.24055880286630238
1183.0,0.2503409679051003
1182.0,0.25790359769675564
1181.0,0.2624098337142784
1180.0,0.263046046216854
1179.0,0.25884840114821506
1178.0,0.24972308484600725
1177.0,0.2363474294354697
1176.0,0.2198267563574059
1175.0,0.20114226825251436
1174.0,0.18177410638604452
1173.0,0.16285365609093994
1172.0,0.14514763758216587
1171.0,0.12895273869450063
1170.0,0.11446916681190777
1169.0,0.10171372141087698
1168.0,0.09049745859458458
1167.0,0.08076496207674921
1166.0,0.07232173586200852
1165.0,0.06519865825346338
1164.0,0.059135024033278416
1163.0,0.05394093961487645
1162.0,0.04948910701400333
1161.0,0.04570923829887308
1160.0,0.04244059810252043
1159.0,0.03967194946985697
1158.0,0.03744126420403626
1157.0,0.035646070707806565
1156.0,0.03428102975577918
1155.0,0.033295223342125535
1154.0,0.03273290844021437
1153.0,0.03263926003405038
1152.0,0.033060836978886954
1151.0,0.034046110897937076
1150.0,0.03578752703018084
1149.0,0.03824678581321739
1148.0,0.041579471947481794
1147.0,0.04580574818413763
1146.0,0.05095170768433621
1145.0,0.05709945885970602
1144.0,0.06424089625468832
1143.0,0.07227044022834539
1142.0,0.08107890990866418
1141.0,0.09044397075882471
1140.0,0.10023419805561384
1139.0,0.11002636159600376
1138.0,0.11964380058076385
1137.0,0.12889429901441463
1136.0,0.1375704438939911
1135.0,0.14551177495556966
1134.0,0.15255073750082726
1133.0,0.1588909155318461
1132.0,0.16449967213268124
1131.0,0.16921892439363884
1130.0,0.17288931253398876
1129.0,0.1754186237665174
1128.0,0.17665620917935154
1127.0,0.17633018673186363
1126.0,0.17431429197824166
1125.0,0.17088928984470542
1124.0,0.16634300310712757
1123.0,0.16108797259400132
1122.0,0.15558495952617557
1121.0,0.15033494452126717
1120.0,0.14575470293388149
1119.0,0.14182386201765573
1118.0,0.13858508136400327
1117.0,0.136142038116027
1116.0,0.13448148092522594
1115.0,0.13359450162194508
1114.0,0.13347637446715632
1113.0,0.13436311230037123
1112.0,0.13626089265478303
1111.0,0.13924287691845794
1110.0,0.1432711096171173
1109.0,0.14837479684669086
1108.0,0.1542200328881107
1107.0,0.16064767110457878
1106.0,0.16742722515382025
1105.0,0.17470373556903995
1104.0,0.18243463044021913
1103.0,0.19030564128307614
1102.0,0.1981848314185628
1101.0,0.20620961530918125
1100.0,0.21438547505317596
1099.0,0.2225731776106885
1098.0,0.2306965398109182
1097.0,0.23882418684426865
1096.0,0.24710684511540615
1095.0,0.25539412458576116
1094.0,0.26360349772335767
1093.0,0.2719710455794817
1092.0,0.28050298338941837
1091.0,0.2889523961329661
1090.0,0.2971388294270707
1089.0,0.30521936398793836
1088.0,0.3131850454926832
1087.0,0.32048125630421054
1086.0,0.32679471822095474
1085.0,0.3322669474667326
1084.0,0.3365817877473203
1083.0,0.3395139842150323
1082.0,0.3408447190593702
1081.0,0.3409399277590617
1080.0,0.33989377827675593
1079.0,0.3374310330667398
1078.0,0.3336692556980314
1077.0,0.32882715728491685
1076.0,0.3229408226078385
1075.0,0.3156035215809796
1074.0,0.30697693207630605
1073.0,0.29739715865957295
1072.0,0.28718199979214987
1071.0,0.2762160630346706
1070.0,0.2645607967485186
1069.0,0.25282132863983553
1068.0,0.24108810760202637
1067.0,0.22951619056889205
1066.0,0.21846003139405834
1065.0,0.20844969497266996
1064.0,0.19983300979863605
1063.0,0.1926002872405146
1062.0,0.18688624599210146
1061.0,0.18283142761894444
1060.0,0.18045606445813123
1059.0,0.17940450345550985
1058.0,0.17933886535640453
1057.0,0.180127178049454
1056.0,0.1815101777957866
1055.0,0.1832285876666535
1054.0,0.18528638730402336
1053.0,0.18768839086887623
1052.0,0.19044028536473223
1051.0,0.19341306567219707
1050.0,0.19667947642124606
1049.0,0.20017716900668026
1048.0,0.20370325994820848
1047.0,0.20683847075444928
1046.0,0.2093630380682967
1045.0,0.21140744407964052
1044.0,0.21282300752944616
1043.0,0.21339052735134012
1042.0,0.2128939069634299
1041.0,0.21140744407964052
1040.0,0.2088709992727138
1039.0,0.20523320205917894
1038.0,0.200521601162019
1037.0,0.19511125537760865
1036.0,0.18916284885951162
1035.0,0.18289759574307696
1034.0,0.17665620917935154
1033.0,0.17082492608291244
1032.0,0.16545214231905137
1031.0,0.16058480731610647
1030.0,0.15614457737683884
1029.0,0.15218065270476067
1028.0,0.14868048735125483
1027.0,0.14526898278605782
1026.0,0.14182386201765573
1025.0,0.13834612978608907
1024.0,0.13477754370982087
1023.0,0.1308856730206247
1022.0,0.126621263590859
1021.0,0.12205304837081177
1020.0,0.11730473761840288
1019.0,0.11249522576462212
1018.0,0.10762709260156367
1017.0,0.10281292341984649
1016.0,0.09805153492691598
1015.0,0.09344948089854999
1014.0,0.08905559425002108
1013.0,0.08502252755566908
1012.0,0.08139308485501817
1011.0,0.07805354577058976
1010.0,0.07494587968815725
1009.0,0.0720140529005715
1008.0,0.06930561233546473
1007.0,0.06686717627326577
1006.0,0.06464390705442691
1005.0,0.06263258248271053
1004.0,0.06083032037482261
1003.0,0.059135024033278416
1002.0,0.05749589383191922
1001.0,0.05601112492622806
1000.0,0.05458065739693696
999.0,0.05330216275425803
998.0,0.05207638016827354
997.0,0.05100054597304693
996.0,0.05002482217034632
995.0,0.04900266601119507
994.0,0.047982909952573705
993.0,0.04696554274964315
992.0,0.04599883231842972
991.0,0.04508244626504121
990.0,0.04421607108308856
989.0,0.0433514207947967
988.0,0.04244059810252043
987.0,0.04153168163305643
986.0,0.04062466342415694
985.0,0.03981472339538916
984.0,0.03905380426616856
983.0,0.03829421599749461
982.0,0.03753595394209874
981.0,0.036731748473764814
980.0,0.03588185684851508
979.0,0.03512779136222477
978.0,0.03442204208947208
977.0,0.03385826726096752
976.0,0.033295223342125535
975.0,0.032686081712916426
974.0,0.031984286006358165
973.0,0.031236951802751545
972.0,0.030490901403433135
971.0,0.029792641193145286
970.0,0.029188389127482228
969.0,0.028816959143838528
968.0,0.028538594975413334
967.0,0.028445846553939003
966.0,0.02849221828874393
965.0,0.02872415126189476
964.0,0.029281296279810798
963.0,0.030164906924202484
962.0,0.03147035562516054
961.0,0.033060836978886954
960.0,0.03475124903287918
959.0,0.03621217265444465
958.0,0.037299268295658994
957.0,0.03786753070176463
956.0,0.038057116858612794
955.0,0.03777276864991497
954.0,0.03720463014276687
953.0,0.03644826642590382
952.0,0.03550466044490741
951.0,0.03456310022373987
950.0,0.03362357691107709
949.0,0.032686081712916426
948.0,0.03184406285002961
947.0,0.031096969696171817
946.0,0.030490901403433135
945.0,0.029978734171634214
944.0,0.029513651152349718
943.0,0.029002634427514717
942.0,0.02849221828874393
941.0,0.02798240132598462
940.0,0.027565723042634938
939.0,0.027149444152769986
938.0,0.02682594731702781
937.0,0.026595025589939425
936.0,0.026456531467510258
935.0,0.026410376572743033
934.0,0.026410376572743033
933.0,0.026456531467510258
932.0,0.02654885597506529
931.0,0.02664120011360227
930.0,0.02677975314776626
929.0,0.02691835039863255
928.0,0.027056991894431892
927.0,0.02724191609646076
926.0,0.027426919073445077
925.0,0.027565723042634938
924.0,0.0277045713888604
923.0,0.027797161620935595
922.0,0.027889771597169544
921.0,0.027936083991977778
920.0,0.027936083991977778
919.0,0.027843464140506313
918.0,0.027750864037404455
917.0,0.0277045713888604
916.0,0.027565723042634938
915.0,0.02738066094037661
914.0,0.027195677663422346
913.0,0.02691835039863255
912.0,0.026595025589939425
911.0,0.026225806029419818
910.0,0.025902996205869
909.0,0.02558042614771394
908.0,0.025304128090317013
907.0,0.025074013910237447
906.0,0.024936003904763915
905.0,0.024798037742147727
904.0,0.024660115394541604
903.0,0.024522236834125355
902.0,0.024476287039668643
901.0,0.024430342106337877
900.0,0.024430342106337877
899.0,0.024430342106337877
898.0,0.024430342106337877
897.0,0.024476287039668643
896.0,0.024430342106337877
895.0,0.024338466818941473
894.0,0.024154774532432866
893.0,0.023833499868024743
892.0,0.023329119375188556
891.0,0.022733787572707387
890.0,0.02204787879853809
889.0,0.021499930688540836
888.0,0.0209982515252789
887.0,0.02067930261797568
886.0,0.020633757603838898
885.0,0.020952673052035298
884.0,0.021819483062586187
883.0,0.023191662661933732
882.0,0.02516604495145991
881.0,0.027612000892527133
880.0,0.03063068826647264
879.0,0.03409308450480819
878.0,0.03791491948264003
877.0,0.042057664554595586
876.0,0.04633693625290869
875.0,0.05051241005349638
874.0,0.05443294655761144
873.0,0.05779345772290467
872.0,0.060430831344098435
871.0,0.062281556382736136
870.0,0.06348625752110681
869.0,0.06408986356949264
868.0,0.06429125215733666
867.0,0.06408986356949264
866.0,0.06343599486473406
865.0,0.06243196139961715
864.0,0.0611301784870133
863.0,0.05948351506743288
862.0,0.05754547365752294
861.0,0.05507339001378431
860.0,0.05212534510230182
859.0,0.04866248120408234
858.0,0.044986096961949995
857.0,0.041197296600497646
856.0,0.03753595394209874
855.0,0.034187046963396917
854.0,0.03133029827960798
853.0,0.029141943003497595
852.0,0.027612000892527133
851.0,0.026595025589939425
850.0,0.025949097207122573
849.0,0.02539620791296726
848.0,0.024798037742147727
847.0,0.02406295751688936
846.0,0.02300845469384938
845.0,0.021728158389364705
844.0,0.02022406727031445
843.0,0.018543833477873584
842.0,0.016870075265299933
841.0,0.01538268676325183
840.0,0.014124642691606404
839.0,0.013138729709955221
838.0,0.012333735073725371
837.0,0.011574829993696856
836.0,0.01077272626946324
835.0,0.01001654169860089
834.0,0.00939478857608056
833.0,0.008995559669244813
832.0,0.008685301823389224
831.0,0.008330992620051436
830.0,0.007976972236149349
829.0,0.007534852191956709
828.0,0.007137328610972382
827.0,0.006740168563263094
826.0,0.006519680930003435
825.0,0.006475596832934416
824.0,0.006475596832934416
823.0,0.006387442061109638
822.0,0.00621118618129457
821.0,0.006035001804881146
820.0,0.00590291041179003
819.0,0.005814871797682919
818.0,0.005814871797682919
817.0,0.005858888873877532
816.0,0.005946936412324799
815.0,0.005990966876386672
814.0,0.005946936412324799
813.0,0.005726851026829571
812.0,0.005506877116487674
811.0,0.00537494623139545
810.0,0.00537494623139545
809.0,0.005506877116487674
808.0,0.005638848091999105
807.0,0.005682847330363394
806.0,0.005682847330363394
805.0,0.005682847330363394
804.0,0.00577085918230158
803.0,0.00590291041179003
802.0,0.006079041198713275
801.0,0.00612308505878878
800.0,0.006079041198713275
799.0,0.005946936412324799
798.0,0.00590291041179003
797.0,0.005946936412324799
796.0,0.006079041198713275
795.0,0.00625524344553785
794.0,0.00656376950238835
793.0,0.007004901568658406
792.0,0.007490664932224611
791.0,0.008021209005416363
790.0,0.008463824699968647
789.0,0.008862564879688284
788.0,0.009306039320248427
787.0,0.009927665307847056
786.0,0.010639186223752484
785.0,0.011485634166333858
784.0,0.012244383261476699
783.0,0.013004460275618523
782.0,0.01381070026317599
781.0,0.014618439768003144
780.0,0.01547268665620738
779.0,0.01632861713980338
778.0,0.01727661233145472
777.0,0.01840788278591865
776.0,0.019723858922159776
775.0,0.0211806132671577
774.0,0.022688026603074007
773.0,0.02406295751688936
772.0,0.025350165561278004
771.0,0.02664120011360227
770.0,0.028214062120885508
769.0,0.030211462585061133
768.0,0.032545631817259224
767.0,0.0349394793888016
766.0,0.037346595106788616
765.0,0.039909932095080425
764.0,0.04268010314465909
763.0,0.045660991397539874
762.0,0.04871106272232795
761.0,0.05188057561946402
760.0,0.05507339001378431
759.0,0.05809122563440061
758.0,0.06068046892176193
757.0,0.06253226035662252
756.0,0.06373765809652254
755.0,0.06419054619006714
754.0,0.06398920428479049
753.0,0.06323500239005853
752.0,0.06198090252378963
751.0,0.06038092104330195
750.0,0.05858795962645047
749.0,0.05685187064143715
748.0,0.055270639696704205
747.0,0.053842605077627725
746.0,0.052762392129333646
745.0,0.05192951848105887
744.0,0.051244819831730126
743.0,0.050414848673348
742.0,0.04948910701400333
741.0,0.04841965509660828
740.0,0.04720755695590784
739.0,0.04575749056067524
738.0,0.04383156952463674
737.0,0.041483896576958834
736.0,0.03876880295533702
735.0,0.035740369803151095
734.0,0.032545631817259224
733.0,0.029374223311705583
732.0,0.026271941311972746
731.0,0.02342078135989012
730.0,0.02122621566987748
729.0,0.019814763052665052
728.0,0.019178833355664393
727.0,0.018951941086827073
726.0,0.018951941086827073
725.0,0.019133445417920836
724.0,0.019678413991243593
723.0,0.02058821736556471
722.0,0.021865152601710403
721.0,0.023374947949272418
720.0,0.025028005701930978
719.0,0.02682594731702781
718.0,0.02872415126189476
717.0,0.03067729388779794
716.0,0.03249882527715853
715.0,0.03409308450480819
714.0,0.03531618502395939
713.0,0.03630659476198117
712.0,0.03720463014276687
711.0,0.038199360808321536
710.0,0.03919637508823026
709.0,0.04010041213405646
708.0,0.04081545726880842
707.0,0.041340572947066834
706.0,0.04181850243505214
705.0,0.04229695845116854
704.0,0.04263219156847242
703.0,0.042775942156833
702.0,0.04268010314465909
701.0,0.04248848854552012
700.0,0.04244059810252043
699.0,0.042584285277331047
698.0,0.04291974034210022
697.0,0.04339941178682327
696.0,0.043735497301724546
695.0,0.0437835307566099
694.0,0.0435434165901003
693.0,0.04325545471730896
692.0,0.043063586155803746
691.0,0.04282386959515394
690.0,0.042584285277331047
689.0,0.04244059810252043
688.0,0.042392712939904875
687.0,0.04244059810252043
686.0,0.04253638427006878
685.0,0.042392712939904875
684.0,0.042057664554595586
683.0,0.04153168163305643
682.0,0.041149548320321694
681.0,0.040958607678906356
680.0,0.04091088563260792
679.0,0.04076775094900409
678.0,0.040481623027001756
677.0,0.0400527842915015
676.0,0.039719535563357944
675.0,0.03957679292217042
674.0,0.03952922246570112
673.0,0.03938654235209116
672.0,0.038911280232103884
671.0,0.03767802727041558
670.0,0.035363296211498474
669.0,0.032218091924200776
668.0,0.030071810571884017
667.0,0.030910397045078586
666.0,0.032592443402527316
665.0,0.0332483359486222
664.0,0.0329671178412978
663.0,0.032311649546687526
662.0,0.031657169041054534
661.0,0.031003673351687855
660.0,0.030351159519274695
659.0,0.029792641193145286
658.0,0.02932775731028059
657.0,0.028816959143838528
656.0,0.028214062120885508
655.0,0.027612000892527133
654.0,0.027056991894431892
653.0,0.026687379547098322
652.0,0.026595025589939425
651.0,0.02710321556345563
650.0,0.02798240132598462
649.0,0.02858497661500481
648.0,0.02826040911222183
647.0,0.02738066094037661
646.0,0.026687379547098322
645.0,0.026687379547098322
644.0,0.027288159452933503
643.0,0.02798240132598462
642.0,0.02858497661500481
641.0,0.029002634427514717
640.0,0.029188389127482228
639.0,0.029281296279810798
638.0,0.029281296279810798
637.0,0.02942069428514915
636.0,0.02969962459782227
635.0,0.03002526987828502
634.0,0.030071810571884017
633.0,0.02969962459782227
632.0,0.02904906565457588
631.0,0.02858497661500481
630.0,0.02839947976994095
629.0,0.028214062120885508
628.0,0.027612000892527133
627.0,0.026595025589939425
626.0,0.025718641122169483
625.0,0.025304128090317013
624.0,0.02539620791296726
623.0,0.025718641122169483
622.0,0.025718641122169483
621.0,0.02512002699306959
620.0,0.02406295751688936
619.0,0.022733787572707387
618.0,0.0214542995372613
617.0,0.02004210665933459
616.0,0.01858915983411169
615.0,0.017502630802287644
614.0,0.016960383953898095
613.0,0.016689514205884493
612.0,0.01628352608625061
611.0,0.015427684378367834
610.0,0.014349026309051105
609.0,0.013317820220494436
608.0,0.012467797270160563
607.0,0.011753276624621556
606.0,0.010906307389674463
605.0,0.00966114521239847
604.0,0.008552401996197112
603.0,0.008463824699968647
602.0,0.009794384815193347
601.0,0.011574829993696856
600.0,0.012736045877764557
