cm-1,A
4000.0,0.009838807101520963
3999.0,0.009794384815193347
3998.0,0.00974996707218323
3997.0,0.00966114521239847
3996.0,0.009572341514736404
3995.0,0.009483555971770974
3994.0,0.009350411681145587
3993.0,0.009261671492462709
3992.0,0.009217308196862062
3991.0,0.009172949432521227
3990.0,0.009217308196862062
3989.0,0.009217308196862062
3988.0,0.009261671492462709
3987.0,0.009306039320248427
3986.0,0.00939478857608056
3985.0,0.009527946474380489
3984.0,0.00966114521239847
3983.0,0.00974996707218323
3982.0,0.009794384815193347
3981.0,0.009794384815193347
3980.0,0.00966114521239847
3979.0,0.009527946474380489
3978.0,0.009483555971770974
3977.0,0.009527946474380489
3976.0,0.00966114521239847
3975.0,0.009794384815193347
3974.0,0.009838807101520963
3973.0,0.00974996707218323
3972.0,0.009616741093766423
3971.0,0.009527946474380489
3970.0,0.009439170005980158
3969.0,0.00939478857608056
3968.0,0.009350411681145587
3967.0,0.009350411681145587
3966.0,0.00939478857608056
3965.0,0.009483555971770974
3964.0,0.009616741093766423
3963.0,0.009705553871561357
3962.0,0.009705553871561357
3961.0,0.009572341514736404
3960.0,0.00939478857608056
3959.0,0.009350411681145587
3958.0,0.009350411681145587
3957.0,0.009483555971770974
3956.0,0.009616741093766423
3955.0,0.00966114521239847
3954.0,0.00966114521239847
3953.0,0.009572341514736404
3952.0,0.009527946474380489
3951.0,0.009527946474380489
3950.0,0.009572341514736404
3949.0,0.009616741093766423
3948.0,0.009527946474380489
3947.0,0.00939478857608056
3946.0,0.009261671492462709
3945.0,0.009261671492462709
3944.0,0.00939478857608056
3943.0,0.009527946474380489
3942.0,0.009572341514736404
3941.0,0.009572341514736404
3940.0,0.00966114521239847
3939.0,0.009838807101520963
3938.0,0.009927665307847056
3937.0,0.009927665307847056
3936.0,0.009838807101520963
3935.0,0.00966114521239847
3934.0,0.009527946474380489
3933.0,0.009350411681145587
3932.0,0.009261671492462709
3931.0,0.009217308196862062
3930.0,0.009172949432521227
3929.0,0.009172949432521227
3928.0,0.009217308196862062
3927.0,0.009350411681145587
3926.0,0.009483555971770974
3925.0,0.009483555971770974
3924.0,0.009350411681145587
3923.0,0.009128595198514056
3922.0,0.008951223547323472
3921.0,0.008862564879688284
3920.0,0.008906891951112605
3919.0,0.009039900317800775
3918.0,0.009261671492462709
3917.0,0.009483555971770974
3916.0,0.009572341514736404
3915.0,0.009616741093766423
3914.0,0.009616741093766423
3913.0,0.00966114521239847
3912.0,0.00966114521239847
3911.0,0.009527946474380489
3910.0,0.009350411681145587
3909.0,0.009128595198514056
3908.0,0.008906891951112605
3907.0,0.008862564879688284
3906.0,0.008862564879688284
3905.0,0.008951223547323472
3904.0,0.008906891951112605
3903.0,0.0087296108049002
3902.0,0.0087296108049002
3901.0,0.008951223547323472
3900.0,0.009306039320248427
3899.0,0.009350411681145587
3898.0,0.009217308196862062
3897.0,0.009039900317800775
3896.0,0.008906891951112605
3895.0,0.008773924307505121
3894.0,0.0087296108049002
3893.0,0.008862564879688284
3892.0,0.009128595198514056
3891.0,0.009128595198514056
3890.0,0.008862564879688284
3889.0,0.008818242332126802
3888.0,0.00908424549391551
3887.0,0.009439170005980158
3886.0,0.009527946474380489
3885.0,0.00908424549391551
3884.0,0.008552401996197112
3883.0,0.008463824699968647
3882.0,0.008818242332126802
3881.0,0.009128595198514056
3880.0,0.00908424549391551
3879.0,0.0087296108049002
3878.0,0.00850811108984062
3877.0,0.008685301823389224
3876.0,0.008995559669244813
3875.0,0.00908424549391551
3874.0,0.008773924307505121
3873.0,0.008375265465994541
3872.0,0.008330992620051436
3871.0,0.008773924307505121
3870.0,0.009172949432521227
3869.0,0.009039900317800775
3868.0,0.0087296108049002
3867.0,0.008862564879688284
3866.0,0.009128595198514056
3865.0,0.009172949432521227
3864.0,0.009039900317800775
3863.0,0.008862564879688284
3862.0,0.008906891951112605
3861.0,0.009039900317800775
3860.0,0.00908424549391551
3859.0,0.008995559669244813
3858.0,0.008773924307505121
3857.0,0.008463824699968647
3856.0,0.008286724286910463
3855.0,0.00850811108984062
3854.0,0.009128595198514056
3853.0,0.009261671492462709
3852.0,0.008862564879688284
3851.0,0.008995559669244813
3850.0,0.009572341514736404
3849.0,0.009927665307847056
3848.0,0.009838807101520963
3847.0,0.00966114521239847
3846.0,0.009527946474380489
3845.0,0.00939478857608056
3844.0,0.009128595198514056
3843.0,0.0087296108049002
3842.0,0.008330992620051436
3841.0,0.008109696063975047
3840.0,0.008109696063975047
3839.0,0.008153946355103248
3838.0,0.008109696063975047
3837.0,0.008109696063975047
3836.0,0.008198201155356077
3835.0,0.008552401996197112
3834.0,0.008951223547323472
3833.0,0.009217308196862062
3832.0,0.009261671492462709
3831.0,0.00908424549391551
3830.0,0.008862564879688284
3829.0,0.008773924307505121
3828.0,0.008818242332126802
3827.0,0.008818242332126802
3826.0,0.008596697419959609
3825.0,0.008330992620051436
3824.0,0.008286724286910463
3823.0,0.008596697419959609
3822.0,0.008951223547323472
3821.0,0.0087296108049002
3820.0,0.007976972236149349
3819.0,0.007667440952535687
3818.0,0.008330992620051436
3817.0,0.009261671492462709
3816.0,0.009616741093766423
3815.0,0.009261671492462709
3814.0,0.008906891951112605
3813.0,0.009039900317800775
3812.0,0.009306039320248427
3811.0,0.009306039320248427
3810.0,0.009128595198514056
3809.0,0.009128595198514056
3808.0,0.009217308196862062
3807.0,0.009039900317800775
3806.0,0.00850811108984062
3805.0,0.008153946355103248
3804.0,0.008375265465994541
3803.0,0.00908424549391551
3802.0,0.009616741093766423
3801.0,0.009483555971770974
3800.0,0.008906891951112605
3799.0,0.008818242332126802
3798.0,0.009261671492462709
3797.0,0.009616741093766423
3796.0,0.009527946474380489
3795.0,0.009350411681145587
3794.0,0.009306039320248427
3793.0,0.009527946474380489
3792.0,0.009705553871561357
3791.0,0.00966114521239847
3790.0,0.009483555971770974
3789.0,0.009306039320248427
3788.0,0.009128595198514056
3787.0,0.009128595198514056
3786.0,0.009261671492462709
3785.0,0.00939478857608056
3784.0,0.00939478857608056
3783.0,0.009217308196862062
3782.0,0.009128595198514056
3781.0,0.009172949432521227
3780.0,0.009261671492462709
3779.0,0.009217308196862062
3778.0,0.009128595198514056
3777.0,0.009128595198514056
3776.0,0.009306039320248427
3775.0,0.009350411681145587
3774.0,0.009261671492462709
3773.0,0.00908424549391551
3772.0,0.009039900317800775
3771.0,0.009128595198514056
3770.0,0.00908424549391551
3769.0,0.008906891951112605
3768.0,0.008862564879688284
3767.0,0.00908424549391551
3766.0,0.009439170005980158
3765.0,0.009527946474380489
3764.0,0.009350411681145587
3763.0,0.009217308196862062
3762.0,0.009217308196862062
3761.0,0.009261671492462709
3760.0,0.009172949432521227
3759.0,0.009039900317800775
3758.0,0.008951223547323472
3757.0,0.008906891951112605
3756.0,0.008773924307505121
3755.0,0.008640997362049818
3754.0,0.008419542825660153
3753.0,0.008198201155356077
3752.0,0.008286724286910463
3751.0,0.008685301823389224
3750.0,0.008906891951112605
3749.0,0.008818242332126802
3748.0,0.008773924307505121
3747.0,0.009039900317800775
3746.0,0.009572341514736404
3745.0,0.01001654169860089
3744.0,0.009838807101520963
3743.0,0.009261671492462709
3742.0,0.009306039320248427
3741.0,0.009705553871561357
3740.0,0.009616741093766423
3739.0,0.008906891951112605
3738.0,0.008198201155356077
3737.0,0.007888512213050314
3736.0,0.007844288957383316
3735.0,0.007844288957383316
3734.0,0.007932739972333236
3733.0,0.008198201155356077
3732.0,0.008463824699968647
3731.0,0.00850811108984062
3730.0,0.00850811108984062
3729.0,0.008685301823389224
3728.0,0.008862564879688284
3727.0,0.008906891951112605
3726.0,0.008818242332126802
3725.0,0.0087296108049002
3724.0,0.008773924307505121
3723.0,0.008862564879688284
3722.0,0.008951223547323472
3721.0,0.008906891951112605
3720.0,0.008951223547323472
3719.0,0.009128595198514056
3718.0,0.009306039320248427
3717.0,0.009306039320248427
3716.0,0.009172949432521227
3715.0,0.009039900317800775
3714.0,0.008906891951112605
3713.0,0.008906891951112605
3712.0,0.008995559669244813
3711.0,0.00908424549391551
3710.0,0.009039900317800775
3709.0,0.00908424549391551
3708.0,0.009261671492462709
3707.0,0.009439170005980158
3706.0,0.009439170005980158
3705.0,0.009350411681145587
3704.0,0.009306039320248427
3703.0,0.00939478857608056
3702.0,0.009572341514736404
3701.0,0.00966114521239847
3700.0,0.009616741093766423
3699.0,0.00966114521239847
3698.0,0.00974996707218323
3697.0,0.009705553871561357
3696.0,0.009483555971770974
3695.0,0.009217308196862062
3694.0,0.009039900317800775
3693.0,0.008951223547323472
3692.0,0.008862564879688284
3691.0,0.008906891951112605
3690.0,0.009172949432521227
3689.0,0.009439170005980158
3688.0,0.009572341514736404
3687.0,0.00974996707218323
3686.0,0.010105436281226954
3685.0,0.010505687227290839
3684.0,0.010639186223752484
3683.0,0.01046119667949763
3682.0,0.010149890396819572
3681.0,0.009838807101520963
3680.0,0.00939478857608056
3679.0,0.008818242332126802
3678.0,0.008463824699968647
3677.0,0.008773924307505121
3676.0,0.009439170005980158
3675.0,0.009350411681145587
3674.0,0.0087296108049002
3673.0,0.0087296108049002
3672.0,0.009439170005980158
3671.0,0.01023881228122181
3670.0,0.010550182333308289
3669.0,0.010283280051895272
3668.0,0.009972101229705377
3667.0,0.010105436281226954
3666.0,0.01046119667949763
3665.0,0.010683695010048622
3664.0,0.010683695010048622
3663.0,0.010594681998483901
3662.0,0.01046119667949763
3661.0,0.010283280051895272
3660.0,0.010060986715464404
3659.0,0.009972101229705377
3658.0,0.010105436281226954
3657.0,0.01037222925484893
3656.0,0.01037222925484893
3655.0,0.010105436281226954
3654.0,0.009883233932095559
3653.0,0.009883233932095559
3652.0,0.010060986715464404
3651.0,0.01046119667949763
3650.0,0.010950843561779777
3649.0,0.011084479487313281
3648.0,0.01086177578421088
3647.0,0.010728208358306901
3646.0,0.01086177578421088
3645.0,0.011129033935354915
3644.0,0.011351874764248926
3643.0,0.011485634166333858
3642.0,0.011441043121384498
3641.0,0.011351874764248926
3640.0,0.011307297450183107
3639.0,0.011218156546359825
3638.0,0.011084479487313281
3637.0,0.01086177578421088
3636.0,0.010728208358306901
3635.0,0.010728208358306901
3634.0,0.010639186223752484
3633.0,0.010505687227290839
3632.0,0.01037222925484893
3631.0,0.01046119667949763
3630.0,0.010950843561779777
3629.0,0.011485634166333858
3628.0,0.011396456654336085
3627.0,0.011218156546359825
3626.0,0.011396456654336085
3625.0,0.011753276624621556
3624.0,0.011753276624621556
3623.0,0.011485634166333858
3622.0,0.011262724711199823
3621.0,0.011218156546359825
3620.0,0.011262724711199823
3619.0,0.011129033935354915
3618.0,0.01086177578421088
3617.0,0.010683695010048622
3616.0,0.010817248744452446
3615.0,0.011084479487313281
3614.0,0.011307297450183107
3613.0,0.011262724711199823
3612.0,0.011084479487313281
3611.0,0.010906307389674463
3610.0,0.010995384301463185
3609.0,0.011218156546359825
3608.0,0.011396456654336085
3607.0,0.011441043121384498
3606.0,0.011351874764248926
3605.0,0.011218156546359825
3604.0,0.011129033935354915
3603.0,0.01117359295472431
3602.0,0.011307297450183107
3601.0,0.011485634166333858
3600.0,0.011574829993696856
3599.0,0.011530229790124524
3598.0,0.011396456654336085
3597.0,0.011218156546359825
3596.0,0.01117359295472431
3595.0,0.011262724711199823
3594.0,0.011351874764248926
3593.0,0.011307297450183107
3592.0,0.01117359295472431
3591.0,0.010995384301463185
3590.0,0.010995384301463185
3589.0,0.011262724711199823
3588.0,0.011753276624621556
3587.0,0.012021084124518078
3586.0,0.012065734767841452
3585.0,0.012110390002254778
3584.0,0.012244383261476699
3583.0,0.012378417874516323
3582.0,0.012423105273012602
3581.0,0.012333735073725371
3580.0,0.012199714248127602
3579.0,0.012110390002254778
3578.0,0.012021084124518078
3577.0,0.012065734767841452
3576.0,0.012199714248127602
3575.0,0.012423105273012602
3574.0,0.01260190086298274
3573.0,0.01264661126420652
3572.0,0.012557195064198723
3571.0,0.012378417874516323
3570.0,0.012110390002254778
3569.0,0.011931796607364653
3568.0,0.0119764380713403
3567.0,0.012065734767841452
3566.0,0.012110390002254778
3565.0,0.01215504982870197
3564.0,0.012333735073725371
3563.0,0.01260190086298274
3562.0,0.012825498912458322
3561.0,0.013049212141483357
3560.0,0.01318349541446362
3559.0,0.01322826573375524
3558.0,0.01318349541446362
3557.0,0.013138729709955221
3556.0,0.013093968619278806
3555.0,0.01318349541446362
3554.0,0.013273040668781544
3553.0,0.013317820220494436
3552.0,0.013273040668781544
3551.0,0.013138729709955221
3550.0,0.013049212141483357
3549.0,0.013004460275618523
3548.0,0.013049212141483357
3547.0,0.013093968619278806
3546.0,0.01318349541446362
3545.0,0.013317820220494436
3544.0,0.013407393177789162
3543.0,0.013496984613259544
3542.0,0.013496984613259544
3541.0,0.013407393177789162
3540.0,0.013317820220494436
3539.0,0.01318349541446362
3538.0,0.01318349541446362
3537.0,0.013273040668781544
3536.0,0.013452186585275916
3535.0,0.013541787262693505
3534.0,0.013496984613259544
3533.0,0.013317820220494436
3532.0,0.013138729709955221
3531.0,0.013093968619278806
3530.0,0.01318349541446362
3529.0,0.013407393177789162
3528.0,0.013586594534531482
3527.0,0.013676222949234651
3526.0,0.013631406429727155
3525.0,0.013586594534531482
3524.0,0.013631406429727155
3523.0,0.013631406429727155
3522.0,0.013541787262693505
3521.0,0.013452186585275916
3520.0,0.013362604389846044
3519.0,0.013317820220494436
3518.0,0.013317820220494436
3517.0,0.013273040668781544
3516.0,0.01322826573375524
3515.0,0.013093968619278806
3514.0,0.012959713020733288
3513.0,0.012825498912458322
3512.0,0.012825498912458322
3511.0,0.012959713020733288
3510.0,0.01318349541446362
3509.0,0.013317820220494436
3508.0,0.013452186585275916
3507.0,0.013496984613259544
3506.0,0.013496984613259544
3505.0,0.013496984613259544
3504.0,0.013452186585275916
3503.0,0.013362604389846044
3502.0,0.01322826573375524
3501.0,0.013093968619278806
3500.0,0.013004460275618523
3499.0,0.013093968619278806
3498.0,0.013317820220494436
3497.0,0.013631406429727155
3496.0,0.013900374944870508
3495.0,0.013990068146738865
3494.0,0.01385553528947936
3493.0,0.01372104409400876
3492.0,0.013631406429727155
3491.0,0.013586594534531482
3490.0,0.013631406429727155
3489.0,0.01372104409400876
3488.0,0.01381070026317599
3487.0,0.013900374944870508
3486.0,0.01385553528947936
3485.0,0.01372104409400876
3484.0,0.013586594534531482
3483.0,0.013496984613259544
3482.0,0.013586594534531482
3481.0,0.01372104409400876
3480.0,0.013765869865004277
3479.0,0.01372104409400876
3478.0,0.013631406429727155
3477.0,0.013496984613259544
3476.0,0.013452186585275916
3475.0,0.013496984613259544
3474.0,0.013586594534531482
3473.0,0.013676222949234651
3472.0,0.01372104409400876
3471.0,0.013676222949234651
3470.0,0.013676222949234651
3469.0,0.013765869865004277
3468.0,0.013945219230304673
3467.0,0.014079779876432497
3466.0,0.014169510141607944
3465.0,0.014259258949925524
3464.0,0.014304140310157809
3463.0,0.014438812226654996
3462.0,0.014573525916998342
3461.0,0.014708281407112
3460.0,0.014798141635428141
3459.0,0.014843078722943437
3458.0,0.014843078722943437
3457.0,0.014888020460646079
3456.0,0.014932966849499074
3455.0,0.014977917890464765
3454.0,0.015112798935672522
3453.0,0.015202742910707112
3452.0,0.015292705517326866
3451.0,0.01538268676325183
3450.0,0.015427684378367834
3449.0,0.015562705203923999
3448.0,0.015697768020096703
3447.0,0.01578783323856614
3446.0,0.015742798294583915
3445.0,0.015607721475734415
3444.0,0.015427684378367834
3443.0,0.01538268676325183
3442.0,0.01547268665620738
3441.0,0.015607721475734415
3440.0,0.015832872853011715
3439.0,0.016058141016111804
3438.0,0.016148281008528276
3437.0,0.016193358021584725
3436.0,0.016238439713835096
3435.0,0.016418813294209356
3434.0,0.016599261819461697
3433.0,0.016734647433454652
3432.0,0.016824927962187042
3431.0,0.016870075265299933
3430.0,0.016824927962187042
3429.0,0.016824927962187042
3428.0,0.016734647433454652
3427.0,0.016644385668211692
3426.0,0.016599261819461697
3425.0,0.016599261819461697
3424.0,0.016554142658660398
3423.0,0.016554142658660398
3422.0,0.01646391839700767
3421.0,0.016418813294209356
3420.0,0.016238439713835096
3419.0,0.016013078034810446
3418.0,0.01578783323856614
3417.0,0.015607721475734415
3416.0,0.015517693597737248
3415.0,0.015427684378367834
3414.0,0.015337693809893471
3413.0,0.015157768594724175
3412.0,0.015022873584506602
3411.0,0.014932966849499074
3410.0,0.014888020460646079
3409.0,0.014932966849499074
3408.0,0.014977917890464765
3407.0,0.014977917890464765
3406.0,0.014888020460646079
3405.0,0.014708281407112
3404.0,0.01452861671041239
3403.0,0.014393916947563534
3402.0,0.014349026309051105
3401.0,0.014438812226654996
3400.0,0.014573525916998342
3399.0,0.014798141635428141
3398.0,0.014977917890464765
3397.0,0.015022873584506602
3396.0,0.014932966849499074
3395.0,0.014798141635428141
3394.0,0.014708281407112
3393.0,0.014663358264387139
3392.0,0.014708281407112
3391.0,0.014708281407112
3390.0,0.014708281407112
3389.0,0.014618439768003144
3388.0,0.0144837121472845
3387.0,0.014349026309051105
3386.0,0.014214382227394795
3385.0,0.014169510141607944
3384.0,0.014124642691606404
3383.0,0.014124642691606404
3382.0,0.014124642691606404
3381.0,0.014079779876432497
3380.0,0.013990068146738865
3379.0,0.013900374944870508
3378.0,0.01381070026317599
3377.0,0.01381070026317599
3376.0,0.01385553528947936
3375.0,0.01381070026317599
3374.0,0.013631406429727155
3373.0,0.013452186585275916
3372.0,0.013317820220494436
3371.0,0.013317820220494436
3370.0,0.013452186585275916
3369.0,0.013541787262693505
3368.0,0.01372104409400876
3367.0,0.01385553528947936
3366.0,0.013990068146738865
3365.0,0.014124642691606404
3364.0,0.014169510141607944
3363.0,0.014259258949925524
3362.0,0.014349026309051105
3361.0,0.014393916947563534
3360.0,0.014349026309051105
3359.0,0.014259258949925524
3358.0,0.014169510141607944
3357.0,0.014169510141607944
3356.0,0.014304140310157809
3355.0,0.014349026309051105
3354.0,0.014214382227394795
3353.0,0.01403492169512921
3352.0,0.013900374944870508
3351.0,0.01385553528947936
3350.0,0.013900374944870508
3349.0,0.013945219230304673
3348.0,0.013990068146738865
3347.0,0.013990068146738865
3346.0,0.01403492169512921
3345.0,0.014214382227394795
3344.0,0.014349026309051105
3343.0,0.014393916947563534
3342.0,0.014304140310157809
3341.0,0.014169510141607944
3340.0,0.01403492169512921
3339.0,0.013945219230304673
3338.0,0.01385553528947936
3337.0,0.01381070026317599
3336.0,0.013765869865004277
3335.0,0.013765869865004277
3334.0,0.01372104409400876
3333.0,0.01372104409400876
3332.0,0.01372104409400876
3331.0,0.01381070026317599
3330.0,0.01385553528947936
3329.0,0.01385553528947936
3328.0,0.013765869865004277
3327.0,0.013631406429727155
3326.0,0.013586594534531482
3325.0,0.013586594534531482
3324.0,0.013631406429727155
3323.0,0.01372104409400876
3322.0,0.013765869865004277
3321.0,0.01372104409400876
3320.0,0.013676222949234651
3319.0,0.013586594534531482
3318.0,0.013586594534531482
3317.0,0.013631406429727155
3316.0,0.01372104409400876
3315.0,0.013765869865004277
3314.0,0.013765869865004277
3313.0,0.013676222949234651
3312.0,0.013631406429727155
3311.0,0.013586594534531482
3310.0,0.013631406429727155
3309.0,0.01372104409400876
3308.0,0.013765869865004277
3307.0,0.01372104409400876
3306.0,0.013631406429727155
3305.0,0.013496984613259544
3304.0,0.013407393177789162
3303.0,0.013362604389846044
3302.0,0.013317820220494436
3301.0,0.013317820220494436
3300.0,0.013362604389846044
3299.0,0.013362604389846044
3298.0,0.013362604389846044
3297.0,0.013362604389846044
3296.0,0.013317820220494436
3295.0,0.013407393177789162
3294.0,0.013496984613259544
3293.0,0.013586594534531482
3292.0,0.013586594534531482
3291.0,0.013496984613259544
3290.0,0.013317820220494436
3289.0,0.01322826573375524
3288.0,0.01322826573375524
3287.0,0.013317820220494436
3286.0,0.013452186585275916
3285.0,0.013541787262693505
3284.0,0.013541787262693505
3283.0,0.013541787262693505
3282.0,0.013452186585275916
3281.0,0.013317820220494436
3280.0,0.01322826573375524
3279.0,0.013138729709955221
3278.0,0.013049212141483357
3277.0,0.012959713020733288
3276.0,0.012914970375878188
3275.0,0.013004460275618523
3274.0,0.013093968619278806
3273.0,0.01318349541446362
3272.0,0.01322826573375524
3271.0,0.01322826573375524
3270.0,0.013317820220494436
3269.0,0.013362604389846044
3268.0,0.013407393177789162
3267.0,0.013362604389846044
3266.0,0.013317820220494436
3265.0,0.013273040668781544
3264.0,0.013273040668781544
3263.0,0.01322826573375524
3262.0,0.013273040668781544
3261.0,0.013317820220494436
3260.0,0.013362604389846044
3259.0,0.013317820220494436
3258.0,0.01322826573375524
3257.0,0.01318349541446362
3256.0,0.013093968619278806
3255.0,0.013004460275618523
3254.0,0.012825498912458322
3253.0,0.01264661126420652
3252.0,0.012467797270160563
3251.0,0.012467797270160563
3250.0,0.012557195064198723
3249.0,0.01264661126420652
3248.0,0.01264661126420652
3247.0,0.01260190086298274
3246.0,0.01260190086298274
3245.0,0.012691326268817527
3244.0,0.012780770091995297
3243.0,0.012825498912458322
3242.0,0.012736045877764557
3241.0,0.01264661126420652
3240.0,0.012557195064198723
3239.0,0.012557195064198723
3238.0,0.01264661126420652
3237.0,0.012736045877764557
3236.0,0.012825498912458322
3235.0,0.012870232340102872
3234.0,0.012959713020733288
3233.0,0.012914970375878188
3232.0,0.012736045877764557
3231.0,0.012557195064198723
3230.0,0.012378417874516323
3229.0,0.012378417874516323
3228.0,0.012423105273012602
3227.0,0.012467797270160563
3226.0,0.012423105273012602
3225.0,0.012378417874516323
3224.0,0.012378417874516323
3223.0,0.012378417874516323
3222.0,0.012423105273012602
3221.0,0.012467797270160563
3220.0,0.012467797270160563
3219.0,0.012557195064198723
3218.0,0.01260190086298274
3217.0,0.01264661126420652
3216.0,0.012557195064198723
3215.0,0.012467797270160563
3214.0,0.012378417874516323
3213.0,0.012423105273012602
3212.0,0.012467797270160563
3211.0,0.012512493866907004
3210.0,0.012423105273012602
3209.0,0.012333735073725371
3208.0,0.012244383261476699
3207.0,0.012199714248127602
3206.0,0.01215504982870197
3205.0,0.01215504982870197
3204.0,0.012199714248127602
3203.0,0.012333735073725371
3202.0,0.012423105273012602
3201.0,0.012512493866907004
3200.0,0.012557195064198723
3199.0,0.012557195064198723
3198.0,0.012512493866907004
3197.0,0.012378417874516323
3196.0,0.012199714248127602
3195.0,0.012110390002254778
3194.0,0.012065734767841452
3193.0,0.012065734767841452
3192.0,0.012065734767841452
3191.0,0.012110390002254778
3190.0,0.012110390002254778
3189.0,0.012110390002254778
3188.0,0.01215504982870197
3187.0,0.012244383261476699
3186.0,0.012244383261476699
3185.0,0.012289056869694281
3184.0,0.012333735073725371
3183.0,0.012378417874516323
3182.0,0.012378417874516323
3181.0,0.012244383261476699
3180.0,0.012065734767841452
3179.0,0.011931796607364653
3178.0,0.011797899741219142
3177.0,0.011797899741219142
3176.0,0.011797899741219142
3175.0,0.011842527443247208
3174.0,0.011887159731648111
3173.0,0.011931796607364653
3172.0,0.0119764380713403
3171.0,0.0119764380713403
3170.0,0.011931796607364653
3169.0,0.011887159731648111
3168.0,0.011842527443247208
3167.0,0.011797899741219142
3166.0,0.011753276624621556
3165.0,0.011708658092512314
3164.0,0.011619434777991433
3163.0,0.011530229790124524
3162.0,0.011485634166333858
3161.0,0.011530229790124524
3160.0,0.011574829993696856
3159.0,0.011664044143949504
3158.0,0.011664044143949504
3157.0,0.011664044143949504
3156.0,0.011664044143949504
3155.0,0.011753276624621556
3154.0,0.011842527443247208
3153.0,0.0119764380713403
3152.0,0.012021084124518078
3151.0,0.012021084124518078
3150.0,0.0119764380713403
3149.0,0.011887159731648111
3148.0,0.011797899741219142
3147.0,0.011753276624621556
3146.0,0.011708658092512314
3145.0,0.011708658092512314
3144.0,0.011708658092512314
3143.0,0.011753276624621556
3142.0,0.011797899741219142
3141.0,0.011887159731648111
3140.0,0.0119764380713403
3139.0,0.012065734767841452
3138.0,0.012110390002254778
3137.0,0.012021084124518078
3136.0,0.0119764380713403
3135.0,0.011931796607364653
3134.0,0.012021084124518078
3133.0,0.01215504982870197
3132.0,0.012199714248127602
3131.0,0.012244383261476699
3130.0,0.01215504982870197
3129.0,0.012110390002254778
3128.0,0.012065734767841452
3127.0,0.012065734767841452
3126.0,0.012065734767841452
3125.0,0.01215504982870197
3124.0,0.012199714248127602
3123.0,0.012289056869694281
3122.0,0.012333735073725371
3121.0,0.012244383261476699
3120.0,0.012110390002254778
3119.0,0.012065734767841452
3118.0,0.012065734767841452
3117.0,0.01215504982870197
3116.0,0.012244383261476699
3115.0,0.012289056869694281
3114.0,0.012333735073725371
3113.0,0.012467797270160563
3112.0,0.01264661126420652
3111.0,0.012825498912458322
3110.0,0.012914970375878188
3109.0,0.012959713020733288
3108.0,0.012959713020733288
3107.0,0.012959713020733288
3106.0,0.012959713020733288
3105.0,0.012914970375878188
3104.0,0.012914970375878188
3103.0,0.012959713020733288
3102.0,0.013049212141483357
3101.0,0.013049212141483357
3100.0,0.012959713020733288
3099.0,0.012914970375878188
3098.0,0.012914970375878188
3097.0,0.012870232340102872
3096.0,0.012780770091995297
3095.0,0.012691326268817527
3094.0,0.01260190086298274
3093.0,0.01264661126420652
3092.0,0.012736045877764557
3091.0,0.012825498912458322
3090.0,0.012870232340102872
3089.0,0.012914970375878188
3088.0,0.013004460275618523
3087.0,0.013138729709955221
3086.0,0.013317820220494436
3085.0,0.013541787262693505
3084.0,0.013676222949234651
3083.0,0.013676222949234651
3082.0,0.013496984613259544
3081.0,0.013273040668781544
3080.0,0.013093968619278806
3079.0,0.013004460275618523
3078.0,0.013049212141483357
3077.0,0.013273040668781544
3076.0,0.013496984613259544
3075.0,0.013676222949234651
3074.0,0.01372104409400876
3073.0,0.013676222949234651
3072.0,0.013541787262693505
3071.0,0.013496984613259544
3070.0,0.013496984613259544
3069.0,0.013541787262693505
3068.0,0.013631406429727155
3067.0,0.013676222949234651
3066.0,0.013676222949234651
3065.0,0.013631406429727155
3064.0,0.013586594534531482
3063.0,0.013586594534531482
3062.0,0.013586594534531482
3061.0,0.013541787262693505
3060.0,0.013586594534531482
3059.0,0.01372104409400876
3058.0,0.01385553528947936
3057.0,0.013990068146738865
3056.0,0.014079779876432497
3055.0,0.01403492169512921
3054.0,0.013900374944870508
3053.0,0.013765869865004277
3052.0,0.013586594534531482
3051.0,0.013496984613259544
3050.0,0.013362604389846044
3049.0,0.01322826573375524
3048.0,0.012959713020733288
3047.0,0.012691326268817527
3046.0,0.012467797270160563
3045.0,0.012244383261476699
3044.0,0.012065734767841452
3043.0,0.0119764380713403
3042.0,0.011797899741219142
3041.0,0.011619434777991433
3040.0,0.011485634166333858
3039.0,0.011396456654336085
3038.0,0.011396456654336085
3037.0,0.011396456654336085
3036.0,0.011351874764248926
3035.0,0.011307297450183107
3034.0,0.011351874764248926
3033.0,0.011485634166333858
3032.0,0.011708658092512314
3031.0,0.011842527443247208
3030.0,0.011931796607364653
3029.0,0.011931796607364653
3028.0,0.0119764380713403
3027.0,0.012065734767841452
3026.0,0.012199714248127602
3025.0,0.012289056869694281
3024.0,0.012378417874516323
3023.0,0.012423105273012602
3022.0,0.012467797270160563
3021.0,0.01260190086298274
3020.0,0.012825498912458322
3019.0,0.013093968619278806
3018.0,0.013362604389846044
3017.0,0.013631406429727155
3016.0,0.01381070026317599
3015.0,0.013990068146738865
3014.0,0.014124642691606404
3013.0,0.014259258949925524
3012.0,0.0144837121472845
3011.0,0.014708281407112
3010.0,0.014932966849499074
3009.0,0.015112798935672522
3008.0,0.015292705517326866
3007.0,0.015517693597737248
3006.0,0.015742798294583915
3005.0,0.01596801972881945
3004.0,0.016193358021584725
3003.0,0.016373712875465518
3002.0,0.016599261819461697
3001.0,0.01677978535189717
3000.0,0.016960383953898095
2999.0,0.017141057687924732
2998.0,0.017231422748988034
2997.0,0.017367005605150476
2996.0,0.017457417697056554
2995.0,0.017638298366853045
2994.0,0.017864505196230507
2993.0,0.018136109008649592
2992.0,0.01840788278591865
2991.0,0.018634490921455527
2990.0,0.018815862601645694
2989.0,0.01899731005860028
2988.0,0.019133445417920836
2987.0,0.019360432556262852
2986.0,0.019632973815224997
2985.0,0.01995115493504329
2984.0,0.02036058777709271
2983.0,0.02081596632558158
2982.0,0.021271822861508305
2981.0,0.02168250325324883
2980.0,0.02204787879853809
2979.0,0.022413561996148967
2978.0,0.02282532397981263
2977.0,0.023283295636617574
2976.0,0.02365002099672653
2975.0,0.024017056287453542
2974.0,0.024338466818941473
2973.0,0.02461415101053266
2972.0,0.024798037742147727
2971.0,0.024936003904763915
2970.0,0.025028005701930978
2969.0,0.025074013910237447
2968.0,0.02516604495145991
2967.0,0.02521206778644225
2966.0,0.02521206778644225
2965.0,0.02512002699306959
2964.0,0.02498200236711723
2963.0,0.024798037742147727
2962.0,0.024568191490736968
2961.0,0.024338466818941473
2960.0,0.02406295751688936
2959.0,0.023879381700184332
2958.0,0.023695883447997224
2957.0,0.023466619608062178
2956.0,0.02314585342378117
2955.0,0.022688026603074007
2954.0,0.022093572362881675
2953.0,0.021499930688540836
2952.0,0.021043834782408455
2951.0,0.02058821736556471
2950.0,0.02013307743509718
2949.0,0.019632973815224997
2948.0,0.019178833355664393
2947.0,0.018770512579999288
2946.0,0.018362575344230914
2945.0,0.017955020928509757
2944.0,0.017638298366853045
2943.0,0.017321806616515723
2942.0,0.017050711425501408
2941.0,0.016734647433454652
2940.0,0.016418813294209356
2939.0,0.016148281008528276
2938.0,0.015877917138889863
2937.0,0.015742798294583915
2936.0,0.015652742414136167
2935.0,0.015652742414136167
2934.0,0.015562705203923999
2933.0,0.015427684378367834
2932.0,0.015247721884586563
2931.0,0.015157768594724175
2930.0,0.015112798935672522
2929.0,0.015202742910707112
2928.0,0.015292705517326866
2927.0,0.01538268676325183
2926.0,0.01538268676325183
2925.0,0.015427684378367834
2924.0,0.015427684378367834
2923.0,0.015517693597737248
2922.0,0.015652742414136167
2921.0,0.015742798294583915
2920.0,0.015832872853011715
2919.0,0.015877917138889863
2918.0,0.015922966097169144
2917.0,0.016103208673694303
2916.0,0.01632861713980338
2915.0,0.016599261819461697
2914.0,0.01677978535189717
2913.0,0.017005545341335804
2912.0,0.017321806616515723
2911.0,0.017638298366853045
2910.0,0.017955020928509757
2909.0,0.018136109008649592
2908.0,0.018181392829336396
2907.0,0.018045555530026514
2906.0,0.017864505196230507
2905.0,0.01768353030793479
2904.0,0.017457417697056554
2903.0,0.017186237868137555
2902.0,0.016870075265299933
2901.0,0.016554142658660398
2900.0,0.01628352608625061
2899.0,0.016103208673694303
2898.0,0.01596801972881945
2897.0,0.015832872853011715
2896.0,0.015697768020096703
2895.0,0.015607721475734415
2894.0,0.015562705203923999
2893.0,0.015607721475734415
2892.0,0.015607721475734415
2891.0,0.015607721475734415
2890.0,0.015562705203923999
2889.0,0.015517693597737248
2888.0,0.01547268665620738
2887.0,0.015427684378367834
2886.0,0.01538268676325183
2885.0,0.015247721884586563
2884.0,0.015157768594724175
2883.0,0.015067833932588037
2882.0,0.014888020460646079
2881.0,0.014708281407112
2880.0,0.01452861671041239
2879.0,0.014393916947563534
2878.0,0.014259258949925524
2877.0,0.014214382227394795
2876.0,0.014169510141607944
2875.0,0.014124642691606404
2874.0,0.014079779876432497
2873.0,0.01403492169512921
2872.0,0.013900374944870508
2871.0,0.01381070026317599
2870.0,0.013765869865004277
2869.0,0.013765869865004277
2868.0,0.013765869865004277
2867.0,0.01372104409400876
2866.0,0.013676222949234651
2865.0,0.013676222949234651
2864.0,0.013631406429727155
2863.0,0.013586594534531482
2862.0,0.013586594534531482
2861.0,0.013541787262693505
2860.0,0.013541787262693505
2859.0,0.013496984613259544
2858.0,0.013452186585275916
2857.0,0.013407393177789162
2856.0,0.013317820220494436
2855.0,0.01322826573375524
2854.0,0.01318349541446362
2853.0,0.013138729709955221
2852.0,0.013093968619278806
2851.0,0.013004460275618523
2850.0,0.012870232340102872
2849.0,0.012691326268817527
2848.0,0.01260190086298274
2847.0,0.012467797270160563
2846.0,0.012333735073725371
2845.0,0.012199714248127602
2844.0,0.012065734767841452
2843.0,0.0119764380713403
2842.0,0.011931796607364653
2841.0,0.011887159731648111
2840.0,0.011797899741219142
2839.0,0.011708658092512314
2838.0,0.011619434777991433
2837.0,0.011574829993696856
2836.0,0.011530229790124524
2835.0,0.011441043121384498
2834.0,0.011351874764248926
2833.0,0.011218156546359825
2832.0,0.011084479487313281
2831.0,0.010995384301463185
2830.0,0.011039929609661936
2829.0,0.011084479487313281
2828.0,0.011084479487313281
2827.0,0.010995384301463185
2826.0,0.010906307389674463
2825.0,0.010906307389674463
2824.0,0.010950843561779777
2823.0,0.010950843561779777
2822.0,0.010906307389674463
2821.0,0.010817248744452446
2820.0,0.01077272626946324
2819.0,0.010817248744452446
2818.0,0.01086177578421088
2817.0,0.010950843561779777
2816.0,0.010950843561779777
2815.0,0.010950843561779777
2814.0,0.010950843561779777
2813.0,0.010950843561779777
2812.0,0.010950843561779777
2811.0,0.010995384301463185
2810.0,0.011039929609661936
2809.0,0.011084479487313281
2808.0,0.011129033935354915
2807.0,0.011129033935354915
2806.0,0.010995384301463185
2805.0,0.01086177578421088
2804.0,0.01077272626946324
2803.0,0.010728208358306901
2802.0,0.010683695010048622
2801.0,0.010683695010048622
2800.0,0.010639186223752484
2799.0,0.010639186223752484
2798.0,0.010639186223752484
2797.0,0.010594681998483901
2796.0,0.010594681998483901
2795.0,0.010639186223752484
2794.0,0.010728208358306901
2793.0,0.010728208358306901
2792.0,0.010639186223752484
2791.0,0.010505687227290839
2790.0,0.01046119667949763
2789.0,0.01046119667949763
2788.0,0.01046119667949763
2787.0,0.01046119667949763
2786.0,0.010416710688994968
2785.0,0.010327752376126709
2784.0,0.010283280051895272
2783.0,0.01023881228122181
2782.0,0.010194349063173958
2781.0,0.010149890396819572
2780.0,0.010105436281226954
2779.0,0.010105436281226954
2778.0,0.010105436281226954
2777.0,0.010149890396819572
2776.0,0.010149890396819572
2775.0,0.01023881228122181
2774.0,0.01023881228122181
2773.0,0.010194349063173958
2772.0,0.010149890396819572
2771.0,0.010149890396819572
2770.0,0.010060986715464404
2769.0,0.01001654169860089
2768.0,0.009972101229705377
2767.0,0.01001654169860089
2766.0,0.010105436281226954
2765.0,0.010149890396819572
2764.0,0.010194349063173958
2763.0,0.010149890396819572
2762.0,0.010105436281226954
2761.0,0.010105436281226954
2760.0,0.010149890396819572
2759.0,0.010149890396819572
2758.0,0.010149890396819572
2757.0,0.010060986715464404
2756.0,0.009972101229705377
2755.0,0.009927665307847056
2754.0,0.009972101229705377
2753.0,0.009972101229705377
2752.0,0.009972101229705377
2751.0,0.009927665307847056
2750.0,0.009883233932095559
2749.0,0.009794384815193347
2748.0,0.009705553871561357
2747.0,0.00966114521239847
2746.0,0.00966114521239847
2745.0,0.00974996707218323
2744.0,0.009883233932095559
2743.0,0.01001654169860089
2742.0,0.010105436281226954
2741.0,0.010060986715464404
2740.0,0.01001654169860089
2739.0,0.009883233932095559
2738.0,0.009794384815193347
2737.0,0.00966114521239847
2736.0,0.009616741093766423
2735.0,0.00966114521239847
2734.0,0.009794384815193347
2733.0,0.009883233932095559
2732.0,0.009972101229705377
2731.0,0.009927665307847056
2730.0,0.009838807101520963
2729.0,0.009794384815193347
2728.0,0.009705553871561357
2727.0,0.00966114521239847
2726.0,0.009616741093766423
2725.0,0.009616741093766423
2724.0,0.00966114521239847
2723.0,0.00974996707218323
2722.0,0.009705553871561357
2721.0,0.00966114521239847
2720.0,0.009572341514736404
2719.0,0.009527946474380489
2718.0,0.009439170005980158
2717.0,0.00939478857608056
2716.0,0.009350411681145587
2715.0,0.009306039320248427
2714.0,0.009306039320248427
2713.0,0.009306039320248427
2712.0,0.009350411681145587
2711.0,0.00939478857608056
2710.0,0.009439170005980158
2709.0,0.009483555971770974
2708.0,0.009439170005980158
2707.0,0.00939478857608056
2706.0,0.00939478857608056
2705.0,0.009350411681145587
2704.0,0.009350411681145587
2703.0,0.009350411681145587
2702.0,0.009306039320248427
2701.0,0.009261671492462709
2700.0,0.009217308196862062
2699.0,0.009172949432521227
2698.0,0.009172949432521227
2697.0,0.00908424549391551
2696.0,0.008995559669244813
2695.0,0.008906891951112605
2694.0,0.008906891951112605
2693.0,0.008906891951112605
2692.0,0.008906891951112605
2691.0,0.008862564879688284
2690.0,0.008818242332126802
2689.0,0.008818242332126802
2688.0,0.008862564879688284
2687.0,0.008906891951112605
2686.0,0.008906891951112605
2685.0,0.008862564879688284
2684.0,0.008818242332126802
2683.0,0.008818242332126802
2682.0,0.008862564879688284
2681.0,0.008951223547323472
2680.0,0.008995559669244813
2679.0,0.008995559669244813
2678.0,0.008951223547323472
2677.0,0.008906891951112605
2676.0,0.008862564879688284
2675.0,0.008818242332126802
2674.0,0.008773924307505121
2673.0,0.008773924307505121
2672.0,0.008862564879688284
2671.0,0.008906891951112605
2670.0,0.008951223547323472
2669.0,0.008906891951112605
2668.0,0.008818242332126802
2667.0,0.0087296108049002
2666.0,0.008685301823389224
2665.0,0.008685301823389224
2664.0,0.0087296108049002
2663.0,0.0087296108049002
2662.0,0.008685301823389224
2661.0,0.008596697419959609
2660.0,0.00850811108984062
2659.0,0.008463824699968647
2658.0,0.00850811108984062
2657.0,0.008596697419959609
2656.0,0.0087296108049002
2655.0,0.008818242332126802
2654.0,0.008862564879688284
2653.0,0.008862564879688284
2652.0,0.008818242332126802
2651.0,0.008773924307505121
2650.0,0.008773924307505121
2649.0,0.0087296108049002
2648.0,0.0087296108049002
2647.0,0.008773924307505121
2646.0,0.008773924307505121
2645.0,0.008773924307505121
2644.0,0.0087296108049002
2643.0,0.008640997362049818
2642.0,0.008552401996197112
2641.0,0.00850811108984062
2640.0,0.008463824699968647
2639.0,0.00850811108984062
2638.0,0.008552401996197112
2637.0,0.008552401996197112
2636.0,0.008640997362049818
2635.0,0.0087296108049002
2634.0,0.008818242332126802
2633.0,0.008862564879688284
2632.0,0.008818242332126802
2631.0,0.0087296108049002
2630.0,0.008685301823389224
2629.0,0.008640997362049818
2628.0,0.008685301823389224
2627.0,0.008685301823389224
2626.0,0.008685301823389224
2625.0,0.008685301823389224
2624.0,0.008640997362049818
2623.0,0.008640997362049818
2622.0,0.0087296108049002
2621.0,0.008818242332126802
2620.0,0.008951223547323472
2619.0,0.008906891951112605
2618.0,0.008818242332126802
2617.0,0.008685301823389224
2616.0,0.008596697419959609
2615.0,0.008596697419959609
2614.0,0.008640997362049818
2613.0,0.008640997362049818
2612.0,0.008640997362049818
2611.0,0.008640997362049818
2610.0,0.008640997362049818
2609.0,0.008685301823389224
2608.0,0.0087296108049002
2607.0,0.0087296108049002
2606.0,0.008773924307505121
2605.0,0.008773924307505121
2604.0,0.008862564879688284
2603.0,0.008906891951112605
2602.0,0.008862564879688284
2601.0,0.008818242332126802
2600.0,0.0087296108049002
2599.0,0.008773924307505121
2598.0,0.008862564879688284
2597.0,0.008906891951112605
2596.0,0.008951223547323472
2595.0,0.008951223547323472
2594.0,0.008906891951112605
2593.0,0.008862564879688284
2592.0,0.008818242332126802
2591.0,0.008773924307505121
2590.0,0.008773924307505121
2589.0,0.008773924307505121
2588.0,0.008818242332126802
2587.0,0.008906891951112605
2586.0,0.008951223547323472
2585.0,0.008951223547323472
2584.0,0.008906891951112605
2583.0,0.008862564879688284
2582.0,0.008773924307505121
2581.0,0.0087296108049002
2580.0,0.008773924307505121
2579.0,0.008818242332126802
2578.0,0.008862564879688284
2577.0,0.008862564879688284
2576.0,0.008818242332126802
2575.0,0.008685301823389224
2574.0,0.008596697419959609
2573.0,0.008552401996197112
2572.0,0.008552401996197112
2571.0,0.008596697419959609
2570.0,0.008640997362049818
2569.0,0.0087296108049002
2568.0,0.008862564879688284
2567.0,0.008995559669244813
2566.0,0.009039900317800775
2565.0,0.009039900317800775
2564.0,0.008995559669244813
2563.0,0.008906891951112605
2562.0,0.008862564879688284
2561.0,0.008862564879688284
2560.0,0.008862564879688284
2559.0,0.008818242332126802
2558.0,0.008862564879688284
2557.0,0.008906891951112605
2556.0,0.008951223547323472
2555.0,0.009039900317800775
2554.0,0.009039900317800775
2553.0,0.008995559669244813
2552.0,0.008906891951112605
2551.0,0.008818242332126802
2550.0,0.008773924307505121
2549.0,0.008685301823389224
2548.0,0.008640997362049818
2547.0,0.008596697419959609
2546.0,0.008552401996197112
2545.0,0.008596697419959609
2544.0,0.008685301823389224
2543.0,0.008818242332126802
2542.0,0.008862564879688284
2541.0,0.008862564879688284
2540.0,0.0087296108049002
2539.0,0.008640997362049818
2538.0,0.008640997362049818
2537.0,0.008596697419959609
2536.0,0.008596697419959609
2535.0,0.008552401996197112
2534.0,0.008463824699968647
2533.0,0.008419542825660153
2532.0,0.008375265465994541
2531.0,0.008419542825660153
2530.0,0.008463824699968647
2529.0,0.00850811108984062
2528.0,0.00850811108984062
2527.0,0.00850811108984062
2526.0,0.00850811108984062
2525.0,0.008463824699968647
2524.0,0.008419542825660153
2523.0,0.008419542825660153
2522.0,0.008463824699968647
2521.0,0.00850811108984062
2520.0,0.008552401996197112
2519.0,0.008596697419959609
2518.0,0.008640997362049818
2517.0,0.008596697419959609
2516.0,0.008552401996197112
2515.0,0.00850811108984062
2514.0,0.008463824699968647
2513.0,0.008419542825660153
2512.0,0.008419542825660153
2511.0,0.008330992620051436
2510.0,0.008242460465651913
2509.0,0.008065450281052211
2508.0,0.007932739972333236
2507.0,0.007888512213050314
2506.0,0.007932739972333236
2505.0,0.007976972236149349
2504.0,0.008021209005416363
2503.0,0.007976972236149349
2502.0,0.007932739972333236
2501.0,0.007932739972333236
2500.0,0.007976972236149349
2499.0,0.007976972236149349
2498.0,0.007932739972333236
2497.0,0.007888512213050314
2496.0,0.007888512213050314
2495.0,0.007932739972333236
2494.0,0.008021209005416363
2493.0,0.008065450281052211
2492.0,0.008109696063975047
2491.0,0.008065450281052211
2490.0,0.007976972236149349
2489.0,0.007932739972333236
2488.0,0.007888512213050314
2487.0,0.007888512213050314
2486.0,0.007888512213050314
2485.0,0.007844288957383316
2484.0,0.007844288957383316
2483.0,0.007844288957383316
2482.0,0.007844288957383316
2481.0,0.007800070204414977
2480.0,0.007711646202907652
2479.0,0.007667440952535687
2478.0,0.0075790439479759275
2477.0,0.007490664932224611
2476.0,0.007402303897961815
2475.0,0.007358130121602358
2474.0,0.007358130121602358
2473.0,0.007358130121602358
2472.0,0.007402303897961815
2471.0,0.007402303897961815
2470.0,0.0074464821678643656
2469.0,0.007402303897961815
2468.0,0.007358130121602358
2467.0,0.007269796045857202
2466.0,0.007181479933320523
2465.0,0.007137328610972382
2464.0,0.007137328610972382
2463.0,0.007181479933320523
2462.0,0.007181479933320523
2461.0,0.007181479933320523
2460.0,0.007181479933320523
2459.0,0.007225635744644521
2458.0,0.007313960837872058
2457.0,0.007358130121602358
2456.0,0.007402303897961815
2455.0,0.007358130121602358
2454.0,0.007358130121602358
2453.0,0.007313960837872058
2452.0,0.007269796045857202
2451.0,0.007269796045857202
2450.0,0.007269796045857202
2449.0,0.007181479933320523
2448.0,0.007093181776687496
2447.0,0.007004901568658406
2446.0,0.006916639301937977
2445.0,0.006916639301937977
2444.0,0.00696076819309055
2443.0,0.007004901568658406
2442.0,0.007093181776687496
2441.0,0.007137328610972382
2440.0,0.007181479933320523
2439.0,0.007225635744644521
2438.0,0.007225635744644521
2437.0,0.007181479933320523
2436.0,0.007137328610972382
2435.0,0.007181479933320523
2434.0,0.007225635744644521
2433.0,0.007225635744644521
2432.0,0.007225635744644521
2431.0,0.007137328610972382
2430.0,0.007137328610972382
2429.0,0.007137328610972382
2428.0,0.007137328610972382
2427.0,0.007181479933320523
2426.0,0.007225635744644521
2425.0,0.007313960837872058
2424.0,0.007358130121602358
2423.0,0.007402303897961815
2422.0,0.007358130121602358
2421.0,0.007313960837872058
2420.0,0.007225635744644521
2419.0,0.007225635744644521
2418.0,0.007269796045857202
2417.0,0.007313960837872058
2416.0,0.007269796045857202
2415.0,0.007269796045857202
2414.0,0.007269796045857202
2413.0,0.007313960837872058
2412.0,0.007402303897961815
2411.0,0.0074464821678643656
2410.0,0.0074464821678643656
2409.0,0.0074464821678643656
2408.0,0.0074464821678643656
2407.0,0.0074464821678643656
2406.0,0.0074464821678643656
2405.0,0.0074464821678643656
2404.0,0.007490664932224611
2403.0,0.007534852191956709
2402.0,0.007534852191956709
2401.0,0.007534852191956709
2400.0,0.0075790439479759275
2399.0,0.00762324020119709
2398.0,0.00762324020119709
2397.0,0.007667440952535687
2396.0,0.00762324020119709
2395.0,0.00762324020119709
2394.0,0.00762324020119709
2393.0,0.00762324020119709
2392.0,0.00762324020119709
2391.0,0.007667440952535687
2390.0,0.00762324020119709
2389.0,0.0075790439479759275
2388.0,0.007490664932224611
2387.0,0.007490664932224611
2386.0,0.0074464821678643656
2385.0,0.0074464821678643656
2384.0,0.007402303897961815
2383.0,0.007313960837872058
2382.0,0.007181479933320523
2381.0,0.007004901568658406
2380.0,0.006828394969235152
2379.0,0.006651960076740071
2378.0,0.006519680930003435
2377.0,0.006343371384537999
2376.0,0.00625524344553785
2375.0,0.006343371384537999
2374.0,0.006607862550997545
2373.0,0.006872514894289861
2372.0,0.007004901568658406
2371.0,0.007004901568658406
2370.0,0.00696076819309055
2369.0,0.006784279525863024
2368.0,0.006343371384537999
2367.0,0.005682847330363394
2366.0,0.005067263269958211
2365.0,0.004715892310740433
2364.0,0.004803708402820517
2363.0,0.005243055412371911
2362.0,0.006035001804881146
2361.0,0.007004901568658406
2360.0,0.008109696063975047
2359.0,0.008906891951112605
2358.0,0.008995559669244813
2357.0,0.008463824699968647
2356.0,0.00762324020119709
2355.0,0.006784279525863024
2354.0,0.005990966876386672
2353.0,0.005462895701502157
2352.0,0.005155150446602086
2351.0,0.005067263269958211
2350.0,0.0052870145684298375
2349.0,0.005594853310833647
2348.0,0.005814871797682919
2347.0,0.005858888873877532
2346.0,0.005814871797682919
2345.0,0.005858888873877532
2344.0,0.005726851026829571
2343.0,0.005330978174470591
2342.0,0.005023326350308999
2341.0,0.00489154225525934
2340.0,0.005199100705396198
2339.0,0.005638848091999105
2338.0,0.00590291041179003
2337.0,0.005946936412324799
2336.0,0.005814871797682919
2335.0,0.005638848091999105
2334.0,0.005506877116487674
2333.0,0.0052870145684298375
2332.0,0.005111204635089406
2331.0,0.005023326350308999
2330.0,0.005067263269958211
2329.0,0.005243055412371911
2328.0,0.00541891874010525
2327.0,0.005638848091999105
2326.0,0.00590291041179003
2325.0,0.00625524344553785
2324.0,0.006519680930003435
2323.0,0.00656376950238835
2322.0,0.006343371384537999
2321.0,0.005990966876386672
2320.0,0.00577085918230158
2319.0,0.005638848091999105
2318.0,0.005638848091999105
2317.0,0.005726851026829571
2316.0,0.005858888873877532
2315.0,0.005946936412324799
2314.0,0.00590291041179003
2313.0,0.005814871797682919
2312.0,0.00577085918230158
2311.0,0.005814871797682919
2310.0,0.005858888873877532
2309.0,0.005814871797682919
2308.0,0.005726851026829571
2307.0,0.005682847330363394
2306.0,0.005638848091999105
2305.0,0.005682847330363394
2304.0,0.00577085918230158
2303.0,0.00590291041179003
2302.0,0.006079041198713275
2301.0,0.00625524344553785
2300.0,0.006343371384537999
2299.0,0.006299305179649828
2298.0,0.006167133386013823
2297.0,0.006035001804881146
2296.0,0.005946936412324799
2295.0,0.005946936412324799
2294.0,0.005990966876386672
2293.0,0.005990966876386672
2292.0,0.005990966876386672
2291.0,0.006079041198713275
2290.0,0.00625524344553785
2289.0,0.006431517210272464
2288.0,0.00656376950238835
2287.0,0.006519680930003435
2286.0,0.006431517210272464
2285.0,0.006387442061109638
2284.0,0.006343371384537999
2283.0,0.006387442061109638
2282.0,0.006387442061109638
2281.0,0.006343371384537999
2280.0,0.006299305179649828
2279.0,0.00621118618129457
2278.0,0.00612308505878878
2277.0,0.006035001804881146
2276.0,0.005990966876386672
2275.0,0.006035001804881146
2274.0,0.006079041198713275
2273.0,0.006079041198713275
2272.0,0.005990966876386672
2271.0,0.00590291041179003
2270.0,0.00577085918230158
2269.0,0.00577085918230158
2268.0,0.00590291041179003
2267.0,0.006035001804881146
2266.0,0.006079041198713275
2265.0,0.00612308505878878
2264.0,0.00612308505878878
2263.0,0.006079041198713275
2262.0,0.006079041198713275
2261.0,0.006035001804881146
2260.0,0.006035001804881146
2259.0,0.005990966876386672
2258.0,0.005946936412324799
2257.0,0.00590291041179003
2256.0,0.005946936412324799
2255.0,0.005990966876386672
2254.0,0.005990966876386672
2253.0,0.005946936412324799
2252.0,0.005858888873877532
2251.0,0.005814871797682919
2250.0,0.00577085918230158
2249.0,0.005726851026829571
2248.0,0.005726851026829571
2247.0,0.005682847330363394
2246.0,0.005638848091999105
2245.0,0.005594853310833647
2244.0,0.005594853310833647
2243.0,0.005638848091999105
2242.0,0.005682847330363394
2241.0,0.005638848091999105
2240.0,0.005638848091999105
2239.0,0.005682847330363394
2238.0,0.005726851026829571
2237.0,0.005682847330363394
2236.0,0.005594853310833647
2235.0,0.005506877116487674
2234.0,0.00541891874010525
2233.0,0.005330978174470591
2232.0,0.0052870145684298375
2231.0,0.005243055412371911
2230.0,0.005330978174470591
2229.0,0.00541891874010525
2228.0,0.005462895701502157
2227.0,0.005462895701502157
2226.0,0.00541891874010525
2225.0,0.005330978174470591
2224.0,0.005243055412371911
2223.0,0.005155150446602086
2222.0,0.005155150446602086
2221.0,0.005111204635089406
2220.0,0.005067263269958211
2219.0,0.005023326350308999
2218.0,0.004979393875242044
2217.0,0.004935465843858511
2216.0,0.004935465843858511
2215.0,0.004979393875242044
2214.0,0.004979393875242044
2213.0,0.004935465843858511
2212.0,0.00484762310854614
2211.0,0.004759798137184523
2210.0,0.004671990922590297
2209.0,0.00458420145758498
2208.0,0.004540313378935901
2207.0,0.004540313378935901
2206.0,0.004540313378935901
2205.0,0.004628093971837721
2204.0,0.004671990922590297
2203.0,0.004759798137184523
2202.0,0.004803708402820517
2201.0,0.004759798137184523
2200.0,0.004671990922590297
2199.0,0.004628093971837721
2198.0,0.004628093971837721
2197.0,0.004540313378935901
2196.0,0.004452550524862486
2195.0,0.0043648054024501
2194.0,0.004320939488377862
2193.0,0.0043648054024501
2192.0,0.0043648054024501
2191.0,0.0043648054024501
2190.0,0.004320939488377862
2189.0,0.004233220950025984
2188.0,0.004189368323957332
2187.0,0.004233220950025984
2186.0,0.004277078004534696
2185.0,0.004320939488377862
2184.0,0.004320939488377862
2183.0,0.004277078004534696
2182.0,0.004233220950025984
2181.0,0.004189368323957332
2180.0,0.004233220950025984
2179.0,0.004277078004534696
2178.0,0.0043648054024501
2177.0,0.004320939488377862
2176.0,0.004233220950025984
2175.0,0.004189368323957332
2174.0,0.004145520125434121
2173.0,0.004233220950025984
2172.0,0.004320939488377862
2171.0,0.004408675747646695
2170.0,0.004452550524862486
2169.0,0.004452550524862486
2168.0,0.0043648054024501
2167.0,0.004277078004534696
2166.0,0.004233220950025984
2165.0,0.004233220950025984
2164.0,0.004277078004534696
2163.0,0.0043648054024501
2162.0,0.0043648054024501
2161.0,0.004320939488377862
2160.0,0.004320939488377862
2159.0,0.004320939488377862
2158.0,0.004277078004534696
2157.0,0.004233220950025984
2156.0,0.004189368323957332
2155.0,0.004233220950025984
2154.0,0.004277078004534696
2153.0,0.004320939488377862
2152.0,0.004320939488377862
2151.0,0.004320939488377862
2150.0,0.0043648054024501
2149.0,0.0043648054024501
2148.0,0.0043648054024501
2147.0,0.0043648054024501
2146.0,0.004277078004534696
2145.0,0.004233220950025984
2144.0,0.004145520125434121
2143.0,0.004189368323957332
2142.0,0.004233220950025984
2141.0,0.004277078004534696
2140.0,0.004320939488377862
2139.0,0.004320939488377862
2138.0,0.0043648054024501
2137.0,0.004408675747646695
2136.0,0.004452550524862486
2135.0,0.0044964297349936455
2134.0,0.004540313378935901
2133.0,0.004540313378935901
2132.0,0.004540313378935901
2131.0,0.00458420145758498
2130.0,0.004540313378935901
2129.0,0.004540313378935901
2128.0,0.004452550524862486
2127.0,0.0043648054024501
2126.0,0.004320939488377862
2125.0,0.0043648054024501
2124.0,0.004408675747646695
2123.0,0.0044964297349936455
2122.0,0.004540313378935901
2121.0,0.004540313378935901
2120.0,0.004540313378935901
2119.0,0.00458420145758498
2118.0,0.00458420145758498
2117.0,0.004628093971837721
2116.0,0.004628093971837721
2115.0,0.004628093971837721
2114.0,0.004671990922590297
2113.0,0.004628093971837721
2112.0,0.004628093971837721
2111.0,0.004628093971837721
2110.0,0.00458420145758498
2109.0,0.004540313378935901
2108.0,0.0044964297349936455
2107.0,0.004408675747646695
2106.0,0.004408675747646695
2105.0,0.004408675747646695
2104.0,0.004452550524862486
2103.0,0.004540313378935901
2102.0,0.004628093971837721
2101.0,0.00458420145758498
2100.0,0.0044964297349936455
2099.0,0.0043648054024501
2098.0,0.004320939488377862
2097.0,0.004277078004534696
2096.0,0.004233220950025984
2095.0,0.004189368323957332
2094.0,0.004145520125434121
2093.0,0.004145520125434121
2092.0,0.004145520125434121
2091.0,0.004145520125434121
2090.0,0.004145520125434121
2089.0,0.004101676353562844
2088.0,0.004101676353562844
2087.0,0.004101676353562844
2086.0,0.004101676353562844
2085.0,0.0040578370074493275
2084.0,0.0040578370074493275
2083.0,0.0040578370074493275
2082.0,0.00401400208620073
2081.0,0.003926345514724705
2080.0,0.0038387066319929275
2079.0,0.003707281458678491
2078.0,0.003619686766589858
2077.0,0.003488327845821315
2076.0,0.0034445503666347133
2075.0,0.0034007772998332353
2074.0,0.0033570086445275926
2073.0,0.0032694845648473247
2072.0,0.0032694845648473247
2071.0,0.0033132443998284966
2070.0,0.0033132443998284966
2069.0,0.0032694845648473247
2068.0,0.0031819781204844855
2067.0,0.0030944893043338695
2066.0,0.0029632891174733444
2065.0,0.0028758443407954637
2064.0,0.0028321285541661467
2063.0,0.0029195645282691363
2062.0,0.0029632891174733444
2061.0,0.0029632891174733444
2060.0,0.0029195645282691363
2059.0,0.0028758443407954637
2058.0,0.0028321285541661467
2057.0,0.0027884171674950053
2056.0,0.0026573093983774942
2055.0,0.002569926202528716
2054.0,0.0024388843664115978
2053.0,0.002395212539545666
2052.0,0.002351545103793873
2051.0,0.002395212539545666
2050.0,0.0024388843664115978
2049.0,0.0024388843664115978
2048.0,0.0024388843664115978
2047.0,0.002351545103793873
2046.0,0.0022205691343961664
2045.0,0.0021332737608552588
2044.0,0.0020459959305969555
2043.0,0.0020459959305969555
2042.0,0.002089632653256679
2041.0,0.0020459959305969555
2040.0,0.0020023635919956817
2039.0,0.0020023635919956817
2038.0,0.0020023635919956817
2037.0,0.0020023635919956817
2036.0,0.0020023635919956817
2035.0,0.0019587356365717845
2034.0,0.0019587356365717845
2033.0,0.001915112063444413
2032.0,0.001915112063444413
2031.0,0.001915112063444413
2030.0,0.0018714928717336043
2029.0,0.0017842676290416026
2028.0,0.0017406615763013722
2027.0,0.0017406615763013722
2026.0,0.0017842676290416026
2025.0,0.0018278780605593958
2024.0,0.0017842676290416026
2023.0,0.0016970599014589638
2022.0,0.001609869681952425
2021.0,0.0015662811355310335
2020.0,0.0015662811355310335
2019.0,0.0016534626036355249
2018.0,0.0016534626036355249
2017.0,0.0016534626036355249
2016.0,0.0015662811355310335
2015.0,0.0015226969634936083
2014.0,0.0015226969634936083
2013.0,0.001609869681952425
2012.0,0.0016970599014589638
2011.0,0.0017406615763013722
2010.0,0.0017842676290416026
2009.0,0.0018278780605593958
2008.0,0.0018278780605593958
2007.0,0.0018278780605593958
2006.0,0.0017842676290416026
2005.0,0.0016970599014589638
2004.0,0.0016970599014589638
2003.0,0.0017842676290416026
2002.0,0.0018714928717336043
2001.0,0.0019587356365717845
2000.0,0.0020459959305969555
1999.0,0.0021769192542746563
1998.0,0.0022642234021015284
1997.0,0.0023078820582733695
1996.0,0.0023078820582733695
1995.0,0.0022205691343961664
1994.0,0.0021332737608552588
1993.0,0.0020459959305969555
1992.0,0.0020459959305969555
1991.0,0.0021332737608552588
1990.0,0.0021769192542746563
1989.0,0.0021332737608552588
1988.0,0.0020459959305969555
1987.0,0.0019587356365717845
1986.0,0.0019587356365717845
1985.0,0.0020023635919956817
1984.0,0.0021769192542746563
1983.0,0.0023078820582733695
1982.0,0.002351545103793873
1981.0,0.002351545103793873
1980.0,0.002351545103793873
1979.0,0.002395212539545666
1978.0,0.002482560585275184
1977.0,0.0025262411970197185
1976.0,0.002613615602686581
1975.0,0.002701007590486082
1974.0,0.0027884171674950053
1973.0,0.0028758443407954637
1972.0,0.0029195645282691363
1971.0,0.0029632891174733444
1970.0,0.0030070181092942683
1969.0,0.003050751504618754
1968.0,0.003050751504618754
1967.0,0.003050751504618754
1966.0,0.0031382315093266833
1965.0,0.0032694845648473247
1964.0,0.003488327845821315
1963.0,0.003707281458678491
1962.0,0.0038825238627120395
1961.0,0.003970171588923321
1960.0,0.00401400208620073
1959.0,0.004101676353562844
1958.0,0.004189368323957332
1957.0,0.004189368323957332
1956.0,0.004189368323957332
1955.0,0.004145520125434121
1954.0,0.004145520125434121
1953.0,0.004189368323957332
1952.0,0.004233220950025984
1951.0,0.004233220950025984
1950.0,0.004233220950025984
1949.0,0.004145520125434121
1948.0,0.00401400208620073
1947.0,0.003794893821675638
1946.0,0.0035758960449088217
1945.0,0.0033570086445275926
1944.0,0.0031382315093266833
1943.0,0.0029632891174733444
1942.0,0.0027884171674950053
1941.0,0.002701007590486082
1940.0,0.0026573093983774942
1939.0,0.002613615602686581
1938.0,0.0025262411970197185
1937.0,0.002351545103793873
1936.0,0.0021332737608552588
1935.0,0.001915112063444413
1934.0,0.0017406615763013722
1933.0,0.001609869681952425
1932.0,0.0014355417390583547
1931.0,0.001304841688344327
1930.0,0.0011741809597138886
1929.0,0.0010435595295137379
1928.0,0.0009129773741116676
1927.0,0.0008259444115150671
1926.0,0.0006954276616513155
1925.0,0.0005649501236701937
1924.0,0.0003475746339209884
1923.0,0.0001303078917322953
1922.0,0.0
1921.0,0.0
1920.0,0.0001303078917322953
1919.0,0.00021720154586435392
1918.0,0.0001303078917322953
1917.0,-8.685021164911433e-05
1916.0,-0.0002604985473904087
1915.0,-0.00030389978481260016
1914.0,-0.00030389978481260016
1913.0,-0.0003472966853634851
1912.0,-0.00043407747931878404
1911.0,-0.0005208409361854294
1910.0,-0.0006509536295951079
1909.0,-0.0007810273534953893
1908.0,-0.0009110621312231615
1907.0,-0.0009543984064577238
1906.0,-0.0009543984064577238
1905.0,-0.0009543984064577238
1904.0,-0.0009543984064577238
1903.0,-0.0009977303577937136
1902.0,-0.0010843812922201046
1901.0,-0.00121432528617893
1900.0,-0.001344230411601366
1899.0,-0.0013875234866409514
1898.0,-0.0014308122463981832
1897.0,-0.001474096691732818
1896.0,-0.0015606526425728795
1895.0,-0.0016471913460383014
1894.0,-0.001733712809000476
1893.0,-0.0018634626925240205
1892.0,-0.0019499410842680476
1891.0,-0.0020796263931210923
1890.0,-0.0021660617565077978
1889.0,-0.0022524799205383417
1888.0,-0.0022956825549340643
1887.0,-0.0022092729880145434
1886.0,-0.0021228462251614566
1885.0,-0.0020796263931210923
1884.0,-0.0021228462251614566
1883.0,-0.0021660617565077978
1882.0,-0.0022524799205383417
1881.0,-0.0023820749327607693
1880.0,-0.0024252646779014952
1879.0,-0.0024252646779014952
1878.0,-0.0023820749327607693
1877.0,-0.002338880892056583
1876.0,-0.0022524799205383417
1875.0,-0.0022092729880145434
1874.0,-0.0022092729880145434
1873.0,-0.002338880892056583
1872.0,-0.0025116312849080558
1871.0,-0.0026411490000399773
1870.0,-0.0028137792246734072
1869.0,-0.0029432068763250996
1868.0,-0.003158833950862139
1867.0,-0.0032450548131470747
1866.0,-0.003201946521692367
1865.0,-0.0030725959676747294
1864.0,-0.0029863408567849525
1863.0,-0.002900068611387585
1862.0,-0.002856926061120646
1861.0,-0.0028137792246734072
1860.0,-0.0027706281011936618
1859.0,-0.0027274726898296464
1858.0,-0.002597980719908577
1857.0,-0.0025116312849080558
1856.0,-0.0024684501283323
1855.0,-0.0024252646779014952
1854.0,-0.0023820749327607693
1853.0,-0.002338880892056583
1852.0,-0.0022956825549340643
1851.0,-0.0021660617565077978
1850.0,-0.0020364022595291686
1849.0,-0.0020364022595291686
1848.0,-0.0021228462251614566
1847.0,-0.0020796263931210923
1846.0,-0.0018634626925240205
1845.0,-0.0016471913460383014
1844.0,-0.0015606526425728795
1843.0,-0.0016039241497978196
1842.0,-0.0016471913460383014
1841.0,-0.0015173768235041685
1840.0,-0.001257631312230778
1839.0,-0.0009543984064577238
1838.0,-0.0007376737740329986
1837.0,-0.0006075870628903246
1836.0,-0.0005208409361854294
1835.0,-0.0004774613744551459
1834.0,-0.0004774613744551459
1833.0,-0.0005642161653756084
1832.0,-0.0005642161653756084
1831.0,-0.00043407747931878404
1830.0,-0.00030389978481260016
1829.0,-0.0002604985473904087
1828.0,-0.0002604985473904087
1827.0,-0.00017368305846510168
1826.0,-4.3427276862573194e-05
1825.0,-8.685021164911433e-05
1824.0,-0.00021709297223004853
1823.0,-0.00030389978481260016
1822.0,-0.00021709297223004853
1821.0,-0.00013026880522692963
1820.0,0.0
1819.0,4.343161980746579e-05
1818.0,8.686758342868472e-05
1817.0,8.686758342868472e-05
1816.0,8.686758342868472e-05
1815.0,8.686758342868472e-05
1814.0,8.686758342868472e-05
1813.0,0.0
1812.0,-8.685021164911433e-05
1811.0,-0.00017368305846510168
1810.0,-0.0002604985473904087
1809.0,-0.0003906892499099257
1808.0,-0.00043407747931878404
1807.0,-0.0003906892499099257
1806.0,-0.0003472966853634851
1805.0,-0.0003472966853634851
1804.0,-0.0003906892499099257
1803.0,-0.0004774613744551459
1802.0,-0.0006509536295951079
1801.0,-0.0008243766056055257
1800.0,-0.0009543984064577238
1799.0,-0.0009543984064577238
1798.0,-0.0008677215312267172
1797.0,-0.0008677215312267172
1796.0,-0.0008677215312267172
1795.0,-0.0007810273534953893
1794.0,-0.0006943158663546001
1793.0,-0.0007376737740329986
1792.0,-0.0008243766056055257
1791.0,-0.0009110621312231615
1790.0,-0.0009110621312231615
1789.0,-0.0008243766056055257
1788.0,-0.0006943158663546001
1787.0,-0.0005642161653756084
1786.0,-0.0004774613744551459
1785.0,-0.0005208409361854294
1784.0,-0.0006509536295951079
1783.0,-0.0006943158663546001
1782.0,-0.0006509536295951079
1781.0,-0.0006943158663546001
1780.0,-0.0006943158663546001
1779.0,-0.0006509536295951079
1778.0,-0.0005642161653756084
1777.0,-0.0005642161653756084
1776.0,-0.0005208409361854294
1775.0,-0.00043407747931878404
1774.0,-0.00030389978481260016
1773.0,-0.00030389978481260016
1772.0,-0.0003472966853634851
1771.0,-0.00021709297223004853
1770.0,0.0
1769.0,0.00021720154586435392
1768.0,0.000521466320689834
1767.0,0.0009129773741116676
1766.0,0.0012612837441823288
1765.0,0.0015662811355310335
1764.0,0.0018714928717336043
1763.0,0.0023078820582733695
1762.0,0.0028321285541661467
1761.0,0.0032257291386954545
1760.0,0.003619686766589858
1759.0,0.004320939488377862
1758.0,0.0052870145684298375
1757.0,0.006343371384537999
1756.0,0.007402303897961815
1755.0,0.008596697419959609
1754.0,0.009794384815193347
1753.0,0.011039929609661936
1752.0,0.012736045877764557
1751.0,0.015247721884586563
1750.0,0.018362575344230914
1749.0,0.021865152601710403
1748.0,0.025995203102585407
1747.0,0.03067729388779794
1746.0,0.035740369803151095
1745.0,0.04129280891271536
1744.0,0.0478374257855374
1743.0,0.0549747987575373
1742.0,0.06223143295006417
1741.0,0.07047889936889606
1740.0,0.08066036321258663
1739.0,0.0910326995816122
1738.0,0.09843270997155007
1737.0,0.10297804393963661
1736.0,0.10835105612944096
1735.0,0.12033079436794658
1734.0,0.13924287691845794
1733.0,0.15452986701832638
1732.0,0.16361258067358908
1731.0,0.1724368887452763
1730.0,0.18362611124763806
1729.0,0.19586056766464965
1728.0,0.20704829174986794
1727.0,0.2173840679683965
1726.0,0.2280452510360509
1725.0,0.2401056259745007
1724.0,0.25391095694379984
1723.0,0.2676062401770314
1722.0,0.2781893847874535
1721.0,0.28441444810680383
1720.0,0.2892904342756628
1719.0,0.29990229538694635
1718.0,0.32093568187868726
1717.0,0.34265726318537393
1716.0,0.3531063758322548
1715.0,0.3549709352788575
1714.0,0.3520305416370282
1713.0,0.3434227086038859
1712.0,0.329754146925876
1711.0,0.3137213219327988
1710.0,0.29688065376392214
1709.0,0.2795099315499485
1708.0,0.26114019792779986
1707.0,0.24222450898807435
1706.0,0.22395292881822026
1705.0,0.2076083105017461
1704.0,0.19341306567219707
1703.0,0.18045606445813123
1702.0,0.16800232276410365
1701.0,0.1559579579589836
1700.0,0.14551177495556966
1699.0,0.1369151746796402
1698.0,0.12953756841108
1697.0,0.12303203256741524
1696.0,0.11724784438692004
1695.0,0.11193288659256306
1694.0,0.10718217569042365
1693.0,0.10308815917397474
1692.0,0.09925064193892053
1691.0,0.0955549589230904
1690.0,0.09231997575758011
1689.0,0.08964244272712252
1688.0,0.0870343792958963
1687.0,0.08396738981143059
1686.0,0.08092190762392604
1685.0,0.07930286553008004
1684.0,0.07925073872429178
1683.0,0.07800156869172903
1682.0,0.07577241873988227
1681.0,0.07355465218161061
1680.0,0.07139934015547578
1679.0,0.06905096883247697
1678.0,0.06671522765130522
1677.0,0.06464390705442691
1676.0,0.06303410289212974
1675.0,0.061580354206806964
1674.0,0.05988213325228142
1673.0,0.05794231615860479
1672.0,0.05606053552778367
1671.0,0.05443294655761144
1670.0,0.0531548860393769
1669.0,0.05207638016827354
1668.0,0.05065879322950262
1667.0,0.04900266601119507
1666.0,0.04725597598510167
1665.0,0.045660991397539874
1664.0,0.04421607108308856
1663.0,0.04301563225723992
1662.0,0.04186632432376469
1661.0,0.040672354027829094
1660.0,0.03948165721929198
1659.0,0.03829421599749461
1658.0,0.037062711569998186
1657.0,0.035740369803151095
1656.0,0.03423403581731388
1655.0,0.032592443402527316
1654.0,0.03193753992355086
1653.0,0.03245202378113787
1652.0,0.03189079887180224
1651.0,0.0307239045110681
1650.0,0.029978734171634214
1649.0,0.029560137048236124
1648.0,0.029281296279810798
1647.0,0.029095501846216454
1646.0,0.028816959143838528
1645.0,0.028353117935693284
1644.0,0.027797161620935595
1643.0,0.02738066094037661
1642.0,0.027010773144651168
1641.0,0.02664120011360227
1640.0,0.026087429580295085
1639.0,0.025304128090317013
1638.0,0.024476287039668643
1637.0,0.02406295751688936
1636.0,0.024200690320592466
1635.0,0.024246610963712723
1634.0,0.023879381700184332
1633.0,0.023466619608062178
1632.0,0.023054249440757957
1631.0,0.022642270454698687
1630.0,0.02227639471115217
1629.0,0.022139270735302752
1628.0,0.02200219004126036
1627.0,0.02168250325324883
1626.0,0.021271822861508305
1625.0,0.020952673052035298
1624.0,0.020861530453190058
1623.0,0.020861530453190058
1622.0,0.020724852408976924
1621.0,0.020497151212598652
1620.0,0.02036058777709271
1619.0,0.02045162529590483
1618.0,0.0209982515252789
1617.0,0.022139270735302752
1616.0,0.02300845469384938
1615.0,0.02314585342378117
1614.0,0.02296266477531872
1613.0,0.02277955336461468
1612.0,0.02245929405346514
1611.0,0.021910826943857264
1610.0,0.02122621566987748
1609.0,0.020497151212598652
1608.0,0.019769308608968306
1607.0,0.018951941086827073
1606.0,0.018136109008649592
1605.0,0.017412209298337533
1604.0,0.016734647433454652
1603.0,0.016103208673694303
1602.0,0.01547268665620738
1601.0,0.014932966849499074
1600.0,0.014393916947563534
1599.0,0.013900374944870508
1598.0,0.013407393177789162
1597.0,0.013004460275618523
1596.0,0.012691326268817527
1595.0,0.012467797270160563
1594.0,0.012333735073725371
1593.0,0.012199714248127602
1592.0,0.01215504982870197
1591.0,0.012199714248127602
1590.0,0.012333735073725371
1589.0,0.012512493866907004
1588.0,0.012780770091995297
1587.0,0.013138729709955221
1586.0,0.013676222949234651
1585.0,0.014573525916998342
1584.0,0.015742798294583915
1583.0,0.01727661233145472
1582.0,0.018906576854070378
1581.0,0.020406104151069693
1580.0,0.0214542995372613
1579.0,0.02200219004126036
1578.0,0.02200219004126036
1577.0,0.02140867317992523
1576.0,0.02022406727031445
1575.0,0.018725167293411005
1574.0,0.017457417697056554
1573.0,0.01646391839700767
1572.0,0.015562705203923999
1571.0,0.0144837121472845
1570.0,0.013452186585275916
1569.0,0.012557195064198723
1568.0,0.011842527443247208
1567.0,0.011351874764248926
1566.0,0.010906307389674463
1565.0,0.010505687227290839
1564.0,0.010105436281226954
1563.0,0.00966114521239847
1562.0,0.009172949432521227
1561.0,0.008552401996197112
1560.0,0.008153946355103248
1559.0,0.008065450281052211
1558.0,0.007534852191956709
1557.0,0.007225635744644521
1556.0,0.007313960837872058
1555.0,0.007358130121602358
1554.0,0.007181479933320523
1553.0,0.006872514894289861
1552.0,0.006651960076740071
1551.0,0.006519680930003435
1550.0,0.006343371384537999
1549.0,0.00625524344553785
1548.0,0.00612308505878878
1547.0,0.005946936412324799
1546.0,0.005594853310833647
1545.0,0.005155150446602086
1544.0,0.004628093971837721
1543.0,0.004189368323957332
1542.0,0.003926345514724705
1541.0,0.003970171588923321
1540.0,0.004101676353562844
1539.0,0.003926345514724705
1538.0,0.0037510854308679953
1537.0,0.003926345514724705
1536.0,0.004277078004534696
1535.0,0.00458420145758498
1534.0,0.004935465843858511
1533.0,0.0052870145684298375
1532.0,0.00541891874010525
1531.0,0.005506877116487674
1530.0,0.005594853310833647
1529.0,0.005682847330363394
1528.0,0.005682847330363394
1527.0,0.005550862985963967
1526.0,0.005330978174470591
1525.0,0.005111204635089406
1524.0,0.004935465843858511
1523.0,0.004628093971837721
1522.0,0.004233220950025984
1521.0,0.0038387066319929275
1520.0,0.003488327845821315
1519.0,0.0033570086445275926
1518.0,0.0035321097382827737
1517.0,0.003794893821675638
1516.0,0.00401400208620073
1515.0,0.004233220950025984
1514.0,0.004803708402820517
1513.0,0.005726851026829571
1512.0,0.007004901568658406
1511.0,0.008419542825660153
1510.0,0.010105436281226954
1509.0,0.01260190086298274
1508.0,0.01800028587012159
1507.0,0.02654885597506529
1506.0,0.03207779326948268
1505.0,0.03240522732811035
1504.0,0.030118356253500123
1503.0,0.02664120011360227
1502.0,0.02259651912656535
1501.0,0.018543833477873584
1500.0,0.014888020460646079
1499.0,0.011797899741219142
1498.0,0.009261671492462709
1497.0,0.007313960837872058
1496.0,0.00590291041179003
1495.0,0.005023326350308999
1494.0,0.004671990922590297
1493.0,0.004628093971837721
1492.0,0.004715892310740433
1491.0,0.004715892310740433
1490.0,0.004759798137184523
1489.0,0.005155150446602086
1488.0,0.005990966876386672
1487.0,0.007093181776687496
1486.0,0.008419542825660153
1485.0,0.009838807101520963
1484.0,0.011262724711199823
1483.0,0.012691326268817527
1482.0,0.014124642691606404
1481.0,0.015607721475734415
1480.0,0.016915227262211507
1479.0,0.018045555530026514
1478.0,0.0190880622231564
1477.0,0.02004210665933459
1476.0,0.020861530453190058
1475.0,0.021317434843055594
1474.0,0.021728158389364705
1473.0,0.022413561996148967
1472.0,0.022871099419317753
1471.0,0.022871099419317753
1470.0,0.022688026603074007
1469.0,0.02255077261765881
1468.0,0.02245929405346514
1467.0,0.022505030926963654
1466.0,0.02291687968414724
1465.0,0.023833499868024743
1464.0,0.02484402159331056
1463.0,0.02558042614771394
1462.0,0.026041313893296225
1461.0,0.026410376572743033
1460.0,0.026687379547098322
1459.0,0.02691835039863255
1458.0,0.0277045713888604
1457.0,0.029002634427514717
1456.0,0.02960662792039992
1455.0,0.029560137048236124
1454.0,0.029513651152349718
1453.0,0.029513651152349718
1452.0,0.029234840219232394
1451.0,0.028677754757187035
1450.0,0.027936083991977778
1449.0,0.027195677663422346
1448.0,0.026502691267936695
1447.0,0.025856900097785074
1446.0,0.025350165561278004
1445.0,0.024936003904763915
1444.0,0.024568191490736968
1443.0,0.024154774532432866
1442.0,0.023741750742954926
1441.0,0.023237476732539397
1440.0,0.022642270454698687
1439.0,0.021865152601710403
1438.0,0.02081596632558158
1437.0,0.019451260640229506
1436.0,0.017909760704207134
1435.0,0.016418813294209356
1434.0,0.015202742910707112
1433.0,0.01403492169512921
1432.0,0.012780770091995297
1431.0,0.011530229790124524
1430.0,0.010327752376126709
1429.0,0.009350411681145587
1428.0,0.0087296108049002
1427.0,0.008375265465994541
1426.0,0.008198201155356077
1425.0,0.008330992620051436
1424.0,0.008818242332126802
1423.0,0.009527946474380489
1422.0,0.01037222925484893
1421.0,0.011708658092512314
1420.0,0.014349026309051105
1419.0,0.018861217359339655
1418.0,0.02438440203310499
1417.0,0.03063068826647264
1416.0,0.03786753070176463
1415.0,0.04624030826677128
1414.0,0.05581353871631256
1413.0,0.0665127121512945
1412.0,0.07758597585436577
1411.0,0.08735289378168276
1410.0,0.09404230090757282
1409.0,0.09712721455392082
1408.0,0.09642170633694569
1407.0,0.09205147838772776
1406.0,0.08481129482684358
1405.0,0.07613452481449845
1404.0,0.06772922410050963
1403.0,0.06038092104330195
1402.0,0.05428528594013993
1401.0,0.04885683989244738
1400.0,0.04383156952463674
1399.0,0.03919637508823026
1398.0,0.03545753392086315
1397.0,0.032545631817259224
1396.0,0.030118356253500123
1395.0,0.028028723600243666
1394.0,0.026318081496016443
1393.0,0.02512002699306959
1392.0,0.024338466818941473
1391.0,0.02365002099672653
1390.0,0.02300845469384938
1389.0,0.022505030926963654
1388.0,0.022139270735302752
1387.0,0.02204787879853809
1386.0,0.022230681908425698
1385.0,0.02259651912656535
1384.0,0.023054249440757957
1383.0,0.02351246269481
1382.0,0.023925268380126097
1381.0,0.02438440203310499
1380.0,0.02498200236711723
1379.0,0.02558042614771394
1378.0,0.02617967564731627
1377.0,0.02682594731702781
1376.0,0.02747318213414429
1375.0,0.028306761050139073
1374.0,0.029095501846216454
1373.0,0.02969962459782227
1372.0,0.029978734171634214
1371.0,0.029885677714903025
1370.0,0.029374223311705583
1369.0,0.028445846553939003
1368.0,0.027149444152769986
1367.0,0.02553436426275746
1366.0,0.023787622882622816
1365.0,0.021865152601710403
1364.0,0.019814763052665052
1363.0,0.017864505196230507
1362.0,0.01632861713980338
1361.0,0.015517693597737248
1360.0,0.015247721884586563
1359.0,0.015292705517326866
1358.0,0.01547268665620738
1357.0,0.015877917138889863
1356.0,0.016554142658660398
1355.0,0.017457417697056554
1354.0,0.018725167293411005
1353.0,0.02045162529590483
1352.0,0.022688026603074007
1351.0,0.02544225514642018
1350.0,0.028863370523193765
1349.0,0.03310770413286357
1348.0,0.03829421599749461
1347.0,0.04440844959427559
1346.0,0.051684859310652254
1345.0,0.06003170944866376
1344.0,0.06894915322260897
1343.0,0.07779372256098371
1342.0,0.0861331881037608
1341.0,0.0937727369476411
1340.0,0.09990609845660159
1339.0,0.10303309806684524
1338.0,0.10209812573177213
1337.0,0.09750757884139638
1336.0,0.09012318200960712
1335.0,0.08081727095749947
1334.0,0.07042782092345012
1333.0,0.05993198626064755
1332.0,0.050171041064686284
1331.0,0.04181850243505214
1330.0,0.03526907894637077
1329.0,0.030490901403433135
1328.0,0.027149444152769986
1327.0,0.025028005701930978
1326.0,0.023879381700184332
1325.0,0.023466619608062178
1324.0,0.02355831062115543
1323.0,0.024017056287453542
1322.0,0.024706084643793647
1321.0,0.025488307262671706
1320.0,0.026410376572743033
1319.0,0.02747318213414429
1318.0,0.028677754757187035
1317.0,0.03002526987828502
1316.0,0.03142366482450232
1315.0,0.032920265855503006
1314.0,0.03456310022373987
1313.0,0.03649550058570927
1312.0,0.03862637240519895
1311.0,0.04086316882962593
1310.0,0.0431115453499229
1309.0,0.045323413081356456
1308.0,0.047595060422975566
1307.0,0.04978123335813667
1306.0,0.05188057561946402
1305.0,0.05403929642243144
1304.0,0.05635711724787096
1303.0,0.058836539841526925
1302.0,0.06163040254819374
1301.0,0.06489597884855036
1300.0,0.0685421293109949
1299.0,0.07262963696097646
1298.0,0.07691148455760066
1297.0,0.08144546944972642
1296.0,0.08608023504853413
1295.0,0.09065796163869155
1294.0,0.09512223303659528
1293.0,0.09952362861074304
1292.0,0.1038045895457893
1291.0,0.10784972209863586
1290.0,0.11176432672943282
1289.0,0.11554450392951199
1288.0,0.11935787359571504
1287.0,0.12303203256741524
1286.0,0.12650501774383094
1285.0,0.12983027886355947
1284.0,0.1331221856625011
1283.0,0.13620146131949973
1282.0,0.13924287691845794
1281.0,0.14230574221345038
1280.0,0.1455724942121388
1279.0,0.1489251947711132
1278.0,0.15255073750082726
1277.0,0.1565803347950816
1276.0,0.16121385505340546
1275.0,0.16627930955536674
1274.0,0.17192040944325404
1273.0,0.1784864715952268
1272.0,0.18601892436352818
1271.0,0.19436323369406505
1270.0,0.20328693671910347
1269.0,0.21268124337545258
1268.0,0.22264568691579112
1267.0,0.2326956825467268
1266.0,0.24260397120697563
1265.0,0.2522775379644915
1264.0,0.26145725907121475
1263.0,0.2696215314123571
1262.0,0.2767906895948886
1261.0,0.28316227670047556
1260.0,0.2886146209015483
1259.0,0.2929410593724038
1258.0,0.2963647624161041
1257.0,0.2996424721773401
1256.0,0.3032942190660828
1255.0,0.3073293008436311
1254.0,0.3119363030536557
1253.0,0.31740370853944677
1252.0,0.3236722661186797
1251.0,0.33031129194379183
1250.0,0.3370533856673754
1249.0,0.3439976793170427
1248.0,0.3508599358557811
1247.0,0.3570411205902093
1246.0,0.36191027801549436
1245.0,0.365724305374056
1244.0,0.3681505378401819
1243.0,0.36845477216569056
1242.0,0.36632959394855624
1241.0,0.36221017063777095
1240.0,0.3562513145404742
1239.0,0.3483343960770644
1238.0,0.33856594960608
1237.0,0.32762502125392046
1236.0,0.31605286924848786
1235.0,0.3039932847814546
1234.0,0.29191918953176854
1233.0,0.2803373169819534
1232.0,0.26945996352288093
1231.0,0.25924267669222956
1230.0,0.24964591123729196
1229.0,0.24078556876575608
1228.0,0.2327699018892817
1227.0,0.2252641174482466
1226.0,0.21802932608744796
1225.0,0.21126614117229248
1224.0,0.20488501436963658
1223.0,0.1987335295103798
1222.0,0.1926002872405146
1221.0,0.18635230465310326
1220.0,0.18006143064460467
1219.0,0.17360121781238225
1218.0,0.16691666582165698
1217.0,0.1602706247936121
1216.0,0.15372475758778692
1215.0,0.14733705565543076
1214.0,0.14116214857141451
1213.0,0.1352516643703412
1212.0,0.12971317100740865
1211.0,0.12453358413361437
1210.0,0.11970100857424737
1209.0,0.11526126223036814
1208.0,0.11109074073646874
1207.0,0.10718217569042365
1206.0,0.1033635694704158
1205.0,0.09963287134352972
1204.0,0.0960964733098364
1203.0,0.09269615116603047
1202.0,0.08937559511079884
1201.0,0.086239113587677
1200.0,0.08317771540408803
1199.0,0.08013774644446192
1198.0,0.07711890879170658
1197.0,0.07427547306393745
1196.0,0.07155293679081787
1195.0,0.0690000580438479
1194.0,0.0665127121512945
1193.0,0.06414020196211956
1192.0,0.061880730805688344
1191.0,0.05983228596592505
1190.0,0.05789269101064454
1189.0,0.05620880107069848
1188.0,0.05477768336465916
1187.0,0.05369514500652506
1186.0,0.05286048235717078
1185.0,0.052419250695677544
1184.0,0.05237025261564554
1183.0,0.05266432405126009
1182.0,0.05325306496641513
1181.0,0.05413767551038262
1180.0,0.055270639696704205
1179.0,0.05650548409389744
1178.0,0.05764465029232335
1177.0,0.05863766428823891
1176.0,0.05933412752417122
1175.0,0.05948351506743288
1174.0,0.059135024033278416
1173.0,0.05814087347462649
1172.0,0.05655495097496965
1171.0,0.05443294655761144
1170.0,0.05188057561946402
1169.0,0.04919717703534143
1168.0,0.04672366333269573
1167.0,0.04464904263234004
1166.0,0.043063586155803746
1165.0,0.04200982159316968
1164.0,0.041340572947066834
1163.0,0.041006334969674096
1162.0,0.04091088563260792
1161.0,0.04105406750606355
1160.0,0.04138834223512067
1159.0,0.04181850243505214
1158.0,0.042392712939904875
1157.0,0.04315950984076644
1156.0,0.04411991377462465
1155.0,0.045323413081356456
1154.0,0.04672366333269573
1153.0,0.04841965509660828
1152.0,0.050463626623857394
1151.0,0.05281143447390635
1150.0,0.05536929814372171
1149.0,0.05814087347462649
1148.0,0.06103020277710969
1147.0,0.06424089625468832
1146.0,0.0676277178520861
1145.0,0.0713481533463054
1144.0,0.07530729697981409
1143.0,0.0794592834975203
1142.0,0.0839147001562972
1141.0,0.08868255767596933
1140.0,0.0937727369476411
1139.0,0.0990869322623309
1138.0,0.10463271122663809
1137.0,0.11058623595729111
1136.0,0.1170772093974013
1135.0,0.12407101507707297
1134.0,0.1314731132317961
1133.0,0.1394224487555844
1132.0,0.1478861391502384
1131.0,0.1565180569600424
1130.0,0.16532502553725603
1129.0,0.17431429197824166
1128.0,0.1835598320438614
1127.0,0.19273564472389304
1126.0,0.20176382363206424
1125.0,0.21063084640851826
1124.0,0.2192507688964478
1123.0,0.2274582673590566
1122.0,0.23500240071511946
1121.0,0.24169381827469305
1120.0,0.24733705687902807
1119.0,0.25142438306900816
1118.0,0.25375512827980184
1117.0,0.2543787786930616
1116.0,0.25359935550843904
1115.0,0.25173442733125917
1114.0,0.24949160514865376
1113.0,0.24795155218056153
1112.0,0.24802842526367286
1111.0,0.2499546879882324
1110.0,0.25406684154055714
1109.0,0.2601904009786411
1108.0,0.26825011647273667
1107.0,0.2773660774661879
1106.0,0.2868455981627016
1105.0,0.29645070176176946
1104.0,0.30565808963581875
1103.0,0.3140792078054646
1102.0,0.3212085656337562
1101.0,0.3273480771599975
1100.0,0.33236029394358924
1099.0,0.3358282946380693
1098.0,0.3378090091409929
1097.0,0.33837659077076987
1096.0,0.3377144842778699
1095.0,0.3355460714188425
1094.0,0.33198702835816785
1093.0,0.3273480771599975
1092.0,0.3219370950256548
1091.0,0.3156933539283684
1090.0,0.30883006586839623
1089.0,0.30172542332563235
1088.0,0.2949063894521269
1087.0,0.2880241456482442
1086.0,0.28100036212128177
1085.0,0.2739251297846299
1084.0,0.26680273489343054
1083.0,0.259321574772545
1082.0,0.2512694439015055
1081.0,0.2429077798810675
1080.0,0.2344059446805551
1079.0,0.22570206150072258
1078.0,0.216739767127051
1077.0,0.20781850385032108
1076.0,0.19914550849643908
1075.0,0.19070969882368427
1074.0,0.18263298371240588
1073.0,0.17509352869788763
1072.0,0.16819419132560887
1071.0,0.16171775008531153
1070.0,0.15558495952617557
1069.0,0.14984407757790774
1068.0,0.14466259553045968
1067.0,0.1399616101928065
1066.0,0.13572630319562085
1065.0,0.13194363817695853
1064.0,0.12842706445412122
1063.0,0.125054563914468
1062.0,0.12188051530283239
1061.0,0.1190150095132465
1060.0,0.11645212073195621
1059.0,0.1141301390960936
1058.0,0.11227020271196975
1057.0,0.11086644403327606
1056.0,0.10991447328367476
1055.0,0.10935546370475246
1054.0,0.10907622851098608
1053.0,0.10896458468468917
1052.0,0.10907622851098608
1051.0,0.10929960230112479
1050.0,0.10969078310005154
1049.0,0.11030620855581463
1048.0,0.11086644403327606
1047.0,0.11120293254331926
1046.0,0.11125903931710734
1045.0,0.11097857790477517
1044.0,0.11041819785037621
1043.0,0.10957898119908571
1042.0,0.10857405715200596
1041.0,0.10734896612269962
1040.0,0.10585015323207791
1039.0,0.10397008760377302
1038.0,0.10182351650232357
1037.0,0.09946901754724413
1036.0,0.09712721455392082
1035.0,0.09479797133768142
1034.0,0.09242742120144909
1033.0,0.09023008526723086
1032.0,0.08820340956274775
1031.0,0.08645104209348209
1030.0,0.08539243222891946
1029.0,0.08560394787021397
1028.0,0.08788427092114603
1027.0,0.09269615116603047
1026.0,0.1005078038618683
1025.0,0.1114835389250548
1024.0,0.1252863112422209
1023.0,0.14128238513970826
1022.0,0.158765704493959
1021.0,0.17672144304832926
1020.0,0.19361649817583237
1019.0,0.20704829174986794
1018.0,0.2145989750076125
1017.0,0.21467016498923286
1016.0,0.20732821085843267
1015.0,0.19422736806433094
1014.0,0.17822453281653639
1013.0,0.16209605540705763
1012.0,0.14764201633217278
1011.0,0.1354889189416082
1010.0,0.12540223129680017
1009.0,0.11724784438692004
1008.0,0.11058623595729111
1007.0,0.10513034325474746
1006.0,0.10061729446673495
1005.0,0.09701860020249709
1004.0,0.09409623378338305
1003.0,0.09156860103399356
1002.0,0.08932224525729482
1001.0,0.0872466963286771
1000.0,0.08539243222891946
999.0,0.08359869639612438
998.0,0.08196966321511989
997.0,0.08045124103115198
996.0,0.07925073872429178
995.0,0.07820951434181311
994.0,0.07732643214144574
993.0,0.07660053384128362
992.0,0.07608277688689435
991.0,0.07577241873988227
990.0,0.0756173227980268
989.0,0.07556563645676939
988.0,0.07551395626608493
987.0,0.07551395626608493
986.0,0.0756173227980268
985.0,0.07592757008963713
984.0,0.07649693305789551
983.0,0.07737832847680104
982.0,0.07852161962430992
981.0,0.07992887570247587
980.0,0.08160266115629988
979.0,0.0833881548906541
978.0,0.08523386307414738
977.0,0.08714052483764512
976.0,0.08889568219596411
975.0,0.09033701484598189
974.0,0.09135416109288674
973.0,0.09189045960744768
972.0,0.09205147838772776
971.0,0.0917295005042762
970.0,0.0908185240221473
969.0,0.08948231448273347
968.0,0.08783110394037297
967.0,0.08592141461088798
966.0,0.0839147001562972
965.0,0.08186477383364066
964.0,0.07977228854307139
963.0,0.07763790321520991
962.0,0.07546228222451012
961.0,0.07340034609297241
960.0,0.07139934015547578
959.0,0.06950943469373039
958.0,0.0678307540792078
957.0,0.06625970050306473
956.0,0.06489597884855036
955.0,0.06363708040225546
954.0,0.06248210798265341
953.0,0.061380218497318895
952.0,0.06028111764589528
951.0,0.05923456436878238
950.0,0.05824018618530458
949.0,0.05734718830678798
948.0,0.05650548409389744
947.0,0.055764156206519866
946.0,0.05507339001378431
945.0,0.05448217792216048
944.0,0.05394093961487645
943.0,0.053449489430144714
942.0,0.05300765925162776
941.0,0.05266432405126009
940.0,0.05237025261564554
939.0,0.052027420754219955
938.0,0.05163594401163074
937.0,0.051244819831730126
936.0,0.050902874887084115
935.0,0.050463626623857394
934.0,0.05002482217034632
933.0,0.04958646063061889
932.0,0.049245818406496555
931.0,0.048954051864180226
930.0,0.0486139051197072
929.0,0.048225491918274965
928.0,0.04774046340917959
927.0,0.04720755695590784
926.0,0.04672366333269573
925.0,0.04633693625290869
924.0,0.046047116768076934
923.0,0.04585401117045196
922.0,0.045612749855485024
921.0,0.045323413081356456
920.0,0.044986096961949995
919.0,0.04464904263234004
918.0,0.04426415772233416
917.0,0.0439276630048171
916.0,0.043735497301724546
915.0,0.04368746915880539
914.0,0.04383156952463674
913.0,0.044071843103049346
912.0,0.04450467081587295
911.0,0.04503426894157925
910.0,0.04575749056067524
909.0,0.04657860031896477
908.0,0.04740126547022694
907.0,0.048225491918274965
906.0,0.049148541111453614
905.0,0.05026854768429301
904.0,0.05148923116234294
903.0,0.05261529831525902
902.0,0.05354773498692689
901.0,0.05433450056786593
900.0,0.0549255115212699
899.0,0.05531996611868961
898.0,0.05541863577307371
897.0,0.055270639696704205
896.0,0.0549747987575373
895.0,0.05453141486818014
894.0,0.054186873412661596
893.0,0.05389176956309405
892.0,0.053842605077627725
891.0,0.05394093961487645
890.0,0.054186873412661596
889.0,0.054728418492290265
888.0,0.05571477931124735
887.0,0.05729763111133224
886.0,0.05968277842578207
885.0,0.06293368798257193
884.0,0.06706985716921054
883.0,0.0720140529005715
882.0,0.07784567476894111
881.0,0.08449463824562353
880.0,0.0919441259012328
879.0,0.09996076451267522
878.0,0.10840679565103484
877.0,0.1174754620451195
876.0,0.12726117252733116
875.0,0.13709378643700187
874.0,0.14545106418704923
873.0,0.15015080439474215
872.0,0.14953756723848333
871.0,0.1432711096171173
870.0,0.13318119707395182
869.0,0.12193801870998744
868.0,0.11153968196461372
867.0,0.1028679566179056
866.0,0.09598811640261173
865.0,0.0908185240221473
864.0,0.0870343792958963
863.0,0.08444188458847957
862.0,0.08259953204474924
861.0,0.0812883346176787
860.0,0.08045124103115198
859.0,0.07998108397108505
858.0,0.07972010536705154
857.0,0.07982447798997727
856.0,0.08003329851661278
855.0,0.08034671768963575
854.0,0.08076496207674921
853.0,0.08139308485501817
852.0,0.0823369756726251
851.0,0.08354605145007499
850.0,0.08475850269380558
849.0,0.08581556657675371
848.0,0.0862920860195171
847.0,0.0861331881037608
846.0,0.08533956941077814
845.0,0.08412549714230844
844.0,0.08275714209253371
843.0,0.08113125661901543
842.0,0.07930286553008004
841.0,0.07753405470158659
840.0,0.07587584681417514
839.0,0.07417242537525759
838.0,0.07237303755504598
837.0,0.07047889936889606
836.0,0.06844043290919477
835.0,0.06641148980334699
834.0,0.06444235490698613
833.0,0.06263258248271053
832.0,0.06103020277710969
831.0,0.0595831353183347
830.0,0.058190526991161784
829.0,0.0567528748621382
828.0,0.05541863577307371
827.0,0.05428528594013993
826.0,0.05340037498486727
825.0,0.052762392129333646
824.0,0.05222329153526162
823.0,0.0515870342213991
822.0,0.05095170768433621
821.0,0.050317309204795935
820.0,0.049927370249842395
819.0,0.04968383607539972
818.0,0.04968383607539972
817.0,0.04987865248862655
816.0,0.050073556332087765
815.0,0.05002482217034632
814.0,0.04973253198641148
813.0,0.049294465226138895
812.0,0.04885683989244738
811.0,0.04841965509660828
810.0,0.047982909952573705
809.0,0.047595060422975566
808.0,0.047352830241056854
807.0,0.04720755695590784
806.0,0.04711073508906982
805.0,0.0469171560879138
804.0,0.04653025674659861
803.0,0.04595055323640551
802.0,0.04537162249272897
801.0,0.04488976902944808
800.0,0.04488976902944808
799.0,0.045660991397539874
798.0,0.04754660357696672
797.0,0.05051241005349638
796.0,0.05403929642243144
795.0,0.05729763111133224
794.0,0.0595831353183347
793.0,0.06028111764589528
792.0,0.05938391766259232
791.0,0.0571489934456626
790.0,0.05438372077326825
789.0,0.051684859310652254
788.0,0.049294465226138895
787.0,0.04696554274964315
786.0,0.04474531717982
785.0,0.04263219156847242
784.0,0.04086316882962593
783.0,0.03938654235209116
782.0,0.038151940981675736
781.0,0.03701541568300293
780.0,0.03592902944204468
779.0,0.03484535401307465
778.0,0.03371743783253667
777.0,0.032592443402527316
776.0,0.031657169041054534
775.0,0.03081714076773867
774.0,0.03002526987828502
773.0,0.029281296279810798
772.0,0.028538594975413334
771.0,0.027889771597169544
770.0,0.027195677663422346
769.0,0.026410376572743033
768.0,0.02553436426275746
767.0,0.024660115394541604
766.0,0.023879381700184332
765.0,0.023329119375188556
764.0,0.02291687968414724
763.0,0.02245929405346514
762.0,0.021910826943857264
761.0,0.02140867317992523
760.0,0.020952673052035298
759.0,0.020497151212598652
758.0,0.01995115493504329
757.0,0.01949668180660491
756.0,0.019269623464054586
755.0,0.019269623464054586
754.0,0.01940584422377989
753.0,0.01954210772389997
752.0,0.019769308608968306
751.0,0.02013307743509718
750.0,0.020724852408976924
749.0,0.02140867317992523
748.0,0.022230681908425698
747.0,0.02314585342378117
746.0,0.024522236834125355
745.0,0.026410376572743033
744.0,0.02890978686288448
743.0,0.03217132066984485
742.0,0.03682628362474838
741.0,0.043735497301724546
740.0,0.05325306496641513
739.0,0.06519865825346338
738.0,0.07914650387874067
737.0,0.09479797133768142
736.0,0.11193288659256306
735.0,0.12977172098820566
734.0,0.14782509557969692
733.0,0.16583371605737995
732.0,0.18395765907800343
731.0,0.20238626984692432
730.0,0.2214146721370378
729.0,0.24139085734025634
728.0,0.261774551857495
727.0,0.2807516015520539
726.0,0.29593532059143257
725.0,0.30565808963581875
724.0,0.30891850787703157
723.0,0.3060093895392233
722.0,0.2989503692708604
721.0,0.2902213981517747
720.0,0.28174749990224934
719.0,0.27368038788922466
718.0,0.26552021057442277
717.0,0.2571178285627269
716.0,0.24810531195625263
715.0,0.23829763245858726
714.0,0.22767829327708022
713.0,0.21724080737600282
712.0,0.20753826865304936
711.0,0.1987335295103798
710.0,0.19050762306265812
709.0,0.18283142761894444
708.0,0.17587416608345108
707.0,0.16941133131485575
706.0,0.16323295260579473
705.0,0.15745316350498495
704.0,0.1519957285027318
703.0,0.14672777597931685
702.0,0.14140265500530758
701.0,0.13590442657575252
700.0,0.13024040521758962
699.0,0.12441789567211425
698.0,0.1183871275216517
697.0,0.11238269966426384
696.0,0.10690433390377163
695.0,0.10231793820358015
694.0,0.09859617317474823
693.0,0.09550084460218011
692.0,0.09285746899685954
691.0,0.0908185240221473
690.0,0.08937559511079884
689.0,0.08825662214406838
688.0,0.0870343792958963
687.0,0.08555105930144569
686.0,0.0838620168928248
685.0,0.08223199755224364
684.0,0.08086958613938555
683.0,0.07998108397108505
682.0,0.07961575782164254
681.0,0.07935499859321249
680.0,0.07841755960658348
679.0,0.07628980560343712
678.0,0.07340034609297241
677.0,0.07073438174693436
676.0,0.06874559358358656
675.0,0.06727263269847072
674.0,0.0658551882075229
673.0,0.06408986356949264
672.0,0.061830653609679764
671.0,0.059135024033278416
670.0,0.055961719945581745
669.0,0.053203972728539606
668.0,0.05237025261564554
667.0,0.05281143447390635
666.0,0.05281143447390635
665.0,0.052027420754219955
664.0,0.05100054597304693
663.0,0.050073556332087765
662.0,0.049245818406496555
661.0,0.04827402457540786
660.0,0.04711073508906982
659.0,0.046192002334692894
658.0,0.04585401117045196
657.0,0.04599883231842972
656.0,0.04599883231842972
655.0,0.0454680573730859
654.0,0.04460091336073302
653.0,0.04411991377462465
652.0,0.04411991377462465
651.0,0.04397571771932274
650.0,0.04315950984076644
649.0,0.04200982159316968
648.0,0.041197296600497646
647.0,0.04091088563260792
646.0,0.040958607678906356
645.0,0.04081545726880842
644.0,0.040338629726504704
643.0,0.039719535563357944
642.0,0.03943409718180235
641.0,0.04010041213405646
640.0,0.04138834223512067
639.0,0.042057664554595586
638.0,0.041149548320321694
637.0,0.03967194946985697
636.0,0.03986232513620536
635.0,0.04320747962950522
634.0,0.048565334467987054
633.0,0.05300765925162776
632.0,0.054728418492290265
631.0,0.05403929642243144
630.0,0.05222329153526162
629.0,0.05036607620073763
628.0,0.048954051864180226
627.0,0.04803141550708934
626.0,0.04720755695590784
625.0,0.04599883231842972
624.0,0.04421607108308856
623.0,0.042057664554595586
622.0,0.04014804520039483
621.0,0.03919637508823026
620.0,0.03919637508823026
619.0,0.03905380426616856
618.0,0.03777276864991497
617.0,0.03559892883726867
616.0,0.03423403581731388
615.0,0.03498654972775217
614.0,0.03753595394209874
613.0,0.03995754427315856
612.0,0.040672354027829094
611.0,0.03914884628031379
610.0,0.036401037402758574
609.0,0.03385826726096752
608.0,0.032124554451966825
607.0,0.030770520137356927
606.0,0.029141943003497595
605.0,0.027056991894431892
604.0,0.02484402159331056
603.0,0.02291687968414724
602.0,0.021636852916117055
601.0,0.021271822861508305
600.0,0.021728158389364705
