cm-1,A
4000.0,0.010416710688994968
3999.0,0.01037222925484893
3998.0,0.01037222925484893
3997.0,0.01037222925484893
3996.0,0.01037222925484893
3995.0,0.01037222925484893
3994.0,0.01037222925484893
3993.0,0.01037222925484893
3992.0,0.010327752376126709
3991.0,0.010283280051895272
3990.0,0.010327752376126709
3989.0,0.01037222925484893
3988.0,0.01046119667949763
3987.0,0.010505687227290839
3986.0,0.010505687227290839
3985.0,0.01046119667949763
3984.0,0.010416710688994968
3983.0,0.010327752376126709
3982.0,0.010327752376126709
3981.0,0.010327752376126709
3980.0,0.01037222925484893
3979.0,0.010416710688994968
3978.0,0.01046119667949763
3977.0,0.010505687227290839
3976.0,0.010505687227290839
3975.0,0.010505687227290839
3974.0,0.010505687227290839
3973.0,0.010505687227290839
3972.0,0.010550182333308289
3971.0,0.010594681998483901
3970.0,0.010594681998483901
3969.0,0.010550182333308289
3968.0,0.010505687227290839
3967.0,0.010505687227290839
3966.0,0.010550182333308289
3965.0,0.010550182333308289
3964.0,0.010505687227290839
3963.0,0.01046119667949763
3962.0,0.01037222925484893
3961.0,0.010327752376126709
3960.0,0.010327752376126709
3959.0,0.01037222925484893
3958.0,0.010416710688994968
3957.0,0.010416710688994968
3956.0,0.010416710688994968
3955.0,0.01046119667949763
3954.0,0.010505687227290839
3953.0,0.010550182333308289
3952.0,0.010550182333308289
3951.0,0.010505687227290839
3950.0,0.01046119667949763
3949.0,0.01037222925484893
3948.0,0.01023881228122181
3947.0,0.010149890396819572
3946.0,0.010105436281226954
3945.0,0.010149890396819572
3944.0,0.01023881228122181
3943.0,0.010283280051895272
3942.0,0.010327752376126709
3941.0,0.01037222925484893
3940.0,0.010505687227290839
3939.0,0.010639186223752484
3938.0,0.01077272626946324
3937.0,0.01077272626946324
3936.0,0.010683695010048622
3935.0,0.010594681998483901
3934.0,0.010550182333308289
3933.0,0.010505687227290839
3932.0,0.01046119667949763
3931.0,0.010416710688994968
3930.0,0.01037222925484893
3929.0,0.010327752376126709
3928.0,0.010283280051895272
3927.0,0.010283280051895272
3926.0,0.010283280051895272
3925.0,0.01023881228122181
3924.0,0.01023881228122181
3923.0,0.010194349063173958
3922.0,0.01023881228122181
3921.0,0.010327752376126709
3920.0,0.01037222925484893
3919.0,0.01037222925484893
3918.0,0.010416710688994968
3917.0,0.010505687227290839
3916.0,0.010594681998483901
3915.0,0.010683695010048622
3914.0,0.01086177578421088
3913.0,0.010995384301463185
3912.0,0.011084479487313281
3911.0,0.010995384301463185
3910.0,0.01086177578421088
3909.0,0.010639186223752484
3908.0,0.010416710688994968
3907.0,0.010283280051895272
3906.0,0.010149890396819572
3905.0,0.010105436281226954
3904.0,0.009972101229705377
3903.0,0.009838807101520963
3902.0,0.009794384815193347
3901.0,0.009927665307847056
3900.0,0.010149890396819572
3899.0,0.010283280051895272
3898.0,0.010327752376126709
3897.0,0.010327752376126709
3896.0,0.01037222925484893
3895.0,0.01037222925484893
3894.0,0.01037222925484893
3893.0,0.01046119667949763
3892.0,0.010550182333308289
3891.0,0.010505687227290839
3890.0,0.010327752376126709
3889.0,0.010283280051895272
3888.0,0.01046119667949763
3887.0,0.010683695010048622
3886.0,0.010728208358306901
3885.0,0.010505687227290839
3884.0,0.01023881228122181
3883.0,0.010194349063173958
3882.0,0.01037222925484893
3881.0,0.010505687227290839
3880.0,0.01046119667949763
3879.0,0.010283280051895272
3878.0,0.010194349063173958
3877.0,0.010327752376126709
3876.0,0.01046119667949763
3875.0,0.01046119667949763
3874.0,0.010283280051895272
3873.0,0.010060986715464404
3872.0,0.01001654169860089
3871.0,0.01023881228122181
3870.0,0.01037222925484893
3869.0,0.01037222925484893
3868.0,0.010327752376126709
3867.0,0.010594681998483901
3866.0,0.01086177578421088
3865.0,0.010950843561779777
3864.0,0.010817248744452446
3863.0,0.010683695010048622
3862.0,0.010683695010048622
3861.0,0.010683695010048622
3860.0,0.010683695010048622
3859.0,0.010550182333308289
3858.0,0.010416710688994968
3857.0,0.010283280051895272
3856.0,0.010283280051895272
3855.0,0.010550182333308289
3854.0,0.010817248744452446
3853.0,0.01077272626946324
3852.0,0.010550182333308289
3851.0,0.010728208358306901
3850.0,0.01117359295472431
3849.0,0.011441043121384498
3848.0,0.011351874764248926
3847.0,0.011129033935354915
3846.0,0.010906307389674463
3845.0,0.010683695010048622
3844.0,0.010505687227290839
3843.0,0.010283280051895272
3842.0,0.010060986715464404
3841.0,0.01001654169860089
3840.0,0.010149890396819572
3839.0,0.010327752376126709
3838.0,0.010505687227290839
3837.0,0.010594681998483901
3836.0,0.01077272626946324
3835.0,0.011039929609661936
3834.0,0.011262724711199823
3833.0,0.011351874764248926
3832.0,0.011218156546359825
3831.0,0.011039929609661936
3830.0,0.01086177578421088
3829.0,0.010817248744452446
3828.0,0.01086177578421088
3827.0,0.01086177578421088
3826.0,0.010683695010048622
3825.0,0.010416710688994968
3824.0,0.01023881228122181
3823.0,0.010327752376126709
3822.0,0.010683695010048622
3821.0,0.01086177578421088
3820.0,0.010639186223752484
3819.0,0.010550182333308289
3818.0,0.01086177578421088
3817.0,0.011307297450183107
3816.0,0.011574829993696856
3815.0,0.011530229790124524
3814.0,0.011441043121384498
3813.0,0.011530229790124524
3812.0,0.011574829993696856
3811.0,0.011441043121384498
3810.0,0.01117359295472431
3809.0,0.011084479487313281
3808.0,0.01117359295472431
3807.0,0.01117359295472431
3806.0,0.010950843561779777
3805.0,0.010683695010048622
3804.0,0.010683695010048622
3803.0,0.01086177578421088
3802.0,0.011084479487313281
3801.0,0.010995384301463185
3800.0,0.010817248744452446
3799.0,0.010906307389674463
3798.0,0.011262724711199823
3797.0,0.011530229790124524
3796.0,0.011530229790124524
3795.0,0.011441043121384498
3794.0,0.011441043121384498
3793.0,0.011574829993696856
3792.0,0.011664044143949504
3791.0,0.011708658092512314
3790.0,0.011664044143949504
3789.0,0.011574829993696856
3788.0,0.011530229790124524
3787.0,0.011485634166333858
3786.0,0.011441043121384498
3785.0,0.011396456654336085
3784.0,0.011307297450183107
3783.0,0.011218156546359825
3782.0,0.011218156546359825
3781.0,0.011307297450183107
3780.0,0.011441043121384498
3779.0,0.011485634166333858
3778.0,0.011485634166333858
3777.0,0.011530229790124524
3776.0,0.011619434777991433
3775.0,0.011664044143949504
3774.0,0.011574829993696856
3773.0,0.011441043121384498
3772.0,0.011351874764248926
3771.0,0.011351874764248926
3770.0,0.011351874764248926
3769.0,0.011262724711199823
3768.0,0.011218156546359825
3767.0,0.011351874764248926
3766.0,0.011485634166333858
3765.0,0.011530229790124524
3764.0,0.011396456654336085
3763.0,0.011262724711199823
3762.0,0.01117359295472431
3761.0,0.011129033935354915
3760.0,0.011084479487313281
3759.0,0.011129033935354915
3758.0,0.011129033935354915
3757.0,0.011129033935354915
3756.0,0.011084479487313281
3755.0,0.010950843561779777
3754.0,0.01077272626946324
3753.0,0.010550182333308289
3752.0,0.010550182333308289
3751.0,0.01086177578421088
3750.0,0.011129033935354915
3749.0,0.011129033935354915
3748.0,0.011129033935354915
3747.0,0.011218156546359825
3746.0,0.011530229790124524
3745.0,0.011842527443247208
3744.0,0.011708658092512314
3743.0,0.011262724711199823
3742.0,0.01117359295472431
3741.0,0.011218156546359825
3740.0,0.011084479487313281
3739.0,0.010728208358306901
3738.0,0.01046119667949763
3737.0,0.010505687227290839
3736.0,0.010683695010048622
3735.0,0.010683695010048622
3734.0,0.010505687227290839
3733.0,0.01046119667949763
3732.0,0.010505687227290839
3731.0,0.010639186223752484
3730.0,0.010817248744452446
3729.0,0.011039929609661936
3728.0,0.011129033935354915
3727.0,0.011084479487313281
3726.0,0.01086177578421088
3725.0,0.010683695010048622
3724.0,0.010639186223752484
3723.0,0.010728208358306901
3722.0,0.010817248744452446
3721.0,0.010906307389674463
3720.0,0.011039929609661936
3719.0,0.011218156546359825
3718.0,0.011307297450183107
3717.0,0.011262724711199823
3716.0,0.011084479487313281
3715.0,0.01086177578421088
3714.0,0.010683695010048622
3713.0,0.010639186223752484
3712.0,0.01086177578421088
3711.0,0.011084479487313281
3710.0,0.01117359295472431
3709.0,0.011262724711199823
3708.0,0.011351874764248926
3707.0,0.011396456654336085
3706.0,0.011351874764248926
3705.0,0.011351874764248926
3704.0,0.011351874764248926
3703.0,0.011441043121384498
3702.0,0.011441043121384498
3701.0,0.011351874764248926
3700.0,0.011218156546359825
3699.0,0.01117359295472431
3698.0,0.011218156546359825
3697.0,0.011262724711199823
3696.0,0.011218156546359825
3695.0,0.011084479487313281
3694.0,0.010950843561779777
3693.0,0.01086177578421088
3692.0,0.010817248744452446
3691.0,0.010995384301463185
3690.0,0.011307297450183107
3689.0,0.011619434777991433
3688.0,0.011753276624621556
3687.0,0.011842527443247208
3686.0,0.012065734767841452
3685.0,0.012289056869694281
3684.0,0.012333735073725371
3683.0,0.012199714248127602
3682.0,0.0119764380713403
3681.0,0.011753276624621556
3680.0,0.011441043121384498
3679.0,0.011129033935354915
3678.0,0.010995384301463185
3677.0,0.011218156546359825
3676.0,0.011619434777991433
3675.0,0.011664044143949504
3674.0,0.011396456654336085
3673.0,0.011396456654336085
3672.0,0.011708658092512314
3671.0,0.012021084124518078
3670.0,0.012244383261476699
3669.0,0.012244383261476699
3668.0,0.012244383261476699
3667.0,0.012467797270160563
3666.0,0.012736045877764557
3665.0,0.012825498912458322
3664.0,0.012825498912458322
3663.0,0.012825498912458322
3662.0,0.012825498912458322
3661.0,0.012825498912458322
3660.0,0.012780770091995297
3659.0,0.012780770091995297
3658.0,0.012870232340102872
3657.0,0.013049212141483357
3656.0,0.013093968619278806
3655.0,0.013004460275618523
3654.0,0.012825498912458322
3653.0,0.01264661126420652
3652.0,0.012333735073725371
3651.0,0.012065734767841452
3650.0,0.012065734767841452
3649.0,0.012333735073725371
3648.0,0.01264661126420652
3647.0,0.013004460275618523
3646.0,0.013407393177789162
3645.0,0.013765869865004277
3644.0,0.01403492169512921
3643.0,0.014214382227394795
3642.0,0.014304140310157809
3641.0,0.014304140310157809
3640.0,0.014304140310157809
3639.0,0.014304140310157809
3638.0,0.014349026309051105
3637.0,0.014349026309051105
3636.0,0.014393916947563534
3635.0,0.014393916947563534
3634.0,0.014304140310157809
3633.0,0.01403492169512921
3632.0,0.01385553528947936
3631.0,0.01385553528947936
3630.0,0.014169510141607944
3629.0,0.014573525916998342
3628.0,0.014618439768003144
3627.0,0.014573525916998342
3626.0,0.014798141635428141
3625.0,0.015022873584506602
3624.0,0.015022873584506602
3623.0,0.014798141635428141
3622.0,0.014663358264387139
3621.0,0.014618439768003144
3620.0,0.014618439768003144
3619.0,0.014573525916998342
3618.0,0.014438812226654996
3617.0,0.014349026309051105
3616.0,0.014438812226654996
3615.0,0.014663358264387139
3614.0,0.014798141635428141
3613.0,0.014843078722943437
3612.0,0.014798141635428141
3611.0,0.014753209197138295
3610.0,0.014843078722943437
3609.0,0.014932966849499074
3608.0,0.015022873584506602
3607.0,0.015067833932588037
3606.0,0.015112798935672522
3605.0,0.015202742910707112
3604.0,0.015247721884586563
3603.0,0.015247721884586563
3602.0,0.015157768594724175
3601.0,0.015067833932588037
3600.0,0.014932966849499074
3599.0,0.014843078722943437
3598.0,0.014843078722943437
3597.0,0.014888020460646079
3596.0,0.014977917890464765
3595.0,0.014977917890464765
3594.0,0.014977917890464765
3593.0,0.014932966849499074
3592.0,0.014932966849499074
3591.0,0.014932966849499074
3590.0,0.014932966849499074
3589.0,0.015022873584506602
3588.0,0.015157768594724175
3587.0,0.015157768594724175
3586.0,0.015067833932588037
3585.0,0.015112798935672522
3584.0,0.015247721884586563
3583.0,0.01547268665620738
3582.0,0.015652742414136167
3581.0,0.01578783323856614
3580.0,0.015877917138889863
3579.0,0.01596801972881945
3578.0,0.01596801972881945
3577.0,0.01596801972881945
3576.0,0.016013078034810446
3575.0,0.016058141016111804
3574.0,0.016058141016111804
3573.0,0.016013078034810446
3572.0,0.01596801972881945
3571.0,0.015922966097169144
3570.0,0.015877917138889863
3569.0,0.015877917138889863
3568.0,0.01596801972881945
3567.0,0.016103208673694303
3566.0,0.016058141016111804
3565.0,0.016058141016111804
3564.0,0.016148281008528276
3563.0,0.01632861713980338
3562.0,0.016554142658660398
3561.0,0.016734647433454652
3560.0,0.016870075265299933
3559.0,0.017005545341335804
3558.0,0.017050711425501408
3557.0,0.017050711425501408
3556.0,0.016960383953898095
3555.0,0.016870075265299933
3554.0,0.016870075265299933
3553.0,0.016960383953898095
3552.0,0.017050711425501408
3551.0,0.017095882207371904
3550.0,0.017141057687924732
3549.0,0.017141057687924732
3548.0,0.017095882207371904
3547.0,0.017095882207371904
3546.0,0.017095882207371904
3545.0,0.017186237868137555
3544.0,0.017231422748988034
3543.0,0.01727661233145472
3542.0,0.01727661233145472
3541.0,0.017231422748988034
3540.0,0.017141057687924732
3539.0,0.017095882207371904
3538.0,0.017095882207371904
3537.0,0.017186237868137555
3536.0,0.017231422748988034
3535.0,0.017231422748988034
3534.0,0.017186237868137555
3533.0,0.017186237868137555
3532.0,0.017141057687924732
3531.0,0.017095882207371904
3530.0,0.017005545341335804
3529.0,0.016960383953898095
3528.0,0.016870075265299933
3527.0,0.01677978535189717
3526.0,0.016689514205884493
3525.0,0.016644385668211692
3524.0,0.016599261819461697
3523.0,0.016644385668211692
3522.0,0.016644385668211692
3521.0,0.016689514205884493
3520.0,0.016734647433454652
3519.0,0.01677978535189717
3518.0,0.016824927962187042
3517.0,0.016824927962187042
3516.0,0.01677978535189717
3515.0,0.01677978535189717
3514.0,0.016734647433454652
3513.0,0.016689514205884493
3512.0,0.016644385668211692
3511.0,0.016644385668211692
3510.0,0.016599261819461697
3509.0,0.016554142658660398
3508.0,0.016554142658660398
3507.0,0.016599261819461697
3506.0,0.016689514205884493
3505.0,0.016870075265299933
3504.0,0.017005545341335804
3503.0,0.017050711425501408
3502.0,0.016915227262211507
3501.0,0.01677978535189717
3500.0,0.016644385668211692
3499.0,0.016554142658660398
3498.0,0.016554142658660398
3497.0,0.016554142658660398
3496.0,0.016599261819461697
3495.0,0.016644385668211692
3494.0,0.016644385668211692
3493.0,0.016644385668211692
3492.0,0.016599261819461697
3491.0,0.016554142658660398
3490.0,0.01646391839700767
3489.0,0.016373712875465518
3488.0,0.01632861713980338
3487.0,0.01628352608625061
3486.0,0.01632861713980338
3485.0,0.01632861713980338
3484.0,0.016373712875465518
3483.0,0.016418813294209356
3482.0,0.01646391839700767
3481.0,0.016509028184833463
3480.0,0.016599261819461697
3479.0,0.016734647433454652
3478.0,0.01677978535189717
3477.0,0.016824927962187042
3476.0,0.016824927962187042
3475.0,0.01677978535189717
3474.0,0.016734647433454652
3473.0,0.016734647433454652
3472.0,0.01677978535189717
3471.0,0.01677978535189717
3470.0,0.01677978535189717
3469.0,0.01677978535189717
3468.0,0.016824927962187042
3467.0,0.016870075265299933
3466.0,0.016960383953898095
3465.0,0.017050711425501408
3464.0,0.017095882207371904
3463.0,0.017095882207371904
3462.0,0.017050711425501408
3461.0,0.017050711425501408
3460.0,0.017141057687924732
3459.0,0.017321806616515723
3458.0,0.017502630802287644
3457.0,0.017638298366853045
3456.0,0.017728766960431575
3455.0,0.017774008325325275
3454.0,0.01781925440359733
3453.0,0.01781925440359733
3452.0,0.01781925440359733
3451.0,0.017774008325325275
3450.0,0.017774008325325275
3449.0,0.01781925440359733
3448.0,0.017909760704207134
3447.0,0.018045555530026514
3446.0,0.018136109008649592
3445.0,0.018226681372252695
3444.0,0.01831727262871463
3443.0,0.01845319495476394
3442.0,0.01858915983411169
3441.0,0.018770512579999288
3440.0,0.018951941086827073
3439.0,0.0190880622231564
3438.0,0.019178833355664393
3437.0,0.019178833355664393
3436.0,0.019178833355664393
3435.0,0.0192242260373785
3434.0,0.019269623464054586
3433.0,0.019315025636685412
3432.0,0.01940584422377989
3431.0,0.01949668180660491
3430.0,0.01954210772389997
3429.0,0.01958753839310856
3428.0,0.01954210772389997
3427.0,0.019451260640229506
3426.0,0.019315025636685412
3425.0,0.019178833355664393
3424.0,0.019133445417920836
3423.0,0.019133445417920836
3422.0,0.019178833355664393
3421.0,0.0190880622231564
3420.0,0.018951941086827073
3419.0,0.018725167293411005
3418.0,0.01845319495476394
3417.0,0.018181392829336396
3416.0,0.01800028587012159
3415.0,0.017864505196230507
3414.0,0.017774008325325275
3413.0,0.017728766960431575
3412.0,0.017638298366853045
3411.0,0.017502630802287644
3410.0,0.017412209298337533
3409.0,0.017321806616515723
3408.0,0.017321806616515723
3407.0,0.017367005605150476
3406.0,0.017321806616515723
3405.0,0.017231422748988034
3404.0,0.017141057687924732
3403.0,0.017050711425501408
3402.0,0.017005545341335804
3401.0,0.017050711425501408
3400.0,0.017095882207371904
3399.0,0.017095882207371904
3398.0,0.017141057687924732
3397.0,0.017095882207371904
3396.0,0.016960383953898095
3395.0,0.016870075265299933
3394.0,0.01677978535189717
3393.0,0.01677978535189717
3392.0,0.016734647433454652
3391.0,0.016689514205884493
3390.0,0.016599261819461697
3389.0,0.016599261819461697
3388.0,0.016689514205884493
3387.0,0.01677978535189717
3386.0,0.016870075265299933
3385.0,0.016824927962187042
3384.0,0.01677978535189717
3383.0,0.016644385668211692
3382.0,0.016554142658660398
3381.0,0.016509028184833463
3380.0,0.016418813294209356
3379.0,0.016373712875465518
3378.0,0.016373712875465518
3377.0,0.016373712875465518
3376.0,0.016373712875465518
3375.0,0.016418813294209356
3374.0,0.01646391839700767
3373.0,0.01646391839700767
3372.0,0.016509028184833463
3371.0,0.01646391839700767
3370.0,0.016373712875465518
3369.0,0.01632861713980338
3368.0,0.016238439713835096
3367.0,0.016238439713835096
3366.0,0.016238439713835096
3365.0,0.016238439713835096
3364.0,0.01628352608625061
3363.0,0.01628352608625061
3362.0,0.01632861713980338
3361.0,0.01632861713980338
3360.0,0.01632861713980338
3359.0,0.01632861713980338
3358.0,0.01632861713980338
3357.0,0.016238439713835096
3356.0,0.016238439713835096
3355.0,0.016193358021584725
3354.0,0.016193358021584725
3353.0,0.016193358021584725
3352.0,0.016148281008528276
3351.0,0.016148281008528276
3350.0,0.016148281008528276
3349.0,0.016148281008528276
3348.0,0.016238439713835096
3347.0,0.016238439713835096
3346.0,0.01628352608625061
3345.0,0.016238439713835096
3344.0,0.016193358021584725
3343.0,0.016148281008528276
3342.0,0.016058141016111804
3341.0,0.016013078034810446
3340.0,0.01596801972881945
3339.0,0.016013078034810446
3338.0,0.016148281008528276
3337.0,0.01628352608625061
3336.0,0.016373712875465518
3335.0,0.016373712875465518
3334.0,0.01628352608625061
3333.0,0.016148281008528276
3332.0,0.016103208673694303
3331.0,0.016103208673694303
3330.0,0.016103208673694303
3329.0,0.016058141016111804
3328.0,0.016058141016111804
3327.0,0.016058141016111804
3326.0,0.016103208673694303
3325.0,0.016103208673694303
3324.0,0.016103208673694303
3323.0,0.016103208673694303
3322.0,0.016103208673694303
3321.0,0.016103208673694303
3320.0,0.016103208673694303
3319.0,0.016103208673694303
3318.0,0.016013078034810446
3317.0,0.015922966097169144
3316.0,0.015832872853011715
3315.0,0.01578783323856614
3314.0,0.015742798294583915
3313.0,0.01578783323856614
3312.0,0.01578783323856614
3311.0,0.015742798294583915
3310.0,0.015742798294583915
3309.0,0.015742798294583915
3308.0,0.01578783323856614
3307.0,0.015832872853011715
3306.0,0.015877917138889863
3305.0,0.015877917138889863
3304.0,0.015832872853011715
3303.0,0.015877917138889863
3302.0,0.015922966097169144
3301.0,0.016013078034810446
3300.0,0.016058141016111804
3299.0,0.016103208673694303
3298.0,0.016058141016111804
3297.0,0.01596801972881945
3296.0,0.015877917138889863
3295.0,0.015877917138889863
3294.0,0.015922966097169144
3293.0,0.016013078034810446
3292.0,0.016058141016111804
3291.0,0.016058141016111804
3290.0,0.016013078034810446
3289.0,0.015922966097169144
3288.0,0.015877917138889863
3287.0,0.015877917138889863
3286.0,0.015832872853011715
3285.0,0.015742798294583915
3284.0,0.015697768020096703
3283.0,0.015652742414136167
3282.0,0.015652742414136167
3281.0,0.015697768020096703
3280.0,0.015697768020096703
3279.0,0.015607721475734415
3278.0,0.015517693597737248
3277.0,0.01538268676325183
3276.0,0.015337693809893471
3275.0,0.015427684378367834
3274.0,0.015607721475734415
3273.0,0.01578783323856614
3272.0,0.015877917138889863
3271.0,0.015877917138889863
3270.0,0.01578783323856614
3269.0,0.015652742414136167
3268.0,0.015562705203923999
3267.0,0.015517693597737248
3266.0,0.01547268665620738
3265.0,0.015427684378367834
3264.0,0.015427684378367834
3263.0,0.01547268665620738
3262.0,0.015517693597737248
3261.0,0.015517693597737248
3260.0,0.01547268665620738
3259.0,0.01538268676325183
3258.0,0.015337693809893471
3257.0,0.015337693809893471
3256.0,0.01538268676325183
3255.0,0.015427684378367834
3254.0,0.015427684378367834
3253.0,0.01538268676325183
3252.0,0.01538268676325183
3251.0,0.015427684378367834
3250.0,0.015427684378367834
3249.0,0.01538268676325183
3248.0,0.015337693809893471
3247.0,0.015292705517326866
3246.0,0.015247721884586563
3245.0,0.015247721884586563
3244.0,0.015247721884586563
3243.0,0.015247721884586563
3242.0,0.015247721884586563
3241.0,0.015157768594724175
3240.0,0.015112798935672522
3239.0,0.015112798935672522
3238.0,0.015157768594724175
3237.0,0.015202742910707112
3236.0,0.015292705517326866
3235.0,0.015427684378367834
3234.0,0.01547268665620738
3233.0,0.015517693597737248
3232.0,0.015427684378367834
3231.0,0.015292705517326866
3230.0,0.015112798935672522
3229.0,0.014977917890464765
3228.0,0.014888020460646079
3227.0,0.014932966849499074
3226.0,0.014977917890464765
3225.0,0.015022873584506602
3224.0,0.015022873584506602
3223.0,0.015022873584506602
3222.0,0.014977917890464765
3221.0,0.015022873584506602
3220.0,0.015112798935672522
3219.0,0.015202742910707112
3218.0,0.015247721884586563
3217.0,0.015247721884586563
3216.0,0.015157768594724175
3215.0,0.015112798935672522
3214.0,0.015157768594724175
3213.0,0.015157768594724175
3212.0,0.015202742910707112
3211.0,0.015202742910707112
3210.0,0.015202742910707112
3209.0,0.015112798935672522
3208.0,0.014977917890464765
3207.0,0.014888020460646079
3206.0,0.014798141635428141
3205.0,0.014708281407112
3204.0,0.014618439768003144
3203.0,0.01452861671041239
3202.0,0.0144837121472845
3201.0,0.01452861671041239
3200.0,0.014663358264387139
3199.0,0.014843078722943437
3198.0,0.014977917890464765
3197.0,0.015067833932588037
3196.0,0.015067833932588037
3195.0,0.014977917890464765
3194.0,0.014888020460646079
3193.0,0.014843078722943437
3192.0,0.014843078722943437
3191.0,0.014977917890464765
3190.0,0.015067833932588037
3189.0,0.015112798935672522
3188.0,0.015067833932588037
3187.0,0.015022873584506602
3186.0,0.014932966849499074
3185.0,0.014888020460646079
3184.0,0.014798141635428141
3183.0,0.014663358264387139
3182.0,0.014573525916998342
3181.0,0.01452861671041239
3180.0,0.01452861671041239
3179.0,0.014573525916998342
3178.0,0.014618439768003144
3177.0,0.014618439768003144
3176.0,0.014663358264387139
3175.0,0.014708281407112
3174.0,0.014753209197138295
3173.0,0.014798141635428141
3172.0,0.014798141635428141
3171.0,0.014798141635428141
3170.0,0.014753209197138295
3169.0,0.014708281407112
3168.0,0.014663358264387139
3167.0,0.014663358264387139
3166.0,0.014708281407112
3165.0,0.014708281407112
3164.0,0.014663358264387139
3163.0,0.014618439768003144
3162.0,0.014573525916998342
3161.0,0.014573525916998342
3160.0,0.014573525916998342
3159.0,0.014573525916998342
3158.0,0.014618439768003144
3157.0,0.014618439768003144
3156.0,0.014573525916998342
3155.0,0.01452861671041239
3154.0,0.01452861671041239
3153.0,0.01452861671041239
3152.0,0.014573525916998342
3151.0,0.014618439768003144
3150.0,0.014618439768003144
3149.0,0.014573525916998342
3148.0,0.014573525916998342
3147.0,0.01452861671041239
3146.0,0.014573525916998342
3145.0,0.014618439768003144
3144.0,0.014663358264387139
3143.0,0.014708281407112
3142.0,0.014663358264387139
3141.0,0.014663358264387139
3140.0,0.014708281407112
3139.0,0.014798141635428141
3138.0,0.014888020460646079
3137.0,0.014977917890464765
3136.0,0.015067833932588037
3135.0,0.015202742910707112
3134.0,0.015292705517326866
3133.0,0.015292705517326866
3132.0,0.015292705517326866
3131.0,0.015292705517326866
3130.0,0.015292705517326866
3129.0,0.015292705517326866
3128.0,0.015202742910707112
3127.0,0.015112798935672522
3126.0,0.015067833932588037
3125.0,0.015022873584506602
3124.0,0.015022873584506602
3123.0,0.015067833932588037
3122.0,0.015067833932588037
3121.0,0.015022873584506602
3120.0,0.014977917890464765
3119.0,0.014888020460646079
3118.0,0.014888020460646079
3117.0,0.014977917890464765
3116.0,0.015157768594724175
3115.0,0.015337693809893471
3114.0,0.01547268665620738
3113.0,0.015607721475734415
3112.0,0.015742798294583915
3111.0,0.015832872853011715
3110.0,0.015877917138889863
3109.0,0.01596801972881945
3108.0,0.016058141016111804
3107.0,0.016148281008528276
3106.0,0.016193358021584725
3105.0,0.016148281008528276
3104.0,0.016058141016111804
3103.0,0.015922966097169144
3102.0,0.015832872853011715
3101.0,0.01578783323856614
3100.0,0.01578783323856614
3099.0,0.015742798294583915
3098.0,0.015697768020096703
3097.0,0.015607721475734415
3096.0,0.015562705203923999
3095.0,0.015517693597737248
3094.0,0.015562705203923999
3093.0,0.015607721475734415
3092.0,0.015652742414136167
3091.0,0.015697768020096703
3090.0,0.015742798294583915
3089.0,0.015877917138889863
3088.0,0.016013078034810446
3087.0,0.016193358021584725
3086.0,0.01632861713980338
3085.0,0.01646391839700767
3084.0,0.016599261819461697
3083.0,0.016689514205884493
3082.0,0.016689514205884493
3081.0,0.016644385668211692
3080.0,0.016599261819461697
3079.0,0.016554142658660398
3078.0,0.016554142658660398
3077.0,0.016554142658660398
3076.0,0.016599261819461697
3075.0,0.016644385668211692
3074.0,0.016644385668211692
3073.0,0.016644385668211692
3072.0,0.016644385668211692
3071.0,0.016644385668211692
3070.0,0.016599261819461697
3069.0,0.016599261819461697
3068.0,0.016554142658660398
3067.0,0.016554142658660398
3066.0,0.016599261819461697
3065.0,0.016644385668211692
3064.0,0.016689514205884493
3063.0,0.016689514205884493
3062.0,0.016644385668211692
3061.0,0.016689514205884493
3060.0,0.016734647433454652
3059.0,0.016824927962187042
3058.0,0.016915227262211507
3057.0,0.017005545341335804
3056.0,0.017050711425501408
3055.0,0.017005545341335804
3054.0,0.016915227262211507
3053.0,0.016734647433454652
3052.0,0.016554142658660398
3051.0,0.01632861713980338
3050.0,0.016058141016111804
3049.0,0.015832872853011715
3048.0,0.015652742414136167
3047.0,0.015427684378367834
3046.0,0.015202742910707112
3045.0,0.014977917890464765
3044.0,0.014798141635428141
3043.0,0.014663358264387139
3042.0,0.014573525916998342
3041.0,0.0144837121472845
3040.0,0.014393916947563534
3039.0,0.014304140310157809
3038.0,0.014304140310157809
3037.0,0.014304140310157809
3036.0,0.014304140310157809
3035.0,0.014304140310157809
3034.0,0.014304140310157809
3033.0,0.014304140310157809
3032.0,0.014304140310157809
3031.0,0.014259258949925524
3030.0,0.014214382227394795
3029.0,0.014169510141607944
3028.0,0.014214382227394795
3027.0,0.014259258949925524
3026.0,0.014393916947563534
3025.0,0.0144837121472845
3024.0,0.014573525916998342
3023.0,0.014663358264387139
3022.0,0.014798141635428141
3021.0,0.014932966849499074
3020.0,0.015067833932588037
3019.0,0.015292705517326866
3018.0,0.015517693597737248
3017.0,0.015697768020096703
3016.0,0.015877917138889863
3015.0,0.016058141016111804
3014.0,0.016148281008528276
3013.0,0.01628352608625061
3012.0,0.016373712875465518
3011.0,0.016554142658660398
3010.0,0.016824927962187042
3009.0,0.017095882207371904
3008.0,0.017367005605150476
3007.0,0.01759307113620534
3006.0,0.017728766960431575
3005.0,0.017864505196230507
3004.0,0.017955020928509757
3003.0,0.01809082990920774
3002.0,0.018181392829336396
3001.0,0.01831727262871463
3000.0,0.01840788278591865
2999.0,0.018498511851753108
2998.0,0.018634490921455527
2997.0,0.018725167293411005
2996.0,0.018861217359339655
2995.0,0.01899731005860028
2994.0,0.019178833355664393
2993.0,0.019315025636685412
2992.0,0.01940584422377989
2991.0,0.01949668180660491
2990.0,0.019632973815224997
2989.0,0.01990568621470623
2988.0,0.02022406727031445
2987.0,0.020542681902151694
2986.0,0.020907099361673565
2985.0,0.0211806132671577
2984.0,0.021499930688540836
2983.0,0.021910826943857264
2982.0,0.022322112326006227
2981.0,0.02282532397981263
2980.0,0.023374947949272418
2979.0,0.023879381700184332
2978.0,0.024430342106337877
2977.0,0.024936003904763915
2976.0,0.02539620791296726
2975.0,0.025856900097785074
2974.0,0.026225806029419818
2973.0,0.02654885597506529
2972.0,0.02682594731702781
2971.0,0.027056991894431892
2970.0,0.02724191609646076
2969.0,0.027426919073445077
2968.0,0.027565723042634938
2967.0,0.0277045713888604
2966.0,0.027797161620935595
2965.0,0.027797161620935595
2964.0,0.027750864037404455
2963.0,0.027658283674251827
2962.0,0.02747318213414429
2961.0,0.02724191609646076
2960.0,0.027010773144651168
2959.0,0.02677975314776626
2958.0,0.02654885597506529
2957.0,0.026271941311972746
2956.0,0.025902996205869
2955.0,0.025488307262671706
2954.0,0.02512002699306959
2953.0,0.024706084643793647
2952.0,0.024292536462819925
2951.0,0.023879381700184332
2950.0,0.023466619608062178
2949.0,0.02296266477531872
2948.0,0.022413561996148967
2947.0,0.021956506090037076
2946.0,0.021545566634771474
2945.0,0.02122621566987748
2944.0,0.020861530453190058
2943.0,0.020542681902151694
2942.0,0.020178569969774962
2941.0,0.01990568621470623
2940.0,0.019678413991243593
2939.0,0.01949668180660491
2938.0,0.019360432556262852
2937.0,0.019269623464054586
2936.0,0.0192242260373785
2935.0,0.019269623464054586
2934.0,0.0192242260373785
2933.0,0.019178833355664393
2932.0,0.019133445417920836
2931.0,0.019133445417920836
2930.0,0.019133445417920836
2929.0,0.019178833355664393
2928.0,0.019178833355664393
2927.0,0.019178833355664393
2926.0,0.019178833355664393
2925.0,0.0192242260373785
2924.0,0.0192242260373785
2923.0,0.019269623464054586
2922.0,0.019315025636685412
2921.0,0.019360432556262852
2920.0,0.019451260640229506
2919.0,0.01949668180660491
2918.0,0.01958753839310856
2917.0,0.019678413991243593
2916.0,0.019860222254245663
2915.0,0.020087589665283012
2914.0,0.02036058777709271
2913.0,0.02058821736556471
2912.0,0.02081596632558158
2911.0,0.021043834782408455
2910.0,0.0211806132671577
2909.0,0.02122621566987748
2908.0,0.021135015652343103
2907.0,0.0209982515252789
2906.0,0.020724852408976924
2905.0,0.020406104151069693
2904.0,0.020087589665283012
2903.0,0.019769308608968306
2902.0,0.019451260640229506
2901.0,0.019133445417920836
2900.0,0.018861217359339655
2899.0,0.018679826740892747
2898.0,0.01858915983411169
2897.0,0.018498511851753108
2896.0,0.01845319495476394
2895.0,0.01840788278591865
2894.0,0.01840788278591865
2893.0,0.01840788278591865
2892.0,0.01840788278591865
2891.0,0.018362575344230914
2890.0,0.018271974638383703
2889.0,0.018136109008649592
2888.0,0.017955020928509757
2887.0,0.01781925440359733
2886.0,0.017638298366853045
2885.0,0.017547848615010242
2884.0,0.017457417697056554
2883.0,0.017457417697056554
2882.0,0.017502630802287644
2881.0,0.017502630802287644
2880.0,0.017457417697056554
2879.0,0.017367005605150476
2878.0,0.01727661233145472
2877.0,0.017186237868137555
2876.0,0.017141057687924732
2875.0,0.017095882207371904
2874.0,0.017141057687924732
2873.0,0.017141057687924732
2872.0,0.017095882207371904
2871.0,0.017095882207371904
2870.0,0.017050711425501408
2869.0,0.017005545341335804
2868.0,0.017005545341335804
2867.0,0.016960383953898095
2866.0,0.016960383953898095
2865.0,0.016960383953898095
2864.0,0.017005545341335804
2863.0,0.017095882207371904
2862.0,0.017141057687924732
2861.0,0.017186237868137555
2860.0,0.017186237868137555
2859.0,0.017186237868137555
2858.0,0.017186237868137555
2857.0,0.017186237868137555
2856.0,0.017231422748988034
2855.0,0.017231422748988034
2854.0,0.017231422748988034
2853.0,0.017186237868137555
2852.0,0.017050711425501408
2851.0,0.016915227262211507
2850.0,0.016734647433454652
2849.0,0.016509028184833463
2848.0,0.01632861713980338
2847.0,0.016193358021584725
2846.0,0.016103208673694303
2845.0,0.016013078034810446
2844.0,0.015922966097169144
2843.0,0.01578783323856614
2842.0,0.015607721475734415
2841.0,0.01547268665620738
2840.0,0.015337693809893471
2839.0,0.015202742910707112
2838.0,0.015112798935672522
2837.0,0.015022873584506602
2836.0,0.014977917890464765
2835.0,0.014977917890464765
2834.0,0.014977917890464765
2833.0,0.014932966849499074
2832.0,0.014888020460646079
2831.0,0.014798141635428141
2830.0,0.014708281407112
2829.0,0.014663358264387139
2828.0,0.014618439768003144
2827.0,0.014618439768003144
2826.0,0.014573525916998342
2825.0,0.01452861671041239
2824.0,0.0144837121472845
2823.0,0.014393916947563534
2822.0,0.014393916947563534
2821.0,0.014393916947563534
2820.0,0.014393916947563534
2819.0,0.014438812226654996
2818.0,0.0144837121472845
2817.0,0.0144837121472845
2816.0,0.014438812226654996
2815.0,0.014393916947563534
2814.0,0.014349026309051105
2813.0,0.014349026309051105
2812.0,0.014393916947563534
2811.0,0.014438812226654996
2810.0,0.0144837121472845
2809.0,0.01452861671041239
2808.0,0.01452861671041239
2807.0,0.01452861671041239
2806.0,0.0144837121472845
2805.0,0.014438812226654996
2804.0,0.014393916947563534
2803.0,0.014349026309051105
2802.0,0.014349026309051105
2801.0,0.014349026309051105
2800.0,0.014304140310157809
2799.0,0.014259258949925524
2798.0,0.014214382227394795
2797.0,0.014214382227394795
2796.0,0.014214382227394795
2795.0,0.014214382227394795
2794.0,0.014124642691606404
2793.0,0.014079779876432497
2792.0,0.013990068146738865
2791.0,0.013945219230304673
2790.0,0.013945219230304673
2789.0,0.013945219230304673
2788.0,0.013945219230304673
2787.0,0.013900374944870508
2786.0,0.01385553528947936
2785.0,0.013765869865004277
2784.0,0.01372104409400876
2783.0,0.013631406429727155
2782.0,0.013631406429727155
2781.0,0.013586594534531482
2780.0,0.013631406429727155
2779.0,0.013631406429727155
2778.0,0.013676222949234651
2777.0,0.013676222949234651
2776.0,0.013676222949234651
2775.0,0.013676222949234651
2774.0,0.013676222949234651
2773.0,0.013631406429727155
2772.0,0.013586594534531482
2771.0,0.013586594534531482
2770.0,0.013586594534531482
2769.0,0.013631406429727155
2768.0,0.013631406429727155
2767.0,0.013631406429727155
2766.0,0.013631406429727155
2765.0,0.013586594534531482
2764.0,0.013541787262693505
2763.0,0.013541787262693505
2762.0,0.013541787262693505
2761.0,0.013496984613259544
2760.0,0.013452186585275916
2759.0,0.013362604389846044
2758.0,0.013317820220494436
2757.0,0.013273040668781544
2756.0,0.013317820220494436
2755.0,0.013317820220494436
2754.0,0.013317820220494436
2753.0,0.013273040668781544
2752.0,0.013273040668781544
2751.0,0.013317820220494436
2750.0,0.013317820220494436
2749.0,0.013317820220494436
2748.0,0.013317820220494436
2747.0,0.013317820220494436
2746.0,0.013317820220494436
2745.0,0.013362604389846044
2744.0,0.013362604389846044
2743.0,0.013407393177789162
2742.0,0.013362604389846044
2741.0,0.013317820220494436
2740.0,0.013273040668781544
2739.0,0.013273040668781544
2738.0,0.013317820220494436
2737.0,0.013317820220494436
2736.0,0.013317820220494436
2735.0,0.01322826573375524
2734.0,0.013093968619278806
2733.0,0.013004460275618523
2732.0,0.012959713020733288
2731.0,0.012959713020733288
2730.0,0.012959713020733288
2729.0,0.012959713020733288
2728.0,0.013004460275618523
2727.0,0.013093968619278806
2726.0,0.013138729709955221
2725.0,0.013138729709955221
2724.0,0.013093968619278806
2723.0,0.013093968619278806
2722.0,0.013093968619278806
2721.0,0.013093968619278806
2720.0,0.013049212141483357
2719.0,0.013004460275618523
2718.0,0.012914970375878188
2717.0,0.012825498912458322
2716.0,0.012780770091995297
2715.0,0.012825498912458322
2714.0,0.012914970375878188
2713.0,0.012914970375878188
2712.0,0.012914970375878188
2711.0,0.012914970375878188
2710.0,0.012870232340102872
2709.0,0.012870232340102872
2708.0,0.012825498912458322
2707.0,0.012780770091995297
2706.0,0.012736045877764557
2705.0,0.012736045877764557
2704.0,0.012736045877764557
2703.0,0.012736045877764557
2702.0,0.012736045877764557
2701.0,0.012736045877764557
2700.0,0.012736045877764557
2699.0,0.012780770091995297
2698.0,0.012780770091995297
2697.0,0.012780770091995297
2696.0,0.012736045877764557
2695.0,0.012736045877764557
2694.0,0.012691326268817527
2693.0,0.01264661126420652
2692.0,0.01264661126420652
2691.0,0.01264661126420652
2690.0,0.01260190086298274
2689.0,0.01260190086298274
2688.0,0.012557195064198723
2687.0,0.012557195064198723
2686.0,0.012512493866907004
2685.0,0.012512493866907004
2684.0,0.012512493866907004
2683.0,0.012512493866907004
2682.0,0.012557195064198723
2681.0,0.012557195064198723
2680.0,0.012512493866907004
2679.0,0.012467797270160563
2678.0,0.012423105273012602
2677.0,0.012423105273012602
2676.0,0.012423105273012602
2675.0,0.012467797270160563
2674.0,0.012467797270160563
2673.0,0.012512493866907004
2672.0,0.012512493866907004
2671.0,0.012512493866907004
2670.0,0.012467797270160563
2669.0,0.012467797270160563
2668.0,0.012467797270160563
2667.0,0.012512493866907004
2666.0,0.012512493866907004
2665.0,0.012467797270160563
2664.0,0.012467797270160563
2663.0,0.012467797270160563
2662.0,0.012467797270160563
2661.0,0.012423105273012602
2660.0,0.012423105273012602
2659.0,0.012378417874516323
2658.0,0.012378417874516323
2657.0,0.012333735073725371
2656.0,0.012333735073725371
2655.0,0.012333735073725371
2654.0,0.012333735073725371
2653.0,0.012333735073725371
2652.0,0.012333735073725371
2651.0,0.012333735073725371
2650.0,0.012289056869694281
2649.0,0.012289056869694281
2648.0,0.012333735073725371
2647.0,0.012378417874516323
2646.0,0.012378417874516323
2645.0,0.012378417874516323
2644.0,0.012378417874516323
2643.0,0.012333735073725371
2642.0,0.012289056869694281
2641.0,0.012289056869694281
2640.0,0.012289056869694281
2639.0,0.012333735073725371
2638.0,0.012333735073725371
2637.0,0.012333735073725371
2636.0,0.012378417874516323
2635.0,0.012423105273012602
2634.0,0.012512493866907004
2633.0,0.012557195064198723
2632.0,0.012557195064198723
2631.0,0.01260190086298274
2630.0,0.01260190086298274
2629.0,0.012557195064198723
2628.0,0.012512493866907004
2627.0,0.012512493866907004
2626.0,0.012557195064198723
2625.0,0.012557195064198723
2624.0,0.012512493866907004
2623.0,0.012512493866907004
2622.0,0.012467797270160563
2621.0,0.012467797270160563
2620.0,0.012423105273012602
2619.0,0.012423105273012602
2618.0,0.012333735073725371
2617.0,0.012289056869694281
2616.0,0.012289056869694281
2615.0,0.012333735073725371
2614.0,0.012378417874516323
2613.0,0.012378417874516323
2612.0,0.012333735073725371
2611.0,0.012289056869694281
2610.0,0.012244383261476699
2609.0,0.012244383261476699
2608.0,0.012244383261476699
2607.0,0.012289056869694281
2606.0,0.012333735073725371
2605.0,0.012378417874516323
2604.0,0.012378417874516323
2603.0,0.012467797270160563
2602.0,0.012512493866907004
2601.0,0.012512493866907004
2600.0,0.012512493866907004
2599.0,0.012512493866907004
2598.0,0.012512493866907004
2597.0,0.012512493866907004
2596.0,0.012512493866907004
2595.0,0.012557195064198723
2594.0,0.01260190086298274
2593.0,0.01260190086298274
2592.0,0.01260190086298274
2591.0,0.01260190086298274
2590.0,0.01260190086298274
2589.0,0.01264661126420652
2588.0,0.012691326268817527
2587.0,0.012736045877764557
2586.0,0.012736045877764557
2585.0,0.012736045877764557
2584.0,0.012736045877764557
2583.0,0.012691326268817527
2582.0,0.01264661126420652
2581.0,0.01260190086298274
2580.0,0.012557195064198723
2579.0,0.01260190086298274
2578.0,0.01264661126420652
2577.0,0.01264661126420652
2576.0,0.01264661126420652
2575.0,0.01264661126420652
2574.0,0.01264661126420652
2573.0,0.01260190086298274
2572.0,0.01260190086298274
2571.0,0.01260190086298274
2570.0,0.01260190086298274
2569.0,0.01264661126420652
2568.0,0.012691326268817527
2567.0,0.012691326268817527
2566.0,0.012691326268817527
2565.0,0.012691326268817527
2564.0,0.012691326268817527
2563.0,0.012780770091995297
2562.0,0.012825498912458322
2561.0,0.012780770091995297
2560.0,0.012780770091995297
2559.0,0.012736045877764557
2558.0,0.01264661126420652
2557.0,0.01260190086298274
2556.0,0.012512493866907004
2555.0,0.012467797270160563
2554.0,0.012423105273012602
2553.0,0.012423105273012602
2552.0,0.012423105273012602
2551.0,0.012512493866907004
2550.0,0.012557195064198723
2549.0,0.01260190086298274
2548.0,0.012691326268817527
2547.0,0.012691326268817527
2546.0,0.01264661126420652
2545.0,0.012557195064198723
2544.0,0.012467797270160563
2543.0,0.012378417874516323
2542.0,0.012378417874516323
2541.0,0.012378417874516323
2540.0,0.012423105273012602
2539.0,0.012423105273012602
2538.0,0.012467797270160563
2537.0,0.012467797270160563
2536.0,0.012512493866907004
2535.0,0.012557195064198723
2534.0,0.012557195064198723
2533.0,0.012557195064198723
2532.0,0.012512493866907004
2531.0,0.012467797270160563
2530.0,0.012423105273012602
2529.0,0.012378417874516323
2528.0,0.012378417874516323
2527.0,0.012333735073725371
2526.0,0.012333735073725371
2525.0,0.012289056869694281
2524.0,0.012289056869694281
2523.0,0.012244383261476699
2522.0,0.012199714248127602
2521.0,0.012110390002254778
2520.0,0.012110390002254778
2519.0,0.012110390002254778
2518.0,0.012110390002254778
2517.0,0.012110390002254778
2516.0,0.01215504982870197
2515.0,0.01215504982870197
2514.0,0.01215504982870197
2513.0,0.01215504982870197
2512.0,0.012065734767841452
2511.0,0.012021084124518078
2510.0,0.0119764380713403
2509.0,0.011931796607364653
2508.0,0.011887159731648111
2507.0,0.011931796607364653
2506.0,0.0119764380713403
2505.0,0.0119764380713403
2504.0,0.011931796607364653
2503.0,0.011887159731648111
2502.0,0.011842527443247208
2501.0,0.011842527443247208
2500.0,0.011797899741219142
2499.0,0.011797899741219142
2498.0,0.011797899741219142
2497.0,0.011753276624621556
2496.0,0.011753276624621556
2495.0,0.011753276624621556
2494.0,0.011797899741219142
2493.0,0.011842527443247208
2492.0,0.011797899741219142
2491.0,0.011797899741219142
2490.0,0.011753276624621556
2489.0,0.011753276624621556
2488.0,0.011708658092512314
2487.0,0.011664044143949504
2486.0,0.011619434777991433
2485.0,0.011574829993696856
2484.0,0.011530229790124524
2483.0,0.011530229790124524
2482.0,0.011441043121384498
2481.0,0.011396456654336085
2480.0,0.011351874764248926
2479.0,0.011396456654336085
2478.0,0.011396456654336085
2477.0,0.011396456654336085
2476.0,0.011307297450183107
2475.0,0.011262724711199823
2474.0,0.011262724711199823
2473.0,0.011262724711199823
2472.0,0.011262724711199823
2471.0,0.011307297450183107
2470.0,0.011307297450183107
2469.0,0.011262724711199823
2468.0,0.011262724711199823
2467.0,0.011218156546359825
2466.0,0.01117359295472431
2465.0,0.011129033935354915
2464.0,0.011084479487313281
2463.0,0.011039929609661936
2462.0,0.010995384301463185
2461.0,0.010995384301463185
2460.0,0.010995384301463185
2459.0,0.010995384301463185
2458.0,0.011039929609661936
2457.0,0.010995384301463185
2456.0,0.010950843561779777
2455.0,0.010950843561779777
2454.0,0.010950843561779777
2453.0,0.010995384301463185
2452.0,0.011039929609661936
2451.0,0.011084479487313281
2450.0,0.011084479487313281
2449.0,0.011039929609661936
2448.0,0.010995384301463185
2447.0,0.010950843561779777
2446.0,0.010906307389674463
2445.0,0.010906307389674463
2444.0,0.010906307389674463
2443.0,0.010950843561779777
2442.0,0.010995384301463185
2441.0,0.010995384301463185
2440.0,0.010950843561779777
2439.0,0.010906307389674463
2438.0,0.010906307389674463
2437.0,0.01086177578421088
2436.0,0.01086177578421088
2435.0,0.01086177578421088
2434.0,0.010817248744452446
2433.0,0.010817248744452446
2432.0,0.01086177578421088
2431.0,0.01086177578421088
2430.0,0.010906307389674463
2429.0,0.010950843561779777
2428.0,0.010995384301463185
2427.0,0.010995384301463185
2426.0,0.010995384301463185
2425.0,0.010950843561779777
2424.0,0.010950843561779777
2423.0,0.010995384301463185
2422.0,0.011039929609661936
2421.0,0.011084479487313281
2420.0,0.011084479487313281
2419.0,0.011084479487313281
2418.0,0.011039929609661936
2417.0,0.010995384301463185
2416.0,0.010995384301463185
2415.0,0.011039929609661936
2414.0,0.011084479487313281
2413.0,0.011084479487313281
2412.0,0.011129033935354915
2411.0,0.011129033935354915
2410.0,0.011129033935354915
2409.0,0.01117359295472431
2408.0,0.01117359295472431
2407.0,0.01117359295472431
2406.0,0.011218156546359825
2405.0,0.011218156546359825
2404.0,0.011262724711199823
2403.0,0.011262724711199823
2402.0,0.011262724711199823
2401.0,0.011262724711199823
2400.0,0.011262724711199823
2399.0,0.011218156546359825
2398.0,0.011218156546359825
2397.0,0.011218156546359825
2396.0,0.011218156546359825
2395.0,0.011262724711199823
2394.0,0.011307297450183107
2393.0,0.011307297450183107
2392.0,0.011307297450183107
2391.0,0.011307297450183107
2390.0,0.011262724711199823
2389.0,0.01117359295472431
2388.0,0.011084479487313281
2387.0,0.010995384301463185
2386.0,0.01086177578421088
2385.0,0.010683695010048622
2384.0,0.010550182333308289
2383.0,0.010416710688994968
2382.0,0.01023881228122181
2381.0,0.010060986715464404
2380.0,0.009794384815193347
2379.0,0.009572341514736404
2378.0,0.009350411681145587
2377.0,0.009217308196862062
2376.0,0.009217308196862062
2375.0,0.009483555971770974
2374.0,0.009883233932095559
2373.0,0.010105436281226954
2372.0,0.009972101229705377
2371.0,0.009527946474380489
2370.0,0.009039900317800775
2369.0,0.008862564879688284
2368.0,0.009261671492462709
2367.0,0.01001654169860089
2366.0,0.01023881228122181
2365.0,0.009439170005980158
2364.0,0.008153946355103248
2363.0,0.007313960837872058
2362.0,0.007181479933320523
2361.0,0.007711646202907652
2360.0,0.008995559669244813
2359.0,0.010327752376126709
2358.0,0.010327752376126709
2357.0,0.008773924307505121
2356.0,0.007225635744644521
2355.0,0.006696062080525422
2354.0,0.006872514894289861
2353.0,0.007181479933320523
2352.0,0.007269796045857202
2351.0,0.007004901568658406
2350.0,0.006299305179649828
2349.0,0.00541891874010525
2348.0,0.00484762310854614
2347.0,0.004803708402820517
2346.0,0.005067263269958211
2345.0,0.005199100705396198
2344.0,0.0052870145684298375
2343.0,0.005550862985963967
2342.0,0.005946936412324799
2341.0,0.00625524344553785
2340.0,0.00656376950238835
2339.0,0.007049039429553483
2338.0,0.007313960837872058
2337.0,0.007049039429553483
2336.0,0.006387442061109638
2335.0,0.005682847330363394
2334.0,0.004979393875242044
2333.0,0.00458420145758498
2332.0,0.004759798137184523
2331.0,0.005462895701502157
2330.0,0.00621118618129457
2329.0,0.006696062080525422
2328.0,0.006872514894289861
2327.0,0.007004901568658406
2326.0,0.007049039429553483
2325.0,0.007004901568658406
2324.0,0.007004901568658406
2323.0,0.007049039429553483
2322.0,0.007137328610972382
2321.0,0.007269796045857202
2320.0,0.0075790439479759275
2319.0,0.008065450281052211
2318.0,0.008552401996197112
2317.0,0.008995559669244813
2316.0,0.009217308196862062
2315.0,0.009306039320248427
2314.0,0.009172949432521227
2313.0,0.008951223547323472
2312.0,0.008640997362049818
2311.0,0.008463824699968647
2310.0,0.008419542825660153
2309.0,0.008419542825660153
2308.0,0.008463824699968647
2307.0,0.008552401996197112
2306.0,0.008596697419959609
2305.0,0.008685301823389224
2304.0,0.008818242332126802
2303.0,0.008951223547323472
2302.0,0.008995559669244813
2301.0,0.008995559669244813
2300.0,0.008995559669244813
2299.0,0.00908424549391551
2298.0,0.009128595198514056
2297.0,0.009172949432521227
2296.0,0.009217308196862062
2295.0,0.009261671492462709
2294.0,0.009306039320248427
2293.0,0.00939478857608056
2292.0,0.009439170005980158
2291.0,0.009572341514736404
2290.0,0.00966114521239847
2289.0,0.00974996707218323
2288.0,0.009794384815193347
2287.0,0.009883233932095559
2286.0,0.009972101229705377
2285.0,0.01001654169860089
2284.0,0.010060986715464404
2283.0,0.010105436281226954
2282.0,0.010060986715464404
2281.0,0.01001654169860089
2280.0,0.009927665307847056
2279.0,0.009883233932095559
2278.0,0.009883233932095559
2277.0,0.009838807101520963
2276.0,0.009838807101520963
2275.0,0.009794384815193347
2274.0,0.009794384815193347
2273.0,0.00974996707218323
2272.0,0.009705553871561357
2271.0,0.009705553871561357
2270.0,0.00966114521239847
2269.0,0.009616741093766423
2268.0,0.009527946474380489
2267.0,0.009483555971770974
2266.0,0.009439170005980158
2265.0,0.009439170005980158
2264.0,0.009439170005980158
2263.0,0.009527946474380489
2262.0,0.009616741093766423
2261.0,0.00966114521239847
2260.0,0.00966114521239847
2259.0,0.00966114521239847
2258.0,0.009616741093766423
2257.0,0.009616741093766423
2256.0,0.009616741093766423
2255.0,0.009705553871561357
2254.0,0.009705553871561357
2253.0,0.009705553871561357
2252.0,0.009705553871561357
2251.0,0.00966114521239847
2250.0,0.009616741093766423
2249.0,0.009483555971770974
2248.0,0.009439170005980158
2247.0,0.00939478857608056
2246.0,0.009439170005980158
2245.0,0.009439170005980158
2244.0,0.009483555971770974
2243.0,0.009527946474380489
2242.0,0.009527946474380489
2241.0,0.009527946474380489
2240.0,0.009483555971770974
2239.0,0.009439170005980158
2238.0,0.00939478857608056
2237.0,0.009306039320248427
2236.0,0.009217308196862062
2235.0,0.009128595198514056
2234.0,0.00908424549391551
2233.0,0.00908424549391551
2232.0,0.00908424549391551
2231.0,0.009128595198514056
2230.0,0.009128595198514056
2229.0,0.009128595198514056
2228.0,0.00908424549391551
2227.0,0.00908424549391551
2226.0,0.009039900317800775
2225.0,0.008995559669244813
2224.0,0.008995559669244813
2223.0,0.008951223547323472
2222.0,0.008906891951112605
2221.0,0.008862564879688284
2220.0,0.008818242332126802
2219.0,0.008818242332126802
2218.0,0.008818242332126802
2217.0,0.008862564879688284
2216.0,0.008818242332126802
2215.0,0.008773924307505121
2214.0,0.0087296108049002
2213.0,0.008640997362049818
2212.0,0.008596697419959609
2211.0,0.008596697419959609
2210.0,0.008596697419959609
2209.0,0.008596697419959609
2208.0,0.008596697419959609
2207.0,0.008552401996197112
2206.0,0.008463824699968647
2205.0,0.008419542825660153
2204.0,0.008375265465994541
2203.0,0.008375265465994541
2202.0,0.008330992620051436
2201.0,0.008286724286910463
2200.0,0.008242460465651913
2199.0,0.008153946355103248
2198.0,0.008109696063975047
2197.0,0.008065450281052211
2196.0,0.008065450281052211
2195.0,0.008065450281052211
2194.0,0.008021209005416363
2193.0,0.008021209005416363
2192.0,0.007976972236149349
2191.0,0.007976972236149349
2190.0,0.008021209005416363
2189.0,0.007976972236149349
2188.0,0.007976972236149349
2187.0,0.007932739972333236
2186.0,0.007888512213050314
2185.0,0.007844288957383316
2184.0,0.007844288957383316
2183.0,0.007888512213050314
2182.0,0.007932739972333236
2181.0,0.007976972236149349
2180.0,0.007976972236149349
2179.0,0.007932739972333236
2178.0,0.007888512213050314
2177.0,0.007888512213050314
2176.0,0.007888512213050314
2175.0,0.007932739972333236
2174.0,0.007888512213050314
2173.0,0.007888512213050314
2172.0,0.007844288957383316
2171.0,0.007888512213050314
2170.0,0.007932739972333236
2169.0,0.007932739972333236
2168.0,0.007976972236149349
2167.0,0.007976972236149349
2166.0,0.007932739972333236
2165.0,0.007932739972333236
2164.0,0.007888512213050314
2163.0,0.007932739972333236
2162.0,0.007932739972333236
2161.0,0.007932739972333236
2160.0,0.007976972236149349
2159.0,0.007976972236149349
2158.0,0.008021209005416363
2157.0,0.008021209005416363
2156.0,0.008065450281052211
2155.0,0.008065450281052211
2154.0,0.008021209005416363
2153.0,0.008021209005416363
2152.0,0.007976972236149349
2151.0,0.007976972236149349
2150.0,0.008021209005416363
2149.0,0.008065450281052211
2148.0,0.008109696063975047
2147.0,0.008153946355103248
2146.0,0.008198201155356077
2145.0,0.008198201155356077
2144.0,0.008198201155356077
2143.0,0.008198201155356077
2142.0,0.008198201155356077
2141.0,0.008198201155356077
2140.0,0.008153946355103248
2139.0,0.008198201155356077
2138.0,0.008198201155356077
2137.0,0.008153946355103248
2136.0,0.008109696063975047
2135.0,0.008109696063975047
2134.0,0.008109696063975047
2133.0,0.008153946355103248
2132.0,0.008153946355103248
2131.0,0.008198201155356077
2130.0,0.008242460465651913
2129.0,0.008242460465651913
2128.0,0.008286724286910463
2127.0,0.008330992620051436
2126.0,0.008375265465994541
2125.0,0.008375265465994541
2124.0,0.008330992620051436
2123.0,0.008330992620051436
2122.0,0.008330992620051436
2121.0,0.008330992620051436
2120.0,0.008286724286910463
2119.0,0.008330992620051436
2118.0,0.008330992620051436
2117.0,0.008330992620051436
2116.0,0.008286724286910463
2115.0,0.008286724286910463
2114.0,0.008286724286910463
2113.0,0.008286724286910463
2112.0,0.008286724286910463
2111.0,0.008286724286910463
2110.0,0.008330992620051436
2109.0,0.008375265465994541
2108.0,0.008375265465994541
2107.0,0.008375265465994541
2106.0,0.008375265465994541
2105.0,0.008330992620051436
2104.0,0.008286724286910463
2103.0,0.008242460465651913
2102.0,0.008198201155356077
2101.0,0.008153946355103248
2100.0,0.008109696063975047
2099.0,0.008109696063975047
2098.0,0.008065450281052211
2097.0,0.008109696063975047
2096.0,0.008109696063975047
2095.0,0.008109696063975047
2094.0,0.008109696063975047
2093.0,0.008021209005416363
2092.0,0.007932739972333236
2091.0,0.007844288957383316
2090.0,0.007755855953228474
2089.0,0.007667440952535687
2088.0,0.007667440952535687
2087.0,0.007667440952535687
2086.0,0.007667440952535687
2085.0,0.007667440952535687
2084.0,0.00762324020119709
2083.0,0.00762324020119709
2082.0,0.0075790439479759275
2081.0,0.007490664932224611
2080.0,0.0074464821678643656
2079.0,0.007402303897961815
2078.0,0.007358130121602358
2077.0,0.007313960837872058
2076.0,0.007225635744644521
2075.0,0.007137328610972382
2074.0,0.007093181776687496
2073.0,0.007049039429553483
2072.0,0.00696076819309055
2071.0,0.006916639301937977
2070.0,0.006872514894289861
2069.0,0.006828394969235152
2068.0,0.006740168563263094
2067.0,0.006696062080525422
2066.0,0.006651960076740071
2065.0,0.00656376950238835
2064.0,0.006475596832934416
2063.0,0.006431517210272464
2062.0,0.006343371384537999
2061.0,0.006299305179649828
2060.0,0.00621118618129457
2059.0,0.006167133386013823
2058.0,0.00612308505878878
2057.0,0.006035001804881146
2056.0,0.005990966876386672
2055.0,0.005990966876386672
2054.0,0.005946936412324799
2053.0,0.00590291041179003
2052.0,0.005858888873877532
2051.0,0.005814871797682919
2050.0,0.00577085918230158
2049.0,0.005726851026829571
2048.0,0.005682847330363394
2047.0,0.005638848091999105
2046.0,0.005638848091999105
2045.0,0.005594853310833647
2044.0,0.005506877116487674
2043.0,0.005462895701502157
2042.0,0.00541891874010525
2041.0,0.005330978174470591
2040.0,0.0052870145684298375
2039.0,0.005243055412371911
2038.0,0.005243055412371911
2037.0,0.005199100705396198
2036.0,0.005155150446602086
2035.0,0.005155150446602086
2034.0,0.005155150446602086
2033.0,0.005111204635089406
2032.0,0.005111204635089406
2031.0,0.005155150446602086
2030.0,0.005155150446602086
2029.0,0.005067263269958211
2028.0,0.005023326350308999
2027.0,0.004979393875242044
2026.0,0.004979393875242044
2025.0,0.004935465843858511
2024.0,0.004935465843858511
2023.0,0.004979393875242044
2022.0,0.004979393875242044
2021.0,0.004935465843858511
2020.0,0.004935465843858511
2019.0,0.004935465843858511
2018.0,0.00489154225525934
2017.0,0.00484762310854614
2016.0,0.004803708402820517
2015.0,0.004759798137184523
2014.0,0.004759798137184523
2013.0,0.004803708402820517
2012.0,0.004803708402820517
2011.0,0.00484762310854614
2010.0,0.00484762310854614
2009.0,0.00484762310854614
2008.0,0.00484762310854614
2007.0,0.00484762310854614
2006.0,0.00489154225525934
2005.0,0.004935465843858511
2004.0,0.004935465843858511
2003.0,0.004979393875242044
2002.0,0.004979393875242044
2001.0,0.004979393875242044
2000.0,0.004979393875242044
1999.0,0.005023326350308999
1998.0,0.005111204635089406
1997.0,0.005155150446602086
1996.0,0.005199100705396198
1995.0,0.005243055412371911
1994.0,0.0052870145684298375
1993.0,0.0052870145684298375
1992.0,0.005243055412371911
1991.0,0.005199100705396198
1990.0,0.005155150446602086
1989.0,0.005155150446602086
1988.0,0.005243055412371911
1987.0,0.005330978174470591
1986.0,0.00537494623139545
1985.0,0.00541891874010525
1984.0,0.00541891874010525
1983.0,0.005506877116487674
1982.0,0.005550862985963967
1981.0,0.005594853310833647
1980.0,0.005594853310833647
1979.0,0.005638848091999105
1978.0,0.005682847330363394
1977.0,0.005682847330363394
1976.0,0.005726851026829571
1975.0,0.005814871797682919
1974.0,0.005946936412324799
1973.0,0.005990966876386672
1972.0,0.006079041198713275
1971.0,0.00612308505878878
1970.0,0.00621118618129457
1969.0,0.00625524344553785
1968.0,0.006343371384537999
1967.0,0.006431517210272464
1966.0,0.00656376950238835
1965.0,0.006651960076740071
1964.0,0.006828394969235152
1963.0,0.007049039429553483
1962.0,0.007269796045857202
1961.0,0.0074464821678643656
1960.0,0.0075790439479759275
1959.0,0.007711646202907652
1958.0,0.007800070204414977
1957.0,0.007844288957383316
1956.0,0.007844288957383316
1955.0,0.007844288957383316
1954.0,0.007800070204414977
1953.0,0.007711646202907652
1952.0,0.007667440952535687
1951.0,0.00762324020119709
1950.0,0.007534852191956709
1949.0,0.007402303897961815
1948.0,0.007269796045857202
1947.0,0.007093181776687496
1946.0,0.006916639301937977
1945.0,0.006696062080525422
1944.0,0.006519680930003435
1943.0,0.006299305179649828
1942.0,0.006079041198713275
1941.0,0.005858888873877532
1940.0,0.005726851026829571
1939.0,0.005638848091999105
1938.0,0.005550862985963967
1937.0,0.00537494623139545
1936.0,0.005155150446602086
1935.0,0.004979393875242044
1934.0,0.004803708402820517
1933.0,0.004628093971837721
1932.0,0.004452550524862486
1931.0,0.004320939488377862
1930.0,0.004189368323957332
1929.0,0.00401400208620073
1928.0,0.0038387066319929275
1927.0,0.003707281458678491
1926.0,0.003619686766589858
1925.0,0.0034445503666347133
1924.0,0.0032694845648473247
1923.0,0.0030944893043338695
1922.0,0.0029195645282691363
1921.0,0.002701007590486082
1920.0,0.002613615602686581
1919.0,0.002613615602686581
1918.0,0.002569926202528716
1917.0,0.002482560585275184
1916.0,0.002395212539545666
1915.0,0.002351545103793873
1914.0,0.0023078820582733695
1913.0,0.0022205691343961664
1912.0,0.0020459959305969555
1911.0,0.0019587356365717845
1910.0,0.0018714928717336043
1909.0,0.0017842676290416026
1908.0,0.0016970599014589638
1907.0,0.001609869681952425
1906.0,0.0015662811355310335
1905.0,0.0015226969634936083
1904.0,0.0014791171649619628
1903.0,0.0014355417390583547
1902.0,0.001348404001626502
1901.0,0.0012177301682640973
1900.0,0.0010870956412141197
1899.0,0.0010000277816797354
1898.0,0.0009565003968372565
1897.0,0.000869458712629001
1896.0,0.0007389288868995258
1895.0,0.0006519307932786322
1894.0,0.000521466320689834
1893.0,0.0003475746339209884
1892.0,0.00021720154586435392
1891.0,0.00017375254558760211
1890.0,0.0001303078917322953
1889.0,0.0
1888.0,-0.00013026880522692963
1887.0,-0.00017368305846510168
1886.0,-0.00013026880522692963
1885.0,-0.00013026880522692963
1884.0,-0.00017368305846510168
1883.0,-0.00021709297223004853
1882.0,-0.0002604985473904087
1881.0,-0.0003906892499099257
1880.0,-0.0004774613744551459
1879.0,-0.0005208409361854294
1878.0,-0.0005642161653756084
1877.0,-0.0006509536295951079
1876.0,-0.0007376737740329986
1875.0,-0.0007810273534953893
1874.0,-0.0008243766056055257
1873.0,-0.0008677215312267172
1872.0,-0.0009977303577937136
1871.0,-0.001041057986093552
1870.0,-0.0011277002770349043
1869.0,-0.0013009330204178937
1868.0,-0.001474096691732818
1867.0,-0.0015173768235041685
1866.0,-0.001474096691732818
1865.0,-0.0013875234866409514
1864.0,-0.001344230411601366
1863.0,-0.0013009330204178937
1862.0,-0.001344230411601366
1861.0,-0.0014308122463981832
1860.0,-0.0015173768235041685
1859.0,-0.0015173768235041685
1858.0,-0.001474096691732818
1857.0,-0.0014308122463981832
1856.0,-0.0014308122463981832
1855.0,-0.0013875234866409514
1854.0,-0.001344230411601366
1853.0,-0.001344230411601366
1852.0,-0.001344230411601366
1851.0,-0.0013009330204178937
1850.0,-0.0013009330204178937
1849.0,-0.001344230411601366
1848.0,-0.0013875234866409514
1847.0,-0.0013875234866409514
1846.0,-0.001257631312230778
1845.0,-0.0011710149414008164
1844.0,-0.0010843812922201046
1843.0,-0.001041057986093552
1842.0,-0.0009977303577937136
1841.0,-0.0008677215312267172
1840.0,-0.0007376737740329986
1839.0,-0.0005642161653756084
1838.0,-0.0005208409361854294
1837.0,-0.0005208409361854294
1836.0,-0.0005208409361854294
1835.0,-0.0003906892499099257
1834.0,-0.00030389978481260016
1833.0,-0.0002604985473904087
1832.0,-0.00021709297223004853
1831.0,-8.685021164911433e-05
1830.0,0.0
1829.0,-8.685021164911433e-05
1828.0,-0.00017368305846510168
1827.0,-8.685021164911433e-05
1826.0,8.686758342868472e-05
1825.0,8.686758342868472e-05
1824.0,4.343161980746579e-05
1823.0,8.686758342868472e-05
1822.0,0.00017375254558760211
1821.0,0.00021720154586435392
1820.0,0.00017375254558760211
1819.0,0.0001303078917322953
1818.0,8.686758342868472e-05
1817.0,0.0
1816.0,-0.00013026880522692963
1815.0,-0.00013026880522692963
1814.0,-0.00013026880522692963
1813.0,-0.00021709297223004853
1812.0,-0.0003906892499099257
1811.0,-0.0005208409361854294
1810.0,-0.0006509536295951079
1809.0,-0.0008243766056055257
1808.0,-0.0009543984064577238
1807.0,-0.0009977303577937136
1806.0,-0.0010843812922201046
1805.0,-0.00121432528617893
1804.0,-0.0013875234866409514
1803.0,-0.0015173768235041685
1802.0,-0.0016471913460383014
1801.0,-0.0019067040408846658
1800.0,-0.0021228462251614566
1799.0,-0.0021660617565077978
1798.0,-0.0022092729880145434
1797.0,-0.002338880892056583
1796.0,-0.0025116312849080558
1795.0,-0.002597980719908577
1794.0,-0.0026411490000399773
1793.0,-0.0028137792246734072
1792.0,-0.003115717099805959
1791.0,-0.0033743540197499478
1790.0,-0.0034605321095062536
1789.0,-0.003503614742536687
1788.0,-0.0034605321095062536
1787.0,-0.0033312585613267665
1786.0,-0.0033312585613267665
1785.0,-0.003546693102131737
1784.0,-0.003762020828246282
1783.0,-0.003805073565025019
1782.0,-0.003805073565025019
1781.0,-0.0039772418455368275
1780.0,-0.004192356259714369
1779.0,-0.0042783722001624724
1778.0,-0.0042783722001624724
1777.0,-0.004321373782642635
1776.0,-0.004364371107751008
1775.0,-0.0042783722001624724
1774.0,-0.004106323279658319
1773.0,-0.004149341900058889
1772.0,-0.0042783722001624724
1771.0,-0.0042353663594676405
1770.0,-0.004106323279658319
1769.0,-0.004063300397667113
1768.0,-0.0039772418455368275
1767.0,-0.0037189638231147626
1766.0,-0.0034174452021935586
1765.0,-0.0030725959676747294
1764.0,-0.002597980719908577
1763.0,-0.0019067040408846658
1762.0,-0.001257631312230778
1761.0,-0.0009543984064577238
1760.0,-0.0005642161653756084
1759.0,0.00026065489343207737
1758.0,0.0014355417390583547
1757.0,0.0025262411970197185
1756.0,0.0036634819042162814
1755.0,0.005067263269958211
1754.0,0.006651960076740071
1753.0,0.008375265465994541
1752.0,0.010594681998483901
1751.0,0.013765869865004277
1750.0,0.017728766960431575
1749.0,0.022139270735302752
1748.0,0.027288159452933503
1747.0,0.033201453616638954
1746.0,0.039719535563357944
1745.0,0.047062332249019345
1744.0,0.055566682299785564
1743.0,0.06499684854634524
1742.0,0.07489427319033615
1741.0,0.08597434830367123
1740.0,0.09930522554760213
1739.0,0.11288929687511629
1738.0,0.12349349573411894
1737.0,0.1314731132317961
1736.0,0.14062149557439896
1735.0,0.157390760389438
1734.0,0.18137827362411096
1733.0,0.20107326142279858
1732.0,0.2148838049780799
1731.0,0.22958986848609375
1730.0,0.24741382125959088
1729.0,0.26648174856551243
1728.0,0.28483264215154214
1727.0,0.3031196283172377
1726.0,0.3226668485800983
1725.0,0.3444774037465823
1724.0,0.36886074974318883
1723.0,0.3941564609419108
1722.0,0.4169146336523124
1721.0,0.4352156154960132
1720.0,0.45210228243690276
1719.0,0.4769041617474321
1718.0,0.514988785421427
1717.0,0.5502131530142267
1716.0,0.5662301660751343
1715.0,0.5686362358410126
1714.0,0.5612994670992637
1713.0,0.5427238139386743
1712.0,0.5148466500963478
1711.0,0.4818810528568469
1710.0,0.44721014980721807
1709.0,0.4129628822565443
1708.0,0.37923951000579437
1707.0,0.3444774037465823
1706.0,0.3094495384896414
1705.0,0.2798406965940432
1704.0,0.2587695889745292
1703.0,0.24298376526869947
1702.0,0.22723835285596783
1701.0,0.2076783636484265
1700.0,0.18842499412940672
1699.0,0.1754836719927908
1698.0,0.16698045292346864
1697.0,0.1588909155318461
1696.0,0.15002808767114995
1695.0,0.14206473528057106
1694.0,0.13643923547375736
1693.0,0.13235576609690147
1692.0,0.12866061890013913
1691.0,0.1244757360506914
1690.0,0.1202162199095842
1689.0,0.11679296664760996
1688.0,0.11407366019856902
1687.0,0.11137127461477392
1686.0,0.10835105612944096
1685.0,0.10557316203581202
1684.0,0.10330847343711591
1683.0,0.10089114180660053
1682.0,0.09848719087006019
1681.0,0.09642170633694569
1680.0,0.09425807260839858
1679.0,0.0917831469106074
1678.0,0.08937559511079884
1677.0,0.08714052483764512
1676.0,0.08491689834879956
1675.0,0.08254700807033655
1674.0,0.08034671768963575
1673.0,0.07857365898473456
1672.0,0.07685964397479927
1671.0,0.07494587968815725
1670.0,0.07283502570063005
1669.0,0.0709900145060387
1668.0,0.0692037370166998
1667.0,0.06747550294945781
1666.0,0.06580465065211571
1665.0,0.06419054619006714
1664.0,0.06258241852286206
1663.0,0.06083032037482261
1662.0,0.05918479134919874
1661.0,0.057743849580535134
1660.0,0.056406567231630955
1659.0,0.055122694036304765
1658.0,0.053842605077627725
1657.0,0.05261529831525902
1656.0,0.05144033789103841
1655.0,0.05012229596312534
1654.0,0.049148541111453614
1653.0,0.048808242065293994
1652.0,0.0478374257855374
1651.0,0.04662694927330402
1650.0,0.045902279520810385
1649.0,0.04541983725624266
1648.0,0.04503426894157925
1647.0,0.04455278942230456
1646.0,0.04397571771932274
1645.0,0.04344740808260106
1644.0,0.04291974034210022
1643.0,0.04244059810252043
1642.0,0.04196198390166317
1641.0,0.041483896576958834
1640.0,0.04091088563260792
1639.0,0.04019568349166214
1638.0,0.03948165721929198
1637.0,0.03919637508823026
1636.0,0.03938654235209116
1635.0,0.03929144831144349
1634.0,0.038816290187564384
1633.0,0.038436537637930535
1632.0,0.038057116858612794
1631.0,0.037583306554248797
1630.0,0.037062711569998186
1629.0,0.036731748473764814
1628.0,0.03644826642590382
1627.0,0.03602339000339416
1626.0,0.03555179208333925
1625.0,0.03522197797762394
1624.0,0.03508070571335731
1623.0,0.03498654972775217
1622.0,0.03484535401307465
1621.0,0.03475124903287918
1620.0,0.03470420418834386
1619.0,0.03479829897408804
1618.0,0.03526907894637077
1617.0,0.03625938114211591
1616.0,0.037062711569998186
1615.0,0.0371573187987575
1614.0,0.03692083935817303
1613.0,0.036731748473764814
1612.0,0.03635381351515665
1611.0,0.035740369803151095
1610.0,0.03489241415094413
1609.0,0.03399914237121604
1608.0,0.033060836978886954
1607.0,0.03207779326948268
1606.0,0.031096969696171817
1605.0,0.03025802323714588
1604.0,0.029467170231675777
1603.0,0.028677754757187035
1602.0,0.027936083991977778
1601.0,0.027288159452933503
1600.0,0.026687379547098322
1599.0,0.026087429580295085
1598.0,0.02553436426275746
1597.0,0.02512002699306959
1596.0,0.024798037742147727
1595.0,0.024522236834125355
1594.0,0.024338466818941473
1593.0,0.024292536462819925
1592.0,0.024292536462819925
1591.0,0.024246610963712723
1590.0,0.024246610963712723
1589.0,0.02438440203310499
1588.0,0.024660115394541604
1587.0,0.025028005701930978
1586.0,0.02562649291857677
1585.0,0.026502691267936695
1584.0,0.027750864037404455
1583.0,0.029281296279810798
1582.0,0.030957032694186815
1581.0,0.032545631817259224
1580.0,0.0338113190438627
1579.0,0.034516075754861264
1578.0,0.03461012978487776
1577.0,0.033952178923546183
1576.0,0.032592443402527316
1575.0,0.030910397045078586
1574.0,0.029467170231675777
1573.0,0.028353117935693284
1572.0,0.027334407733889066
1571.0,0.02613355016462182
1570.0,0.02484402159331056
1569.0,0.023787622882622816
1568.0,0.02296266477531872
1567.0,0.022367834754000393
1566.0,0.021865152601710403
1565.0,0.02140867317992523
1564.0,0.020907099361673565
1563.0,0.02045162529590483
1562.0,0.01995115493504329
1561.0,0.01940584422377989
1560.0,0.018951941086827073
1559.0,0.018951941086827073
1558.0,0.018543833477873584
1557.0,0.018181392829336396
1556.0,0.018181392829336396
1555.0,0.01809082990920774
1554.0,0.017864505196230507
1553.0,0.017547848615010242
1552.0,0.017321806616515723
1551.0,0.017050711425501408
1550.0,0.01677978535189717
1549.0,0.016509028184833463
1548.0,0.01628352608625061
1547.0,0.016058141016111804
1546.0,0.015697768020096703
1545.0,0.015292705517326866
1544.0,0.014798141635428141
1543.0,0.014349026309051105
1542.0,0.014079779876432497
1541.0,0.014214382227394795
1540.0,0.014438812226654996
1539.0,0.014259258949925524
1538.0,0.013990068146738865
1537.0,0.01403492169512921
1536.0,0.014259258949925524
1535.0,0.014573525916998342
1534.0,0.014932966849499074
1533.0,0.015292705517326866
1532.0,0.015337693809893471
1531.0,0.015247721884586563
1530.0,0.015292705517326866
1529.0,0.015337693809893471
1528.0,0.01538268676325183
1527.0,0.015292705517326866
1526.0,0.015067833932588037
1525.0,0.014888020460646079
1524.0,0.014798141635428141
1523.0,0.014618439768003144
1522.0,0.014393916947563534
1521.0,0.013945219230304673
1520.0,0.013362604389846044
1519.0,0.013049212141483357
1518.0,0.013004460275618523
1517.0,0.013138729709955221
1516.0,0.01322826573375524
1515.0,0.013317820220494436
1514.0,0.013765869865004277
1513.0,0.014708281407112
1512.0,0.016013078034810446
1511.0,0.017502630802287644
1510.0,0.019451260640229506
1509.0,0.022505030926963654
1508.0,0.029141943003497595
1507.0,0.03924390909822728
1506.0,0.04513062893352182
1505.0,0.0451788169482068
1504.0,0.04263219156847242
1503.0,0.03862637240519895
1502.0,0.034046110897937076
1501.0,0.02932775731028059
1500.0,0.025028005701930978
1499.0,0.021363051615525652
1498.0,0.01831727262871463
1497.0,0.016058141016111804
1496.0,0.0144837121472845
1495.0,0.013362604389846044
1494.0,0.012736045877764557
1493.0,0.012557195064198723
1492.0,0.012557195064198723
1491.0,0.012512493866907004
1490.0,0.01260190086298274
1489.0,0.013138729709955221
1488.0,0.014124642691606404
1487.0,0.015247721884586563
1486.0,0.016509028184833463
1485.0,0.017909760704207134
1484.0,0.01940584422377989
1483.0,0.0209982515252789
1482.0,0.022733787572707387
1481.0,0.02461415101053266
1480.0,0.026271941311972746
1479.0,0.027658283674251827
1478.0,0.029002634427514717
1477.0,0.030444315779156517
1476.0,0.03184406285002961
1475.0,0.032920265855503006
1474.0,0.033905220553829274
1473.0,0.03489241415094413
1472.0,0.03526907894637077
1471.0,0.03498654972775217
1470.0,0.034516075754861264
1469.0,0.03414006319292828
1468.0,0.0338113190438627
1467.0,0.03357665405630694
1466.0,0.03376437590141812
1465.0,0.034469056377139484
1464.0,0.03541041251009669
1463.0,0.0360705779734416
1462.0,0.03663723389626394
1461.0,0.0371573187987575
1460.0,0.03763066432997886
1459.0,0.038057116858612794
1458.0,0.039006291057664066
1457.0,0.040338629726504704
1456.0,0.040958607678906356
1455.0,0.040958607678906356
1454.0,0.04091088563260792
1453.0,0.04086316882962593
1452.0,0.040529297924893015
1451.0,0.03986232513620536
1450.0,0.03914884628031379
1449.0,0.03838909190871931
1448.0,0.037583306554248797
1447.0,0.036779013477011624
1446.0,0.03616496929785207
1445.0,0.035693217696063595
1444.0,0.03526907894637077
1443.0,0.03479829897408804
1442.0,0.03423403581731388
1441.0,0.03362357691107709
1440.0,0.03301397488206215
1439.0,0.03217132066984485
1438.0,0.031003673351687855
1437.0,0.029281296279810798
1436.0,0.027334407733889066
1435.0,0.02558042614771394
1434.0,0.024154774532432866
1433.0,0.022733787572707387
1432.0,0.0211806132671577
1431.0,0.01954210772389997
1430.0,0.017909760704207134
1429.0,0.016509028184833463
1428.0,0.015517693597737248
1427.0,0.014843078722943437
1426.0,0.0144837121472845
1425.0,0.014304140310157809
1424.0,0.01452861671041239
1423.0,0.015022873584506602
1422.0,0.015877917138889863
1421.0,0.017367005605150476
1420.0,0.020497151212598652
1419.0,0.025672564576383117
1418.0,0.032218091924200776
1417.0,0.039719535563357944
1416.0,0.04871106272232795
1415.0,0.05938391766259232
1414.0,0.07191154033502922
1413.0,0.08608023504853413
1412.0,0.10083635852278117
1411.0,0.11379137583250243
1410.0,0.12280148472821018
1409.0,0.1270865583796048
1408.0,0.12650501774383094
1407.0,0.12107626603243293
1406.0,0.11159583226295333
1405.0,0.10017949757290379
1404.0,0.0892689019566193
1403.0,0.08024221949810584
1402.0,0.0729891310243489
1401.0,0.0666645899223488
1400.0,0.06048074738138154
1399.0,0.05458065739693696
1398.0,0.04982994019179987
1397.0,0.04628861957244457
1396.0,0.043303435105349175
1395.0,0.040529297924893015
1394.0,0.038199360808321536
1393.0,0.03668448861388862
1392.0,0.035693217696063595
1391.0,0.03498654972775217
1390.0,0.03428102975577918
1389.0,0.03362357691107709
1388.0,0.033201453616638954
1387.0,0.0329671178412978
1386.0,0.032873418923587305
1385.0,0.03301397488206215
1384.0,0.033295223342125535
1383.0,0.03362357691107709
1382.0,0.033905220553829274
1381.0,0.03432802877989327
1380.0,0.03489241415094413
1379.0,0.03550466044490741
1378.0,0.036117771071222604
1377.0,0.036779013477011624
1376.0,0.037583306554248797
1375.0,0.03848398855105106
1374.0,0.03943409718180235
1373.0,0.04014804520039483
1372.0,0.040529297924893015
1371.0,0.04057697805689475
1370.0,0.04010041213405646
1369.0,0.03910132267333921
1368.0,0.03753595394209874
1367.0,0.035646070707806565
1366.0,0.03357665405630694
1365.0,0.03133029827960798
1364.0,0.028863370523193765
1363.0,0.02636422658259252
1362.0,0.024246610963712723
1361.0,0.02291687968414724
1360.0,0.02227639471115217
1359.0,0.02200219004126036
1358.0,0.02200219004126036
1357.0,0.022322112326006227
1356.0,0.02300845469384938
1355.0,0.024017056287453542
1354.0,0.02544225514642018
1353.0,0.027426919073445077
1352.0,0.030118356253500123
1351.0,0.03362357691107709
1350.0,0.038151940981675736
1349.0,0.04397571771932274
1348.0,0.05114709380028648
1347.0,0.05988213325228142
1346.0,0.07032568205141221
1345.0,0.08223199755224364
1344.0,0.09490603167212863
1343.0,0.10729336219433439
1342.0,0.11844417020668851
1341.0,0.12761061158217912
1340.0,0.13347637446715632
1339.0,0.13436311230037123
1338.0,0.12994741830645506
1337.0,0.12142076193778073
1336.0,0.11008231656379408
1335.0,0.09707290398273716
1334.0,0.08349341288484435
1333.0,0.07047889936889606
1332.0,0.058786812414678646
1331.0,0.04900266601119507
1330.0,0.041436116778032606
1329.0,0.03588185684851508
1328.0,0.03207779326948268
1327.0,0.029653123769906697
1326.0,0.028353117935693284
1325.0,0.027889771597169544
1324.0,0.02798240132598462
1323.0,0.02849221828874393
1322.0,0.029281296279810798
1321.0,0.03030458888152676
1320.0,0.03147035562516054
1319.0,0.03277974021703267
1318.0,0.034187046963396917
1317.0,0.035740369803151095
1316.0,0.037488606492403154
1315.0,0.03938654235209116
1314.0,0.04153168163305643
1313.0,0.0439276630048171
1312.0,0.04653025674659861
1311.0,0.049245818406496555
1310.0,0.05207638016827354
1309.0,0.05502409158795207
1308.0,0.05799194697768684
1307.0,0.060880282351513104
1306.0,0.06363708040225546
1305.0,0.0665127121512945
1304.0,0.06956040523329987
1303.0,0.07288638806623937
1302.0,0.07665234350217442
1301.0,0.08102656950704579
1300.0,0.08602728844902896
1299.0,0.09156860103399356
1298.0,0.09739886933346864
1297.0,0.10352889952072264
1296.0,0.10991447328367476
1295.0,0.11628179803604044
1294.0,0.12251347193039863
1293.0,0.1287190271420271
1292.0,0.13483678049391368
1291.0,0.1407415825326932
1290.0,0.1465451586319333
1289.0,0.15224231160766877
1288.0,0.15789023655938994
1287.0,0.163359458427226
1286.0,0.16845014800424418
1285.0,0.17353645090719882
1284.0,0.1785519809824696
1283.0,0.1835598320438614
1282.0,0.1885590563258419
1281.0,0.19368433019188647
1280.0,0.19921420967223735
1279.0,0.20502425594886842
1278.0,0.2111248842245832
1277.0,0.21788585252092885
1276.0,0.22555603107503486
1275.0,0.2341080235699846
1274.0,0.24366823267894233
1273.0,0.2546128786799913
1272.0,0.2672043017106709
1271.0,0.28108331398513897
1270.0,0.29576366269121235
1269.0,0.31158017799728954
1268.0,0.328179439816751
1267.0,0.3452460667470698
1266.0,0.36221017063777095
1265.0,0.3791355247348789
1264.0,0.3954499674287386
1263.0,0.4103854593687337
1262.0,0.4235434675943799
1261.0,0.4352156154960132
1260.0,0.4452686233240335
1259.0,0.4535807331648083
1258.0,0.46029676105217443
1257.0,0.4669909775045147
1256.0,0.474436941729933
1255.0,0.48267211770562657
1254.0,0.4920092751803087
1253.0,0.5032086842999575
1252.0,0.5164127030311059
1251.0,0.5306198641500748
1250.0,0.5454600150351812
1249.0,0.5606673061697374
1248.0,0.575935474582512
1247.0,0.5892227666227903
1246.0,0.599634726650061
1245.0,0.6067758836387027
1244.0,0.6101254416090145
1243.0,0.6078308505102639
1242.0,0.5994620106080539
1241.0,0.5860300282519386
1240.0,0.5684754158125491
1239.0,0.5468346074741428
1238.0,0.5220110237491107
1237.0,0.4959371173213081
1236.0,0.46954415641532377
1235.0,0.4433357378774314
1234.0,0.4179366370882913
1233.0,0.3941564609419108
1232.0,0.37212230542002844
1231.0,0.3515424057174774
1230.0,0.332547047110046
1229.0,0.31524437789137605
1228.0,0.2994693430214084
1227.0,0.2849163293050727
1226.0,0.2713216331490862
1225.0,0.2587695889745292
1224.0,0.24718356881172854
1223.0,0.23627259623430175
1222.0,0.22577509513108107
1221.0,0.21588218353707678
1220.0,0.20641913263184408
1219.0,0.19729467292564795
1218.0,0.18842499412940672
1217.0,0.17999569319168218
1216.0,0.17198493577602325
1215.0,0.1644362483309032
1214.0,0.15732836623921154
1213.0,0.15076490868527737
1212.0,0.1447838052666366
1211.0,0.13936258322624528
1210.0,0.13430394008392943
1209.0,0.12965462891904034
1208.0,0.12534426740189897
1207.0,0.12124847982699793
1206.0,0.11736163830396129
1205.0,0.1137349409702435
1204.0,0.11036219959333216
1203.0,0.1071265931112344
1202.0,0.10402526764093545
1201.0,0.10105553313349058
1200.0,0.09826930827078129
1199.0,0.0955549589230904
1198.0,0.09296504751658308
1197.0,0.09049745859458458
1196.0,0.0880970039559672
1195.0,0.08586848736910624
1194.0,0.08380934001946239
1193.0,0.08191721535781271
1192.0,0.08024221949810584
1191.0,0.07878187880504961
1190.0,0.07748213975538865
1189.0,0.07644514193245056
1188.0,0.0756173227980268
1187.0,0.07510073598571654
1186.0,0.0748426728241014
1185.0,0.07494587968815725
1184.0,0.07541061433058172
1183.0,0.07623803917129979
1182.0,0.07737832847680104
1181.0,0.07878187880504961
1180.0,0.08039897621588898
1179.0,0.08212704480115218
1178.0,0.08370400543686918
1177.0,0.08512818245994969
1176.0,0.086239113587677
1175.0,0.08687520961044104
1174.0,0.08682216600953208
1173.0,0.0861331881037608
1172.0,0.08465293767580806
1171.0,0.08259953204474924
1170.0,0.08003329851661278
1169.0,0.07743023101428781
1168.0,0.07494587968815725
1167.0,0.07278366940873537
1166.0,0.0710411591191702
1165.0,0.06981534770138009
1164.0,0.06894915322260897
1163.0,0.068389593637038
1162.0,0.0680846829187538
1161.0,0.06803388527182741
1160.0,0.06813548650796819
1159.0,0.06844043290919477
1158.0,0.06894915322260897
1157.0,0.06961138175567827
1156.0,0.07058107428570715
1155.0,0.0718090519612431
1154.0,0.07340034609297241
1153.0,0.07525564752005143
1152.0,0.07748213975538865
1151.0,0.07998108397108505
1150.0,0.08275714209253371
1149.0,0.08597434830367123
1148.0,0.08948231448273347
1147.0,0.09344948089854999
1146.0,0.09772507952549825
1145.0,0.10248287059947447
1144.0,0.10762709260156367
1143.0,0.11317099532301778
1142.0,0.1190150095132465
1141.0,0.12534426740189897
1140.0,0.1322379753497993
1139.0,0.1396619934290062
1138.0,0.14764201633217278
1137.0,0.15645578805436489
1136.0,0.16621562534352097
1135.0,0.17678668671733244
1134.0,0.18815699382352258
1133.0,0.200246033588114
1132.0,0.2130357405642671
1131.0,0.2261404476233131
1130.0,0.23942674605560588
1129.0,0.25282132863983553
1128.0,0.26640153903866093
1127.0,0.27992342723185937
1126.0,0.29319690296266177
1125.0,0.30627305107635316
1124.0,0.31893975636818817
1123.0,0.3308691526266674
1122.0,0.341606973720876
1121.0,0.35095736591382365
1120.0,0.3585258894959005
1119.0,0.3636124141868433
1118.0,0.3659259745125316
1117.0,0.3655227298392685
1116.0,0.3629107264696696
1115.0,0.3589226866746258
1114.0,0.35487260074160876
1113.0,0.3525192268263242
1112.0,0.3531063758322548
1111.0,0.3570411205902093
1110.0,0.3644157336887699
1109.0,0.37540854087315223
1108.0,0.38944629468290537
1107.0,0.4053864908399021
1106.0,0.4222784754909792
1105.0,0.43949558480494333
1104.0,0.45642857603763454
1103.0,0.4718549217468935
1102.0,0.4851867050007146
1101.0,0.49634548075704066
1100.0,0.505149978319906
1099.0,0.5108856306210807
1098.0,0.5130031115681775
1097.0,0.5120136688706065
1096.0,0.5080782874138492
1095.0,0.5010006364198469
1094.0,0.4912010345960949
1093.0,0.47951646725920805
1092.0,0.46673648322128525
1091.0,0.4527176920366969
1090.0,0.43794517034362146
1089.0,0.42331319479900453
1088.0,0.4091581652183973
1087.0,0.3951262294473643
1086.0,0.38111551500454954
1085.0,0.3672391115205613
1084.0,0.3533022687006655
1083.0,0.3389449151466213
1082.0,0.32403845035783063
1081.0,0.3087416418668889
1080.0,0.29328221766324125
1079.0,0.27761290582287623
1078.0,0.2620920766253614
1077.0,0.24726030606467186
1076.0,0.23336411368973242
1075.0,0.22033137279285198
1074.0,0.2083093509798819
1073.0,0.19736308191718943
1072.0,0.18762148884580565
1071.0,0.17887967622317635
1070.0,0.17095366314681737
1069.0,0.16380251922107458
1068.0,0.15732836623921154
1067.0,0.1513798825658661
1066.0,0.1461193498754576
1065.0,0.1415229581866595
1064.0,0.1374512304752069
1063.0,0.1337717526203528
1062.0,0.1302990263261221
1061.0,0.1270865583796048
1060.0,0.12430223801979201
1059.0,0.12188051530283239
1058.0,0.1199871616332282
1057.0,0.11872949607064243
1056.0,0.11798803837334138
1055.0,0.11764625361128611
1054.0,0.11764625361128611
1053.0,0.11793105556385153
1052.0,0.11850122038501709
1051.0,0.11924355548978971
1050.0,0.12004441487725082
1049.0,0.12101887660626365
1048.0,0.1219955297319748
1047.0,0.12280148472821018
1046.0,0.12343578601615435
1045.0,0.12383991517437187
1044.0,0.12395544975390482
1043.0,0.12360893818081231
1042.0,0.12280148472821018
1041.0,0.12170805075020397
1040.0,0.12033079436794658
1039.0,0.11861534322942724
1038.0,0.11679296664760996
1037.0,0.11492161585077598
1036.0,0.11317099532301778
1035.0,0.1114835389250548
1034.0,0.1098585399354226
1033.0,0.10840679565103484
1032.0,0.10734896612269962
1031.0,0.10673771411200872
1030.0,0.1071265931112344
1029.0,0.10913206118855912
1028.0,0.11379137583250243
1027.0,0.12170805075020397
1026.0,0.13335827943396006
1025.0,0.14868048735125483
1024.0,0.16717187046064663
1023.0,0.18815699382352258
1022.0,0.21091308491197136
1021.0,0.23455498190985002
1020.0,0.2569608451950669
1019.0,0.2745784499257413
1018.0,0.282995592959453
1017.0,0.2795099315499485
1016.0,0.2641616656829262
1015.0,0.24055880286630238
1014.0,0.21388771628017356
1013.0,0.18882730493344568
1012.0,0.16781053893148679
1011.0,0.15125681810431635
1010.0,0.1385253311428314
1009.0,0.12877744324029283
1008.0,0.12113366304327466
1007.0,0.11509140583739286
1006.0,0.11019424813191447
1005.0,0.1063491830140364
1004.0,0.10330847343711591
1003.0,0.10067205012234592
1002.0,0.09837823590664274
1001.0,0.09636748391576244
1000.0,0.09458193129745807
999.0,0.09296504751658308
998.0,0.09146136782804049
997.0,0.09017663034908807
996.0,0.08900228368935714
995.0,0.08804381092731295
994.0,0.08735289378168276
993.0,0.08687520961044104
992.0,0.08666307406737683
991.0,0.08661005636824437
990.0,0.08661005636824437
989.0,0.0867160982395816
988.0,0.08698131625203986
987.0,0.08735289378168276
986.0,0.08793744441149753
985.0,0.08878910686244668
984.0,0.08996287644694911
983.0,0.09135416109288674
982.0,0.09307265269104414
981.0,0.09496007192378841
980.0,0.09712721455392082
979.0,0.09941441335003853
978.0,0.10165883427249067
977.0,0.1038045895457893
976.0,0.10573933555301185
975.0,0.10734896612269962
974.0,0.10840679565103484
973.0,0.10896458468468917
972.0,0.10890877353227624
971.0,0.1081838804751396
970.0,0.10684878687013422
969.0,0.10496440254767725
968.0,0.10275789719463457
967.0,0.10023419805561384
966.0,0.0975619438013351
965.0,0.09485199814398393
964.0,0.09215885741705532
963.0,0.08948231448273347
962.0,0.08692825969074924
961.0,0.08449463824562353
960.0,0.08228448344050654
959.0,0.08024221949810584
958.0,0.07826151631540124
957.0,0.07649693305789551
956.0,0.07489427319033615
955.0,0.07340034609297241
954.0,0.07196279359311708
953.0,0.07068327324650436
952.0,0.06945847013556561
951.0,0.06833876031551878
950.0,0.06732334137759932
949.0,0.06646209802829528
948.0,0.06570359318059427
947.0,0.06499684854634524
946.0,0.06429125215733666
945.0,0.0636873663378068
944.0,0.0630843190547461
943.0,0.06248210798265341
942.0,0.061880730805688344
941.0,0.061380218497318895
940.0,0.060880282351513104
939.0,0.060430831344098435
938.0,0.05998184499233683
937.0,0.05953332233647113
936.0,0.059135024033278416
935.0,0.05868737463933793
934.0,0.05824018618530458
933.0,0.05779345772290467
932.0,0.057396751157843484
931.0,0.057000406633959555
930.0,0.05655495097496965
929.0,0.05601112492622806
928.0,0.05546797900801881
927.0,0.054876229877880656
926.0,0.05433450056786593
925.0,0.05389176956309405
924.0,0.05354773498692689
923.0,0.053203972728539606
922.0,0.05281143447390635
921.0,0.052468254304406825
920.0,0.05217431555754937
919.0,0.05188057561946402
918.0,0.0515870342213991
917.0,0.05139145012356372
916.0,0.05129369109514803
915.0,0.05134256785867963
914.0,0.05148923116234294
913.0,0.0518316382728683
912.0,0.05227227303668425
911.0,0.05281143447390635
910.0,0.0534986094304124
909.0,0.05433450056786593
908.0,0.05536929814372171
907.0,0.05650548409389744
906.0,0.057743849580535134
905.0,0.059035506507200575
904.0,0.06038092104330195
903.0,0.06163040254819374
902.0,0.06278310913729457
901.0,0.06373765809652254
900.0,0.06449273417528723
899.0,0.06494641076893504
898.0,0.06514819703433927
897.0,0.06509774167768612
896.0,0.06484555278383164
895.0,0.06439198148213077
894.0,0.06393888339001164
893.0,0.06353652599525317
892.0,0.06328524178879635
891.0,0.06323500239005853
890.0,0.06338573802478864
889.0,0.06383825908884244
888.0,0.06479513257341862
887.0,0.06641148980334699
886.0,0.0688982543673613
885.0,0.07242434530888953
884.0,0.07706704344478843
883.0,0.08296737783760655
882.0,0.0900163050601559
881.0,0.09816040794877057
880.0,0.10723776538418317
879.0,0.11719095860756013
878.0,0.12790202572577325
877.0,0.1397219002477652
876.0,0.15285938258659382
875.0,0.16672536070943655
874.0,0.17901082358395048
873.0,0.18635230465310326
872.0,0.18575240426807982
871.0,0.17711305216584927
870.0,0.16329620091026875
869.0,0.14831368455757254
868.0,0.13501453934020602
867.0,0.12424442074194553
866.0,0.11599807523121286
865.0,0.10997041383658313
864.0,0.10562854614376227
863.0,0.10253786198693682
862.0,0.10039834085387778
861.0,0.0989778267519208
860.0,0.09810596802617932
859.0,0.09745322068600859
858.0,0.09707290398273716
857.0,0.09696430321150284
856.0,0.0972358560759139
855.0,0.09777947172068524
854.0,0.09859617317474823
853.0,0.09974214156222239
852.0,0.10116516193172598
851.0,0.10275789719463457
850.0,0.10424605792627206
849.0,0.10546241500425357
848.0,0.10601643278815298
847.0,0.10568393731556158
846.0,0.10457745396059215
845.0,0.10292299679057959
844.0,0.10089114180660053
843.0,0.09870518283443275
842.0,0.09636748391576244
841.0,0.09409623378338305
840.0,0.09183679994445204
839.0,0.08948231448273347
838.0,0.08719360733870762
837.0,0.08496970974083906
836.0,0.08286224724355584
835.0,0.08081727095749947
834.0,0.07883394936226118
833.0,0.07685964397479927
832.0,0.07504911108438939
831.0,0.07329750581735506
830.0,0.07160414774328627
829.0,0.07001940948448526
828.0,0.06859298644342648
827.0,0.06727263269847072
826.0,0.06610796423578891
825.0,0.06514819703433927
824.0,0.06434161389936577
823.0,0.06363708040225546
822.0,0.06303410289212974
821.0,0.06243196139961715
820.0,0.06193081377661436
819.0,0.06143024377893891
818.0,0.06103020277710969
817.0,0.06078036414518184
816.0,0.060530669156469985
815.0,0.06028111764589528
814.0,0.05998184499233683
813.0,0.0595831353183347
812.0,0.05918479134919874
811.0,0.05868737463933793
810.0,0.05814087347462649
809.0,0.0575950591438934
808.0,0.0571489934456626
807.0,0.0567528748621382
806.0,0.056406567231630955
805.0,0.05601112492622806
804.0,0.05561604235915585
803.0,0.05507339001378431
802.0,0.05443294655761144
801.0,0.05389176956309405
800.0,0.053842605077627725
799.0,0.054679159207724926
798.0,0.05670338543334519
797.0,0.05993198626064755
796.0,0.06378795567975115
795.0,0.06737405597821788
794.0,0.06971335275448043
793.0,0.0702746216219956
792.0,0.0692037370166998
791.0,0.06686717627326577
790.0,0.06388856832514578
789.0,0.06083032037482261
788.0,0.05799194697768684
787.0,0.05536929814372171
786.0,0.05300765925162776
785.0,0.05095170768433621
784.0,0.04919717703534143
783.0,0.047595060422975566
782.0,0.046143701775014145
781.0,0.04474531717982
780.0,0.04344740808260106
779.0,0.04224908912272074
778.0,0.04105406750606355
777.0,0.03995754427315856
776.0,0.038958783046687984
775.0,0.03796231343498735
774.0,0.0369681249461018
773.0,0.03592902944204468
772.0,0.03489241415094413
771.0,0.03376437590141812
770.0,0.032592443402527316
769.0,0.03133029827960798
768.0,0.03002526987828502
767.0,0.02863136320857662
766.0,0.027334407733889066
765.0,0.026271941311972746
764.0,0.025350165561278004
763.0,0.024476287039668643
762.0,0.023604163388120325
761.0,0.022871099419317753
760.0,0.02227639471115217
759.0,0.021728158389364705
758.0,0.021135015652343103
757.0,0.020542681902151694
756.0,0.019996628416253603
755.0,0.019451260640229506
754.0,0.01899731005860028
753.0,0.018679826740892747
752.0,0.018543833477873584
751.0,0.018498511851753108
750.0,0.018634490921455527
749.0,0.0190880622231564
748.0,0.019860222254245663
747.0,0.0209982515252789
746.0,0.022505030926963654
745.0,0.02461415101053266
744.0,0.0277045713888604
743.0,0.03207779326948268
742.0,0.03838909190871931
741.0,0.04740126547022694
740.0,0.05953332233647113
739.0,0.07473949048056472
738.0,0.09312646527792956
737.0,0.11446916681190777
736.0,0.1384058553561347
735.0,0.16399254087446846
734.0,0.19077707831057822
733.0,0.2187474057515435
732.0,0.2482591261890994
731.0,0.2794272796357391
730.0,0.3125602254541058
729.0,0.3482375526198891
728.0,0.38584129049082483
727.0,0.4227380464141852
726.0,0.45419824284072385
725.0,0.4750848524601332
724.0,0.4821445810699714
723.0,0.47625353318843544
722.0,0.4618034216505458
721.0,0.4433357378774314
720.0,0.4236586497942072
719.0,0.4034029043735399
718.0,0.3825802532628235
717.0,0.36121133284260165
716.0,0.3397038397292702
715.0,0.31893975636818817
714.0,0.2998156703778023
713.0,0.2832456425673029
712.0,0.2688949487840795
711.0,0.2562551214075388
710.0,0.24465881618845242
709.0,0.23403357521428614
708.0,0.2243167509739561
707.0,0.21545402594547736
706.0,0.20711825461460287
705.0,0.19948912310563194
704.0,0.19239733008350535
703.0,0.1854860476317619
702.0,0.17835548245778288
701.0,0.17082492608291244
700.0,0.16291684917681404
699.0,0.15508812608785938
698.0,0.1478861391502384
697.0,0.1414628024303608
696.0,0.13590442657575252
695.0,0.1311205537629121
694.0,0.12697018793895576
693.0,0.12360893818081231
692.0,0.12096149476276286
691.0,0.11872949607064243
690.0,0.1165657063169907
689.0,0.11435612816423602
688.0,0.11210151190312767
687.0,0.10997041383658313
686.0,0.10801676914803293
685.0,0.10657115822045493
684.0,0.10562854614376227
683.0,0.1052410056281079
682.0,0.10501970907203151
681.0,0.10468797552421272
680.0,0.10408045468998406
679.0,0.10308815917397474
678.0,0.10165883427249067
677.0,0.09990609845660159
676.0,0.09810596802617932
675.0,0.09636748391576244
674.0,0.09458193129745807
673.0,0.09269615116603047
672.0,0.09060445403289452
671.0,0.08857603462370545
670.0,0.0872466963286771
669.0,0.0872997918091396
668.0,0.08830984124613894
667.0,0.08841629901892434
666.0,0.08650404038287651
665.0,0.0838620168928248
664.0,0.08207457793525874
663.0,0.0812883346176787
662.0,0.08092190762392604
661.0,0.08055578953476306
660.0,0.08034671768963575
659.0,0.08039897621588898
658.0,0.08045124103115198
657.0,0.08024221949810584
656.0,0.0794071379151915
655.0,0.07794959783282618
654.0,0.07628980560343712
653.0,0.0748426728241014
652.0,0.07365755337434488
651.0,0.07262963696097646
650.0,0.0716553647351379
649.0,0.0710411591191702
648.0,0.07078549626260622
647.0,0.07058107428570715
646.0,0.0702746216219956
645.0,0.06976434723371505
644.0,0.0692037370166998
643.0,0.06864384953207203
642.0,0.06828793294324442
641.0,0.06828793294324442
640.0,0.06864384953207203
639.0,0.06915280831750303
638.0,0.06966236426227002
637.0,0.07037674848475972
636.0,0.0716553647351379
635.0,0.07381195089279391
634.0,0.07654873036034848
633.0,0.07883394936226118
632.0,0.07919861817434581
631.0,0.07732643214144574
630.0,0.07422394616325367
629.0,0.07155293679081787
628.0,0.07012147634321675
627.0,0.06961138175567827
626.0,0.06935655895783555
625.0,0.06884736147670667
624.0,0.06813548650796819
623.0,0.06712054217620067
622.0,0.06580465065211571
621.0,0.06444235490698613
620.0,0.06338573802478864
619.0,0.06278310913729457
618.0,0.06258241852286206
617.0,0.06283329628496737
616.0,0.06343599486473406
615.0,0.06414020196211956
614.0,0.06454311928839007
613.0,0.06464390705442691
612.0,0.06459351024765114
611.0,0.06464390705442691
610.0,0.06484555278383164
609.0,0.06504729218214189
608.0,0.06504729218214189
607.0,0.06479513257341862
606.0,0.06449273417528723
605.0,0.06454311928839007
604.0,0.06514819703433927
603.0,0.0659562809644747
602.0,0.0663102910421054
601.0,0.06615853710127872
600.0,0.06570359318059427
599.0,0.06504729218214189
598.0,0.06434161389936577
597.0,0.06378795567975115
596.0,0.06373765809652254
595.0,0.06383825908884244
594.0,0.06338573802478864
593.0,0.061780582187257016
592.0,0.0595831353183347
591.0,0.05784307153250956
590.0,0.05734718830678798
589.0,0.05764465029232335
588.0,0.05754547365752294
587.0,0.05650548409389744
586.0,0.05507339001378431
585.0,0.05413767551038262
584.0,0.05389176956309405
583.0,0.053596866100945384
582.0,0.05237025261564554
581.0,0.05051241005349638
580.0,0.048905443158337114
579.0,0.04832256265669943
578.0,0.04851676924770687
577.0,0.0486139051197072
576.0,0.047643522676209304
575.0,0.04513062893352182
574.0,0.04081545726880842
573.0,0.03470420418834386
572.0,0.027565723042634938
571.0,0.02296266477531872
570.0,0.024660115394541604
569.0,0.031096969696171817
568.0,0.03578752703018084
567.0,0.033295223342125535
566.0,0.02521206778644225
565.0,0.01759307113620534
564.0,0.014214382227394795
563.0,0.01547268665620738
562.0,0.01940584422377989
561.0,0.023329119375188556
560.0,0.024476287039668643
559.0,0.021135015652343103
558.0,0.014124642691606404
557.0,0.006167133386013823
556.0,-0.0008677215312267172
555.0,-0.005566571133294396
554.0,-0.0066799277408255975
553.0,-0.004020273253241502
552.0,0.000869458712629001
551.0,0.005330978174470591
550.0,0.007049039429553483
549.0,0.005550862985963967
548.0,0.0022642234021015284
547.0,-0.0013875234866409514
546.0,-0.004794110388711914
545.0,-0.007918390645599072
544.0,-0.01068149313144362
543.0,-0.012795058145412597
542.0,-0.014562538127610214
541.0,-0.016364679456294162
540.0,-0.017325554561722356
539.0,-0.01602996307602389
538.0,-0.013090138125055883
537.0,-0.01110502981598005
536.0,-0.011316643366872103
535.0,-0.012457578200773423
534.0,-0.01296369982577783
533.0,-0.013174409878867088
532.0,-0.013427127070696265
531.0,-0.01266853389633038
530.0,-0.010172703286778884
529.0,-0.007491733295335923
528.0,-0.0067226922016847546
527.0,-0.007747778000740002
526.0,-0.009068276192218505
525.0,-0.009578360794542107
524.0,-0.008855563996212457
523.0,-0.00659438618413688
522.0,-0.002900068611387585
521.0,0.0012177301682640973
520.0,0.00484762310854614
519.0,0.0075790439479759275
518.0,0.008419542825660153
517.0,0.006079041198713275
516.0,0.0012612837441823288
515.0,-0.0028137792246734072
514.0,-0.0029863408567849525
513.0,0.0007824344698965646
512.0,0.006079041198713275
511.0,0.010728208358306901
510.0,0.014124642691606404
509.0,0.016960383953898095
508.0,0.020315076172974234
507.0,0.024154774532432866
506.0,0.026456531467510258
505.0,0.02516604495145991
504.0,0.0209982515252789
503.0,0.016644385668211692
502.0,0.013900374944870508
501.0,0.011931796607364653
500.0,0.009527946474380489
499.0,0.007313960837872058
498.0,0.00696076819309055
497.0,0.008862564879688284
496.0,0.01215504982870197
495.0,0.015517693597737248
494.0,0.017141057687924732
493.0,0.016058141016111804
492.0,0.013317820220494436
491.0,0.011351874764248926
490.0,0.010594681998483901
489.0,0.008463824699968647
488.0,0.0033570086445275926
487.0,-0.0016039241497978196
486.0,-0.00121432528617893
485.0,0.00577085918230158
484.0,0.01547268665620738
483.0,0.02296266477531872
482.0,0.02562649291857677
481.0,0.023695883447997224
480.0,0.018725167293411005
479.0,0.012736045877764557
478.0,0.00762324020119709
477.0,0.004101676353562844
476.0,0.0020459959305969555
475.0,0.002089632653256679
474.0,0.005726851026829571
473.0,0.01264661126420652
472.0,0.01958753839310856
471.0,0.02277955336461468
470.0,0.021317434843055594
469.0,0.017412209298337533
468.0,0.013541787262693505
467.0,0.010683695010048622
466.0,0.008995559669244813
465.0,0.008818242332126802
464.0,0.010060986715464404
463.0,0.011931796607364653
462.0,0.013317820220494436
461.0,0.01403492169512921
460.0,0.014124642691606404
459.0,0.013317820220494436
458.0,0.010550182333308289
457.0,0.00696076819309055
456.0,0.0035758960449088217
455.0,0.0028758443407954637
454.0,0.005462895701502157
453.0,0.008906891951112605
452.0,0.01046119667949763
451.0,0.009439170005980158
450.0,0.007490664932224611
