cm-1,A
4000.0,0.001915112063444413
3999.0,0.0018278780605593958
3998.0,0.0017406615763013722
3997.0,0.0016970599014589638
3996.0,0.001609869681952425
3995.0,0.0015662811355310335
3994.0,0.0015226969634936083
3993.0,0.0014791171649619628
3992.0,0.0015226969634936083
3991.0,0.001609869681952425
3990.0,0.0016970599014589638
3989.0,0.0017842676290416026
3988.0,0.0018278780605593958
3987.0,0.0017842676290416026
3986.0,0.0017842676290416026
3985.0,0.0018278780605593958
3984.0,0.0018278780605593958
3983.0,0.0018714928717336043
3982.0,0.0018714928717336043
3981.0,0.0018278780605593958
3980.0,0.0018278780605593958
3979.0,0.0018278780605593958
3978.0,0.0018278780605593958
3977.0,0.0017406615763013722
3976.0,0.0016534626036355249
3975.0,0.001609869681952425
3974.0,0.0015662811355310335
3973.0,0.0015662811355310335
3972.0,0.001609869681952425
3971.0,0.0016534626036355249
3970.0,0.0016970599014589638
3969.0,0.0017406615763013722
3968.0,0.0017406615763013722
3967.0,0.0017406615763013722
3966.0,0.0017406615763013722
3965.0,0.0017406615763013722
3964.0,0.0017406615763013722
3963.0,0.0017406615763013722
3962.0,0.0016970599014589638
3961.0,0.0016534626036355249
3960.0,0.0016534626036355249
3959.0,0.0016534626036355249
3958.0,0.0016534626036355249
3957.0,0.0016534626036355249
3956.0,0.001609869681952425
3955.0,0.0015662811355310335
3954.0,0.0015226969634936083
3953.0,0.0015226969634936083
3952.0,0.0015662811355310335
3951.0,0.0015662811355310335
3950.0,0.0014791171649619628
3949.0,0.0013919706849057079
3948.0,0.0012177301682640973
3947.0,0.0011306361176557367
3946.0,0.0011306361176557367
3945.0,0.0012177301682640973
3944.0,0.0013919706849057079
3943.0,0.0014355417390583547
3942.0,0.0013919706849057079
3941.0,0.0012612837441823288
3940.0,0.001304841688344327
3939.0,0.0014355417390583547
3938.0,0.0015226969634936083
3937.0,0.0014355417390583547
3936.0,0.001304841688344327
3935.0,0.0012177301682640973
3934.0,0.0012612837441823288
3933.0,0.001348404001626502
3932.0,0.0014791171649619628
3931.0,0.0015226969634936083
3930.0,0.0014355417390583547
3929.0,0.0013919706849057079
3928.0,0.001348404001626502
3927.0,0.0014355417390583547
3926.0,0.0015662811355310335
3925.0,0.001609869681952425
3924.0,0.0015226969634936083
3923.0,0.0014355417390583547
3922.0,0.0015226969634936083
3921.0,0.0016970599014589638
3920.0,0.001915112063444413
3919.0,0.0020023635919956817
3918.0,0.0020459959305969555
3917.0,0.0020023635919956817
3916.0,0.0020023635919956817
3915.0,0.0020459959305969555
3914.0,0.0021332737608552588
3913.0,0.0022205691343961664
3912.0,0.0022642234021015284
3911.0,0.0021332737608552588
3910.0,0.0019587356365717845
3909.0,0.0016970599014589638
3908.0,0.0014355417390583547
3907.0,0.0012612837441823288
3906.0,0.0012177301682640973
3905.0,0.001304841688344327
3904.0,0.001348404001626502
3903.0,0.001304841688344327
3902.0,0.0012177301682640973
3901.0,0.0012612837441823288
3900.0,0.001348404001626502
3899.0,0.0013919706849057079
3898.0,0.001348404001626502
3897.0,0.001304841688344327
3896.0,0.001304841688344327
3895.0,0.0012612837441823288
3894.0,0.0012177301682640973
3893.0,0.0011741809597138886
3892.0,0.0012612837441823288
3891.0,0.0012612837441823288
3890.0,0.0011741809597138886
3889.0,0.0012612837441823288
3888.0,0.0015662811355310335
3887.0,0.0018278780605593958
3886.0,0.0018278780605593958
3885.0,0.0015226969634936083
3884.0,0.0011306361176557367
3883.0,0.0010435595295137379
3882.0,0.001304841688344327
3881.0,0.0015226969634936083
3880.0,0.0014791171649619628
3879.0,0.0012177301682640973
3878.0,0.0010000277816797354
3877.0,0.0010870956412141197
3876.0,0.0012612837441823288
3875.0,0.001304841688344327
3874.0,0.0010870956412141197
3873.0,0.000869458712629001
3872.0,0.000869458712629001
3871.0,0.0011741809597138886
3870.0,0.0014355417390583547
3869.0,0.001348404001626502
3868.0,0.0011306361176557367
3867.0,0.0012177301682640973
3866.0,0.0015226969634936083
3865.0,0.0016970599014589638
3864.0,0.001609869681952425
3863.0,0.0013919706849057079
3862.0,0.0012612837441823288
3861.0,0.0012612837441823288
3860.0,0.001348404001626502
3859.0,0.0014355417390583547
3858.0,0.0014355417390583547
3857.0,0.001304841688344327
3856.0,0.0012177301682640973
3855.0,0.001348404001626502
3854.0,0.0016970599014589638
3853.0,0.0016970599014589638
3852.0,0.001348404001626502
3851.0,0.0013919706849057079
3850.0,0.0017406615763013722
3849.0,0.0020023635919956817
3848.0,0.001915112063444413
3847.0,0.0017406615763013722
3846.0,0.0016534626036355249
3845.0,0.001609869681952425
3844.0,0.0014791171649619628
3843.0,0.0012612837441823288
3842.0,0.000869458712629001
3841.0,0.0005649501236701937
3840.0,0.0004779868710962365
3839.0,0.0006519307932786322
3838.0,0.0009129773741116676
3837.0,0.0010435595295137379
3836.0,0.0011306361176557367
3835.0,0.0012612837441823288
3834.0,0.0013919706849057079
3833.0,0.0015662811355310335
3832.0,0.0016534626036355249
3831.0,0.0016534626036355249
3830.0,0.0015662811355310335
3829.0,0.0015662811355310335
3828.0,0.0015662811355310335
3827.0,0.0015226969634936083
3826.0,0.001304841688344327
3825.0,0.0009565003968372565
3824.0,0.0008259444115150671
3823.0,0.0010000277816797354
3822.0,0.0013919706849057079
3821.0,0.0014791171649619628
3820.0,0.0011306361176557367
3819.0,0.000869458712629001
3818.0,0.0010870956412141197
3817.0,0.001609869681952425
3816.0,0.0019587356365717845
3815.0,0.001915112063444413
3814.0,0.0018278780605593958
3813.0,0.001915112063444413
3812.0,0.0020459959305969555
3811.0,0.001915112063444413
3810.0,0.001609869681952425
3809.0,0.0014791171649619628
3808.0,0.0015662811355310335
3807.0,0.001609869681952425
3806.0,0.0014355417390583547
3805.0,0.0012177301682640973
3804.0,0.0013919706849057079
3803.0,0.0018278780605593958
3802.0,0.0021769192542746563
3801.0,0.0020023635919956817
3800.0,0.0014791171649619628
3799.0,0.001304841688344327
3798.0,0.0015226969634936083
3797.0,0.0017842676290416026
3796.0,0.0017406615763013722
3795.0,0.001609869681952425
3794.0,0.001609869681952425
3793.0,0.0017406615763013722
3792.0,0.001915112063444413
3791.0,0.001915112063444413
3790.0,0.0017842676290416026
3789.0,0.0016534626036355249
3788.0,0.001609869681952425
3787.0,0.0016534626036355249
3786.0,0.0016970599014589638
3785.0,0.0017406615763013722
3784.0,0.0016534626036355249
3783.0,0.0015226969634936083
3782.0,0.0015226969634936083
3781.0,0.001609869681952425
3780.0,0.0017406615763013722
3779.0,0.0017406615763013722
3778.0,0.001609869681952425
3777.0,0.0015226969634936083
3776.0,0.0015662811355310335
3775.0,0.0016534626036355249
3774.0,0.0016534626036355249
3773.0,0.001609869681952425
3772.0,0.0016534626036355249
3771.0,0.0016970599014589638
3770.0,0.0017406615763013722
3769.0,0.001609869681952425
3768.0,0.0015662811355310335
3767.0,0.0016534626036355249
3766.0,0.0018278780605593958
3765.0,0.0018278780605593958
3764.0,0.0017406615763013722
3763.0,0.0016534626036355249
3762.0,0.0017406615763013722
3761.0,0.0019587356365717845
3760.0,0.002089632653256679
3759.0,0.0020459959305969555
3758.0,0.0018278780605593958
3757.0,0.0014791171649619628
3756.0,0.0012177301682640973
3755.0,0.0009565003968372565
3754.0,0.0008259444115150671
3753.0,0.0008259444115150671
3752.0,0.0011306361176557367
3751.0,0.0015226969634936083
3750.0,0.0016970599014589638
3749.0,0.001609869681952425
3748.0,0.0015662811355310335
3747.0,0.0017842676290416026
3746.0,0.0022642234021015284
3745.0,0.0027447101798967477
3744.0,0.0026573093983774942
3743.0,0.0021769192542746563
3742.0,0.0019587356365717845
3741.0,0.0020459959305969555
3740.0,0.0018714928717336043
3739.0,0.0014355417390583547
3738.0,0.0010000277816797354
3737.0,0.000869458712629001
3736.0,0.000869458712629001
3735.0,0.000869458712629001
3734.0,0.0009565003968372565
3733.0,0.001304841688344327
3732.0,0.0017406615763013722
3731.0,0.0020023635919956817
3730.0,0.0020459959305969555
3729.0,0.0019587356365717845
3728.0,0.001915112063444413
3727.0,0.0017842676290416026
3726.0,0.0016534626036355249
3725.0,0.0015226969634936083
3724.0,0.0015226969634936083
3723.0,0.0015662811355310335
3722.0,0.0016534626036355249
3721.0,0.0017406615763013722
3720.0,0.0018714928717336043
3719.0,0.0019587356365717845
3718.0,0.0020023635919956817
3717.0,0.0019587356365717845
3716.0,0.0018278780605593958
3715.0,0.0016534626036355249
3714.0,0.0015662811355310335
3713.0,0.0015662811355310335
3712.0,0.0017406615763013722
3711.0,0.001915112063444413
3710.0,0.0020023635919956817
3709.0,0.002089632653256679
3708.0,0.0022642234021015284
3707.0,0.0024388843664115978
3706.0,0.0025262411970197185
3705.0,0.0025262411970197185
3704.0,0.002569926202528716
3703.0,0.0026573093983774942
3702.0,0.0027447101798967477
3701.0,0.002701007590486082
3700.0,0.002569926202528716
3699.0,0.0025262411970197185
3698.0,0.002569926202528716
3697.0,0.002613615602686581
3696.0,0.0025262411970197185
3695.0,0.002395212539545666
3694.0,0.0022642234021015284
3693.0,0.002089632653256679
3692.0,0.0019587356365717845
3691.0,0.0020023635919956817
3690.0,0.0021769192542746563
3689.0,0.002395212539545666
3688.0,0.002482560585275184
3687.0,0.002569926202528716
3686.0,0.0027884171674950053
3685.0,0.0030070181092942683
3684.0,0.0030944893043338695
3683.0,0.003050751504618754
3682.0,0.0030070181092942683
3681.0,0.0029632891174733444
3680.0,0.0027447101798967477
3679.0,0.002351545103793873
3678.0,0.0020459959305969555
3677.0,0.0021332737608552588
3676.0,0.002569926202528716
3675.0,0.002701007590486082
3674.0,0.0024388843664115978
3673.0,0.002482560585275184
3672.0,0.0030070181092942683
3671.0,0.0036634819042162814
3670.0,0.00401400208620073
3669.0,0.003926345514724705
3668.0,0.0037510854308679953
3667.0,0.003926345514724705
3666.0,0.004233220950025984
3665.0,0.004452550524862486
3664.0,0.0044964297349936455
3663.0,0.0044964297349936455
3662.0,0.0044964297349936455
3661.0,0.0044964297349936455
3660.0,0.004452550524862486
3659.0,0.004540313378935901
3658.0,0.004803708402820517
3657.0,0.005199100705396198
3656.0,0.00541891874010525
3655.0,0.0052870145684298375
3654.0,0.005067263269958211
3653.0,0.004803708402820517
3652.0,0.004628093971837721
3651.0,0.004628093971837721
3650.0,0.004935465843858511
3649.0,0.005243055412371911
3648.0,0.00537494623139545
3647.0,0.005594853310833647
3646.0,0.005946936412324799
3645.0,0.006343371384537999
3644.0,0.00656376950238835
3643.0,0.006607862550997545
3642.0,0.00656376950238835
3641.0,0.006475596832934416
3640.0,0.00656376950238835
3639.0,0.006828394969235152
3638.0,0.007049039429553483
3637.0,0.007225635744644521
3636.0,0.007358130121602358
3635.0,0.0074464821678643656
3634.0,0.0074464821678643656
3633.0,0.007269796045857202
3632.0,0.007049039429553483
3631.0,0.007093181776687496
3630.0,0.007667440952535687
3629.0,0.008375265465994541
3628.0,0.008685301823389224
3627.0,0.0087296108049002
3626.0,0.008995559669244813
3625.0,0.009306039320248427
3624.0,0.00939478857608056
3623.0,0.009350411681145587
3622.0,0.009261671492462709
3621.0,0.009350411681145587
3620.0,0.009616741093766423
3619.0,0.009883233932095559
3618.0,0.01001654169860089
3617.0,0.010105436281226954
3616.0,0.010283280051895272
3615.0,0.010594681998483901
3614.0,0.01086177578421088
3613.0,0.011039929609661936
3612.0,0.011129033935354915
3611.0,0.011262724711199823
3610.0,0.011619434777991433
3609.0,0.01215504982870197
3608.0,0.012736045877764557
3607.0,0.013138729709955221
3606.0,0.013362604389846044
3605.0,0.013541787262693505
3604.0,0.01372104409400876
3603.0,0.01385553528947936
3602.0,0.01403492169512921
3601.0,0.014169510141607944
3600.0,0.014304140310157809
3599.0,0.014349026309051105
3598.0,0.014349026309051105
3597.0,0.014438812226654996
3596.0,0.014618439768003144
3595.0,0.014932966849499074
3594.0,0.015292705517326866
3593.0,0.015607721475734415
3592.0,0.01578783323856614
3591.0,0.015922966097169144
3590.0,0.016103208673694303
3589.0,0.016509028184833463
3588.0,0.016960383953898095
3587.0,0.017186237868137555
3586.0,0.017186237868137555
3585.0,0.017231422748988034
3584.0,0.017547848615010242
3583.0,0.01800028587012159
3582.0,0.018362575344230914
3581.0,0.018725167293411005
3580.0,0.01899731005860028
3579.0,0.019269623464054586
3578.0,0.01958753839310856
3577.0,0.019860222254245663
3576.0,0.02004210665933459
3575.0,0.02022406727031445
3574.0,0.02036058777709271
3573.0,0.020406104151069693
3572.0,0.020406104151069693
3571.0,0.020315076172974234
3570.0,0.02022406727031445
3569.0,0.02036058777709271
3568.0,0.020861530453190058
3567.0,0.0214542995372613
3566.0,0.021728158389364705
3565.0,0.021865152601710403
3564.0,0.022093572362881675
3563.0,0.02245929405346514
3562.0,0.02296266477531872
3561.0,0.02342078135989012
3560.0,0.023833499868024743
3559.0,0.024200690320592466
3558.0,0.024522236834125355
3557.0,0.024798037742147727
3556.0,0.02498200236711723
3555.0,0.02516604495145991
3554.0,0.02539620791296726
3553.0,0.02558042614771394
3552.0,0.025718641122169483
3551.0,0.025718641122169483
3550.0,0.02562649291857677
3549.0,0.025718641122169483
3548.0,0.025949097207122573
3547.0,0.026410376572743033
3546.0,0.02696455931306696
3545.0,0.02751945012352408
3544.0,0.027936083991977778
3543.0,0.028214062120885508
3542.0,0.02839947976994095
3541.0,0.028538594975413334
3540.0,0.02858497661500481
3539.0,0.028770552723758724
3538.0,0.02904906565457588
3537.0,0.029467170231675777
3536.0,0.029885677714903025
3535.0,0.03025802323714588
3534.0,0.030537492025363155
3533.0,0.030770520137356927
3532.0,0.030957032694186815
3531.0,0.031096969696171817
3530.0,0.031236951802751545
3529.0,0.03147035562516054
3528.0,0.03175060589208267
3527.0,0.03193753992355086
3526.0,0.032031037121307726
3525.0,0.03217132066984485
3524.0,0.032545631817259224
3523.0,0.033060836978886954
3522.0,0.03357665405630694
3521.0,0.033952178923546183
3520.0,0.03423403581731388
3519.0,0.03456310022373987
3518.0,0.03489241415094413
3517.0,0.03531618502395939
3516.0,0.035646070707806565
3515.0,0.03583468937826462
3514.0,0.03588185684851508
3513.0,0.03583468937826462
3512.0,0.03583468937826462
3511.0,0.03597620715996652
3510.0,0.03625938114211591
3509.0,0.03658998431977123
3508.0,0.03682628362474838
3507.0,0.037062711569998186
3506.0,0.037346595106788616
3505.0,0.03772539537668518
3504.0,0.03810452633214956
3503.0,0.03848398855105106
3502.0,0.03876880295533702
3501.0,0.039006291057664066
3500.0,0.039338992729018196
3499.0,0.039719535563357944
3498.0,0.04019568349166214
3497.0,0.04057697805689475
3496.0,0.04091088563260792
3495.0,0.041101805289228244
3494.0,0.041340572947066834
3493.0,0.04153168163305643
3492.0,0.04181850243505214
3491.0,0.042057664554595586
3490.0,0.04229695845116854
3489.0,0.042584285277331047
3488.0,0.04287180232318688
3487.0,0.04315950984076644
3486.0,0.04344740808260106
3485.0,0.0437835307566099
3484.0,0.044167989767578186
3483.0,0.04469717723830824
3482.0,0.04527520902093718
3481.0,0.04575749056067524
3480.0,0.046047116768076934
3479.0,0.04624030826677128
3478.0,0.04638525830935958
3477.0,0.04653025674659861
3476.0,0.04672366333269573
3475.0,0.04701393480294458
3474.0,0.047352830241056854
3473.0,0.04774046340917959
3472.0,0.04807992647970649
3471.0,0.04837110616336182
3470.0,0.0486139051197072
3469.0,0.04885683989244738
3468.0,0.049148541111453614
3467.0,0.04944043838819989
3466.0,0.04973253198641148
3465.0,0.050073556332087765
3464.0,0.050414848673348
3463.0,0.05085404758005607
3462.0,0.051244819831730126
3461.0,0.0515870342213991
3460.0,0.0518316382728683
3459.0,0.05207638016827354
3458.0,0.052419250695677544
3457.0,0.05290953578037816
3456.0,0.05340037498486727
3455.0,0.05379344615721715
3454.0,0.05399011523423525
3453.0,0.05413767551038262
3452.0,0.05433450056786593
3451.0,0.05462990550969615
3450.0,0.0549747987575373
3449.0,0.05541863577307371
3448.0,0.055912320584565744
3447.0,0.05635711724787096
3446.0,0.05670338543334519
3445.0,0.05690137699451481
3444.0,0.057198533682059516
3443.0,0.05754547365752294
3442.0,0.05794231615860479
3441.0,0.0582898510583536
3440.0,0.058538260652670315
3439.0,0.058836539841526925
3438.0,0.059135024033278416
3437.0,0.05953332233647113
3436.0,0.05983228596592505
3435.0,0.060081579630943294
3434.0,0.06033101647767336
3433.0,0.06058059667068294
3432.0,0.06083032037482261
3431.0,0.0611301784870133
3430.0,0.06148027482350815
3429.0,0.06193081377661436
3428.0,0.062381820606176586
3427.0,0.06283329628496737
3426.0,0.06318476880236723
3425.0,0.06343599486473406
3424.0,0.06358680028852026
3423.0,0.0636873663378068
3422.0,0.06378795567975115
3421.0,0.06403953101083348
3420.0,0.06439198148213077
3419.0,0.06469430971007495
3418.0,0.06494641076893504
3417.0,0.06514819703433927
3416.0,0.0653500770992892
3415.0,0.06550154875643233
3414.0,0.06565307326174441
3413.0,0.06580465065211571
3412.0,0.06605739725873905
3411.0,0.06636088747507496
3410.0,0.0666645899223488
3409.0,0.06686717627326577
3408.0,0.06686717627326577
3407.0,0.06686717627326577
3406.0,0.06681652082538614
3405.0,0.06686717627326577
3404.0,0.06696850489759454
3403.0,0.06706985716921054
3402.0,0.0671712330991534
3401.0,0.0671712330991534
3400.0,0.0671712330991534
3399.0,0.0671712330991534
3398.0,0.06727263269847072
3397.0,0.06742477650170953
3396.0,0.0675769736232612
3395.0,0.0676277178520861
3394.0,0.06752623532284674
3393.0,0.06742477650170953
3392.0,0.06737405597821788
3391.0,0.06742477650170953
3390.0,0.06747550294945781
3389.0,0.06752623532284674
3388.0,0.06742477650170953
3387.0,0.06727263269847072
3386.0,0.06712054217620067
3385.0,0.06696850489759454
3384.0,0.06691783763020887
3383.0,0.06686717627326577
3382.0,0.06676587128519196
3381.0,0.06656333217371957
3380.0,0.06636088747507496
3379.0,0.06615853710127872
3378.0,0.06600683616875758
3377.0,0.0659562809644747
3376.0,0.06590573164451952
3375.0,0.0659562809644747
3374.0,0.06590573164451952
3373.0,0.06580465065211571
3372.0,0.06560255921901192
3371.0,0.06529959828457499
3370.0,0.06509774167768612
3369.0,0.06499684854634524
3368.0,0.06499684854634524
3367.0,0.06499684854634524
3366.0,0.06494641076893504
3365.0,0.06479513257341862
3364.0,0.06459351024765114
3363.0,0.06439198148213077
3362.0,0.06424089625468832
3361.0,0.06403953101083348
3360.0,0.06378795567975115
3359.0,0.06358680028852026
3358.0,0.06343599486473406
3357.0,0.06328524178879635
3356.0,0.06313454102437754
3355.0,0.06293368798257193
3354.0,0.06278310913729457
3353.0,0.06268275223750575
3352.0,0.06258241852286206
3351.0,0.06243196139961715
3350.0,0.062331685600995
3349.0,0.062281556382736136
3348.0,0.06223143295006417
3347.0,0.06208109735221967
3346.0,0.061880730805688344
3345.0,0.06163040254819374
3344.0,0.06143024377893891
3343.0,0.061380218497318895
3342.0,0.06143024377893891
3341.0,0.06148027482350815
3340.0,0.06148027482350815
3339.0,0.06128018521761747
3338.0,0.06108018775522828
3337.0,0.06083032037482261
3336.0,0.06063052992534024
3335.0,0.060430831344098435
3334.0,0.060231224546650086
3333.0,0.05993198626064755
3332.0,0.05968277842578207
3331.0,0.05938391766259232
3330.0,0.05918479134919874
3329.0,0.05908526241971446
3328.0,0.05898575629443026
3327.0,0.058936011780097886
3326.0,0.058936011780097886
3325.0,0.0588862729628985
3324.0,0.058836539841526925
3323.0,0.05863766428823891
3322.0,0.0583395216116076
3321.0,0.05804158346918653
3320.0,0.057743849580535134
3319.0,0.05749589383191922
3318.0,0.05729763111133224
3317.0,0.05709945885970602
3316.0,0.05690137699451481
3315.0,0.0567528748621382
3314.0,0.05660442349104544
3313.0,0.056456022846545606
3312.0,0.05635711724787096
3311.0,0.05625823416868636
3310.0,0.056159373598738904
3309.0,0.05610995175152733
3308.0,0.05606053552778367
3307.0,0.05601112492622806
3306.0,0.055961719945581745
3305.0,0.055912320584565744
3304.0,0.055764156206519866
3303.0,0.055566682299785564
3302.0,0.05536929814372171
3301.0,0.055172003656783764
3300.0,0.05507339001378431
3299.0,0.0549255115212699
3298.0,0.05477768336465916
3297.0,0.05458065739693696
3296.0,0.05438372077326825
3295.0,0.054186873412661596
3294.0,0.054088483180726676
3293.0,0.05403929642243144
3292.0,0.05399011523423525
3291.0,0.05399011523423525
3290.0,0.05394093961487645
3289.0,0.05379344615721715
3288.0,0.0534986094304124
3287.0,0.053203972728539606
3286.0,0.05290953578037816
3285.0,0.052762392129333646
3284.0,0.052762392129333646
3283.0,0.05281143447390635
3282.0,0.05271335532220167
3281.0,0.05256627811294923
3280.0,0.052419250695677544
3279.0,0.05232126006306337
3278.0,0.05222329153526162
3277.0,0.052027420754219955
3276.0,0.05178270644002936
3275.0,0.05153812993871654
3274.0,0.05139145012356372
3273.0,0.05129369109514803
3272.0,0.05129369109514803
3271.0,0.05129369109514803
3270.0,0.051244819831730126
3269.0,0.051098239029786274
3268.0,0.05100054597304693
3267.0,0.050902874887084115
3266.0,0.050902874887084115
3265.0,0.050805225762017736
3264.0,0.05075640943173498
3263.0,0.05075640943173498
3262.0,0.05085404758005607
3261.0,0.05100054597304693
3260.0,0.05100054597304693
3259.0,0.050902874887084115
3258.0,0.050707598587974356
3257.0,0.05051241005349638
3256.0,0.050414848673348
3255.0,0.050317309204795935
3254.0,0.05026854768429301
3253.0,0.050317309204795935
3252.0,0.050414848673348
3251.0,0.050414848673348
3250.0,0.050317309204795935
3249.0,0.05002482217034632
3248.0,0.04973253198641148
3247.0,0.04958646063061889
3246.0,0.04958646063061889
3245.0,0.04963514562387683
3244.0,0.04958646063061889
3243.0,0.04939177521576932
3242.0,0.049148541111453614
3241.0,0.048905443158337114
3240.0,0.04871106272232795
3239.0,0.048565334467987054
3238.0,0.04841965509660828
3237.0,0.048225491918274965
3236.0,0.04803141550708934
3235.0,0.0478374257855374
3234.0,0.047691990337874746
3233.0,0.047595060422975566
3232.0,0.04749815213697639
3231.0,0.04730440041308315
3230.0,0.04711073508906982
3229.0,0.04686877481655505
3228.0,0.04667530361081473
3227.0,0.04657860031896477
3226.0,0.046481918555007384
3225.0,0.04624030826677128
3224.0,0.045902279520810385
3223.0,0.045516282844447975
3222.0,0.04522701031028298
3221.0,0.04503426894157925
3220.0,0.04503426894157925
3219.0,0.04508244626504121
3218.0,0.04508244626504121
3217.0,0.04503426894157925
3216.0,0.044937930324967956
3215.0,0.04484161307420642
3214.0,0.04469717723830824
3213.0,0.044456557540257124
3212.0,0.044167989767578186
3211.0,0.04387961360698034
3210.0,0.04363944632667782
3209.0,0.04339941178682327
3208.0,0.04325545471730896
3207.0,0.04315950984076644
3206.0,0.0431115453499229
3205.0,0.0431115453499229
3204.0,0.042967683653061695
3203.0,0.042775942156833
3202.0,0.04248848854552012
3201.0,0.042201225070002124
3200.0,0.04196198390166317
3199.0,0.0417706858116178
3198.0,0.041579471947481794
3197.0,0.04138834223512067
3196.0,0.04129280891271536
3195.0,0.04124505013091051
3194.0,0.041197296600497646
3193.0,0.041101805289228244
3192.0,0.04091088563260792
3191.0,0.040672354027829094
3190.0,0.04038628892895613
3189.0,0.0400527842915015
3188.0,0.03981472339538916
3187.0,0.03957679292217042
3186.0,0.039338992729018196
3185.0,0.03910132267333921
3184.0,0.038816290187564384
3183.0,0.03848398855105106
3182.0,0.03824678581321739
3181.0,0.038057116858612794
3180.0,0.038057116858612794
3179.0,0.03810452633214956
3178.0,0.038057116858612794
3177.0,0.03786753070176463
3176.0,0.037583306554248797
3175.0,0.03739392707587297
3174.0,0.037299268295658994
3173.0,0.037251946641359446
3172.0,0.03720463014276687
3171.0,0.0371100126082089
3170.0,0.03701541568300293
3169.0,0.036873558918095295
3168.0,0.03658998431977123
3167.0,0.03625938114211591
3166.0,0.03588185684851508
3165.0,0.03559892883726867
3164.0,0.035363296211498474
3163.0,0.03517488211661135
3162.0,0.03498654972775217
3161.0,0.03484535401307465
3160.0,0.03475124903287918
3159.0,0.03465716443937783
3158.0,0.03461012978487776
3157.0,0.034516075754861264
3156.0,0.03432802877989327
3155.0,0.03409308450480819
3154.0,0.03385826726096752
3153.0,0.03362357691107709
3152.0,0.03343591590268957
3151.0,0.033201453616638954
3150.0,0.0329671178412978
3149.0,0.03282657704446046
3148.0,0.03277974021703267
3147.0,0.03273290844021437
3146.0,0.032686081712916426
3145.0,0.03249882527715853
3144.0,0.03226486821611996
3143.0,0.031984286006358165
3142.0,0.03170388495374454
3141.0,0.03147035562516054
3140.0,0.031236951802751545
3139.0,0.031096969696171817
3138.0,0.030957032694186815
3137.0,0.030910397045078586
3136.0,0.030863766403287585
3135.0,0.030770520137356927
3134.0,0.03058408764601861
3133.0,0.030444315779156517
3132.0,0.03025802323714588
3131.0,0.03002526987828502
3130.0,0.029746130405213123
3129.0,0.02942069428514915
3128.0,0.029095501846216454
3127.0,0.02890978686288448
3126.0,0.028770552723758724
3125.0,0.02872415126189476
3124.0,0.028770552723758724
3123.0,0.02872415126189476
3122.0,0.028677754757187035
3121.0,0.028538594975413334
3120.0,0.028353117935693284
3119.0,0.028167720075074953
3118.0,0.02798240132598462
3117.0,0.027843464140506313
3116.0,0.027658283674251827
3115.0,0.02751945012352408
3114.0,0.027426919073445077
3113.0,0.027334407733889066
3112.0,0.027288159452933503
3111.0,0.027149444152769986
3110.0,0.02691835039863255
3109.0,0.02664120011360227
3108.0,0.02636422658259252
3107.0,0.02617967564731627
3106.0,0.026041313893296225
3105.0,0.026041313893296225
3104.0,0.025949097207122573
3103.0,0.025764722556973707
3102.0,0.02553436426275746
3101.0,0.025304128090317013
3100.0,0.02516604495145991
3099.0,0.02516604495145991
3098.0,0.025258095499050004
3097.0,0.025304128090317013
3096.0,0.025258095499050004
3095.0,0.025074013910237447
3094.0,0.024936003904763915
3093.0,0.024798037742147727
3092.0,0.02475205875931885
3091.0,0.024660115394541604
3090.0,0.024476287039668643
3089.0,0.024200690320592466
3088.0,0.023879381700184332
3087.0,0.023604163388120325
3086.0,0.02342078135989012
3085.0,0.023374947949272418
3084.0,0.023374947949272418
3083.0,0.02342078135989012
3082.0,0.023374947949272418
3081.0,0.023237476732539397
3080.0,0.023054249440757957
3079.0,0.02282532397981263
3078.0,0.022688026603074007
3077.0,0.02255077261765881
3076.0,0.02245929405346514
3075.0,0.022413561996148967
3074.0,0.022367834754000393
3073.0,0.02227639471115217
3072.0,0.022230681908425698
3071.0,0.0221849739168134
3070.0,0.0221849739168134
3069.0,0.0221849739168134
3068.0,0.022093572362881675
3067.0,0.021956506090037076
3066.0,0.021773818325474092
3065.0,0.02159120737696063
3064.0,0.0214542995372613
3063.0,0.021317434843055594
3062.0,0.02122621566987748
3061.0,0.021089422824428272
3060.0,0.020952673052035298
3059.0,0.020770406977844713
3058.0,0.020542681902151694
3057.0,0.020406104151069693
3056.0,0.02036058777709271
3055.0,0.020315076172974234
3054.0,0.020178569969774962
3053.0,0.019996628416253603
3052.0,0.019723858922159776
3051.0,0.01958753839310856
3050.0,0.01949668180660491
3049.0,0.019451260640229506
3048.0,0.019315025636685412
3047.0,0.019178833355664393
3046.0,0.0190880622231564
3045.0,0.019042683770379876
3044.0,0.0190880622231564
3043.0,0.019042683770379876
3042.0,0.018906576854070378
3041.0,0.018725167293411005
3040.0,0.01858915983411169
3039.0,0.018498511851753108
3038.0,0.01840788278591865
3037.0,0.018271974638383703
3036.0,0.018181392829336396
3035.0,0.01809082990920774
3034.0,0.01809082990920774
3033.0,0.018045555530026514
3032.0,0.017909760704207134
3031.0,0.017728766960431575
3030.0,0.017502630802287644
3029.0,0.017321806616515723
3028.0,0.017186237868137555
3027.0,0.017095882207371904
3026.0,0.017050711425501408
3025.0,0.017005545341335804
3024.0,0.016960383953898095
3023.0,0.016915227262211507
3022.0,0.01677978535189717
3021.0,0.016644385668211692
3020.0,0.016509028184833463
3019.0,0.016418813294209356
3018.0,0.01632861713980338
3017.0,0.016238439713835096
3016.0,0.016148281008528276
3015.0,0.016103208673694303
3014.0,0.016103208673694303
3013.0,0.016058141016111804
3012.0,0.016013078034810446
3011.0,0.015877917138889863
3010.0,0.015742798294583915
3009.0,0.015607721475734415
3008.0,0.015517693597737248
3007.0,0.015427684378367834
3006.0,0.01538268676325183
3005.0,0.015292705517326866
3004.0,0.015202742910707112
3003.0,0.015067833932588037
3002.0,0.014977917890464765
3001.0,0.014888020460646079
3000.0,0.014798141635428141
2999.0,0.014708281407112
2998.0,0.014663358264387139
2997.0,0.014618439768003144
2996.0,0.014573525916998342
2995.0,0.014573525916998342
2994.0,0.014573525916998342
2993.0,0.01452861671041239
2992.0,0.014573525916998342
2991.0,0.014618439768003144
2990.0,0.014663358264387139
2989.0,0.014708281407112
2988.0,0.014708281407112
2987.0,0.014708281407112
2986.0,0.014663358264387139
2985.0,0.014663358264387139
2984.0,0.014708281407112
2983.0,0.014843078722943437
2982.0,0.015067833932588037
2981.0,0.015292705517326866
2980.0,0.015562705203923999
2979.0,0.015832872853011715
2978.0,0.016103208673694303
2977.0,0.016373712875465518
2976.0,0.016644385668211692
2975.0,0.017095882207371904
2974.0,0.01759307113620534
2973.0,0.018136109008649592
2972.0,0.018679826740892747
2971.0,0.0192242260373785
2970.0,0.019814763052665052
2969.0,0.020542681902151694
2968.0,0.021271822861508305
2967.0,0.02204787879853809
2966.0,0.022871099419317753
2965.0,0.023695883447997224
2964.0,0.024476287039668643
2963.0,0.02521206778644225
2962.0,0.025856900097785074
2961.0,0.026502691267936695
2960.0,0.02710321556345563
2959.0,0.027612000892527133
2958.0,0.028075050815808744
2957.0,0.028445846553939003
2956.0,0.02872415126189476
2955.0,0.02890978686288448
2954.0,0.02904906565457588
2953.0,0.029141943003497595
2952.0,0.029281296279810798
2951.0,0.029560137048236124
2950.0,0.03002526987828502
2949.0,0.03067729388779794
2948.0,0.03147035562516054
2947.0,0.03249882527715853
2946.0,0.03376437590141812
2945.0,0.03531618502395939
2944.0,0.0371573187987575
2943.0,0.039338992729018196
2942.0,0.0417706858116178
2941.0,0.04450467081587295
2940.0,0.04754660357696672
2939.0,0.05075640943173498
2938.0,0.05423607688882637
2937.0,0.05789269101064454
2936.0,0.061830653609679764
2935.0,0.06605739725873905
2934.0,0.07068327324650436
2933.0,0.07566901529132153
2932.0,0.08092190762392604
2931.0,0.08655704514060414
2930.0,0.09258863922541383
2929.0,0.0990869322623309
2928.0,0.10612732120491852
2927.0,0.11379137583250243
2926.0,0.12216810850710624
2925.0,0.13135556160517425
2924.0,0.1415229581866595
2923.0,0.15267416921457633
2922.0,0.16481693015095633
2921.0,0.1778319206319825
2920.0,0.1912490276504053
2919.0,0.20425897913075608
2918.0,0.21559669824699146
2917.0,0.22366209037982476
2916.0,0.22709180502872828
2915.0,0.22555603107503486
2914.0,0.2196826878598488
2913.0,0.21091308491197136
2912.0,0.200797343699475
2911.0,0.19057497120296585
2910.0,0.18104868835982724
2909.0,0.1724368887452763
2908.0,0.16494389827988365
2907.0,0.1583902878315646
2906.0,0.1527358982292355
2905.0,0.1477030341730745
2904.0,0.1432711096171173
2903.0,0.13936258322624528
2902.0,0.13578566953867033
2901.0,0.1325325121409484
2900.0,0.1294790499872358
2899.0,0.12667939818460128
2898.0,0.12401322857151209
2897.0,0.12153565465853111
2896.0,0.11907213473291511
2895.0,0.11662251025166115
2894.0,0.1141301390960936
2893.0,0.11159583226295333
2892.0,0.10890877353227624
2891.0,0.1061827760325369
2890.0,0.1033635694704158
2889.0,0.10061729446673495
2888.0,0.09777947172068524
2887.0,0.09490603167212863
2886.0,0.09205147838772776
2885.0,0.08916223500731646
2884.0,0.08634506491338012
2883.0,0.08359869639612438
2882.0,0.08086958613938555
2881.0,0.0781575185941421
2880.0,0.07551395626608493
2879.0,0.07293775650699996
2878.0,0.07047889936889606
2877.0,0.06823711151882228
2876.0,0.06620911585658007
2875.0,0.06449273417528723
2874.0,0.06303410289212974
2873.0,0.06173051653708872
2872.0,0.06063052992534024
2871.0,0.05953332233647113
2870.0,0.058538260652670315
2869.0,0.057743849580535134
2868.0,0.05724807957018618
2867.0,0.057198533682059516
2866.0,0.05764465029232335
2865.0,0.05863766428823891
2864.0,0.0601813371786204
2863.0,0.062381820606176586
2862.0,0.06524912533642091
2861.0,0.06894915322260897
2860.0,0.07360609973031784
2859.0,0.07919861817434581
2858.0,0.08592141461088798
2857.0,0.09398837472858723
2856.0,0.10363915453068362
2855.0,0.11520463605101905
2854.0,0.1290696416513042
2853.0,0.14520830594601453
2852.0,0.16329620091026875
2851.0,0.18164212204164532
2850.0,0.1977052886025361
2849.0,0.20823919598709506
2848.0,0.2111248842245832
2847.0,0.20613979865733034
2846.0,0.19531548509305963
2845.0,0.1812464095022832
2844.0,0.16634300310712757
2843.0,0.15211900255462485
2842.0,0.13918303613546223
2841.0,0.12790202572577325
2840.0,0.11815903167507247
2839.0,0.10980261378997125
2838.0,0.10264786565568684
2837.0,0.09636748391576244
2836.0,0.09092559859909577
2835.0,0.086239113587677
2834.0,0.08212704480115218
2833.0,0.07862570458152551
2832.0,0.07551395626608493
2831.0,0.07273231918911849
2830.0,0.0702746216219956
2829.0,0.06798309356579857
2828.0,0.0658551882075229
2827.0,0.06388856832514578
2826.0,0.06208109735221967
2825.0,0.06048074738138154
2824.0,0.059035506507200575
2823.0,0.05769424710410598
2822.0,0.056406567231630955
2821.0,0.055172003656783764
2820.0,0.05403929642243144
2819.0,0.05290953578037816
2818.0,0.05188057561946402
2817.0,0.05085404758005607
2816.0,0.049927370249842395
2815.0,0.04900266601119507
2814.0,0.04817696468408794
2813.0,0.04740126547022694
2812.0,0.04672366333269573
2811.0,0.04599883231842972
2810.0,0.04522701031028298
2809.0,0.044456557540257124
2808.0,0.043735497301724546
2807.0,0.0431115453499229
2806.0,0.04248848854552012
2805.0,0.04196198390166317
2804.0,0.041436116778032606
2803.0,0.04091088563260792
2802.0,0.04038628892895613
2801.0,0.03986232513620536
2800.0,0.039338992729018196
2799.0,0.03876880295533702
2798.0,0.03824678581321739
2797.0,0.03777276864991497
2796.0,0.03739392707587297
2795.0,0.03701541568300293
2794.0,0.036542739883292485
2793.0,0.036117771071222604
2792.0,0.035646070707806565
2791.0,0.03522197797762394
2790.0,0.03484535401307465
2789.0,0.034469056377139484
2788.0,0.03409308450480819
2787.0,0.03367050483612166
2786.0,0.033295223342125535
2785.0,0.0329671178412978
2784.0,0.03263926003405038
2783.0,0.03226486821611996
2782.0,0.03184406285002961
2781.0,0.03147035562516054
2780.0,0.031143625385307683
2779.0,0.030863766403287585
2778.0,0.03063068826647264
2777.0,0.030397735151460825
2776.0,0.030118356253500123
2775.0,0.029792641193145286
2774.0,0.029513651152349718
2773.0,0.029281296279810798
2772.0,0.02904906565457588
2771.0,0.028816959143838528
2770.0,0.028538594975413334
2769.0,0.028306761050139073
2768.0,0.028075050815808744
2767.0,0.027889771597169544
2766.0,0.027658283674251827
2765.0,0.027426919073445077
2764.0,0.027149444152769986
2763.0,0.02691835039863255
2762.0,0.026687379547098322
2761.0,0.026595025589939425
2760.0,0.026502691267936695
2759.0,0.026410376572743033
2758.0,0.026318081496016443
2757.0,0.026225806029419818
2756.0,0.026087429580295085
2755.0,0.025902996205869
2754.0,0.025672564576383117
2753.0,0.02539620791296726
2752.0,0.02516604495145991
2751.0,0.02498200236711723
2750.0,0.024890010313838973
2749.0,0.02484402159331056
2748.0,0.02484402159331056
2747.0,0.024798037742147727
2746.0,0.02475205875931885
2745.0,0.024660115394541604
2744.0,0.024522236834125355
2743.0,0.024338466818941473
2742.0,0.024200690320592466
2741.0,0.02406295751688936
2740.0,0.023925268380126097
2739.0,0.023787622882622816
2738.0,0.023604163388120325
2737.0,0.023466619608062178
2736.0,0.023374947949272418
2735.0,0.023329119375188556
2734.0,0.023237476732539397
2733.0,0.023191662661933732
2732.0,0.02314585342378117
2731.0,0.02314585342378117
2730.0,0.02314585342378117
2729.0,0.023100049017062307
2728.0,0.02300845469384938
2727.0,0.022871099419317753
2726.0,0.022688026603074007
2725.0,0.02245929405346514
2724.0,0.022230681908425698
2723.0,0.022093572362881675
2722.0,0.02200219004126036
2721.0,0.021956506090037076
2720.0,0.021910826943857264
2719.0,0.021773818325474092
2718.0,0.021636852916117055
2717.0,0.021545566634771474
2716.0,0.0214542995372613
2715.0,0.02140867317992523
2714.0,0.021271822861508305
2713.0,0.021089422824428272
2712.0,0.020952673052035298
2711.0,0.02081596632558158
2710.0,0.020770406977844713
2709.0,0.020770406977844713
2708.0,0.020770406977844713
2707.0,0.020724852408976924
2706.0,0.02058821736556471
2705.0,0.020406104151069693
2704.0,0.02022406727031445
2703.0,0.02004210665933459
2702.0,0.01995115493504329
2701.0,0.019860222254245663
2700.0,0.019814763052665052
2699.0,0.019723858922159776
2698.0,0.019632973815224997
2697.0,0.01954210772389997
2696.0,0.01949668180660491
2695.0,0.01949668180660491
2694.0,0.01949668180660491
2693.0,0.01949668180660491
2692.0,0.019451260640229506
2691.0,0.019360432556262852
2690.0,0.019269623464054586
2689.0,0.019133445417920836
2688.0,0.019042683770379876
2687.0,0.01899731005860028
2686.0,0.019042683770379876
2685.0,0.019042683770379876
2684.0,0.0190880622231564
2683.0,0.019042683770379876
2682.0,0.019042683770379876
2681.0,0.01899731005860028
2680.0,0.018906576854070378
2679.0,0.018861217359339655
2678.0,0.018770512579999288
2677.0,0.018770512579999288
2676.0,0.018725167293411005
2675.0,0.018679826740892747
2674.0,0.018725167293411005
2673.0,0.018770512579999288
2672.0,0.018861217359339655
2671.0,0.018906576854070378
2670.0,0.018815862601645694
2669.0,0.018725167293411005
2668.0,0.01858915983411169
2667.0,0.018543833477873584
2666.0,0.018498511851753108
2665.0,0.01845319495476394
2664.0,0.01840788278591865
2663.0,0.01831727262871463
2662.0,0.01831727262871463
2661.0,0.018362575344230914
2660.0,0.01845319495476394
2659.0,0.01845319495476394
2658.0,0.01845319495476394
2657.0,0.018362575344230914
2656.0,0.018271974638383703
2655.0,0.018181392829336396
2654.0,0.018136109008649592
2653.0,0.018136109008649592
2652.0,0.018136109008649592
2651.0,0.01809082990920774
2650.0,0.01800028587012159
2649.0,0.017909760704207134
2648.0,0.01781925440359733
2647.0,0.017728766960431575
2646.0,0.01768353030793479
2645.0,0.017638298366853045
2644.0,0.01759307113620534
2643.0,0.017547848615010242
2642.0,0.01759307113620534
2641.0,0.01759307113620534
2640.0,0.01759307113620534
2639.0,0.017502630802287644
2638.0,0.017367005605150476
2637.0,0.01727661233145472
2636.0,0.01727661233145472
2635.0,0.01727661233145472
2634.0,0.01727661233145472
2633.0,0.017231422748988034
2632.0,0.017095882207371904
2631.0,0.016960383953898095
2630.0,0.01677978535189717
2629.0,0.016689514205884493
2628.0,0.016644385668211692
2627.0,0.016509028184833463
2626.0,0.016418813294209356
2625.0,0.016373712875465518
2624.0,0.01632861713980338
2623.0,0.01628352608625061
2622.0,0.016238439713835096
2621.0,0.016238439713835096
2620.0,0.016238439713835096
2619.0,0.016193358021584725
2618.0,0.016103208673694303
2617.0,0.015922966097169144
2616.0,0.015742798294583915
2615.0,0.015607721475734415
2614.0,0.015607721475734415
2613.0,0.015607721475734415
2612.0,0.015652742414136167
2611.0,0.015607721475734415
2610.0,0.015562705203923999
2609.0,0.01547268665620738
2608.0,0.015427684378367834
2607.0,0.015337693809893471
2606.0,0.015337693809893471
2605.0,0.015337693809893471
2604.0,0.015337693809893471
2603.0,0.015337693809893471
2602.0,0.015292705517326866
2601.0,0.015202742910707112
2600.0,0.015112798935672522
2599.0,0.015022873584506602
2598.0,0.014977917890464765
2597.0,0.014932966849499074
2596.0,0.014932966849499074
2595.0,0.014932966849499074
2594.0,0.014888020460646079
2593.0,0.014753209197138295
2592.0,0.014618439768003144
2591.0,0.0144837121472845
2590.0,0.014438812226654996
2589.0,0.014349026309051105
2588.0,0.014349026309051105
2587.0,0.014304140310157809
2586.0,0.014214382227394795
2585.0,0.014169510141607944
2584.0,0.014079779876432497
2583.0,0.013990068146738865
2582.0,0.013900374944870508
2581.0,0.01385553528947936
2580.0,0.013765869865004277
2579.0,0.013631406429727155
2578.0,0.013586594534531482
2577.0,0.013586594534531482
2576.0,0.013631406429727155
2575.0,0.013631406429727155
2574.0,0.013541787262693505
2573.0,0.013496984613259544
2572.0,0.013407393177789162
2571.0,0.013362604389846044
2570.0,0.013317820220494436
2569.0,0.013273040668781544
2568.0,0.01318349541446362
2567.0,0.013093968619278806
2566.0,0.013004460275618523
2565.0,0.013049212141483357
2564.0,0.013093968619278806
2563.0,0.01318349541446362
2562.0,0.013273040668781544
2561.0,0.013273040668781544
2560.0,0.01322826573375524
2559.0,0.013138729709955221
2558.0,0.013049212141483357
2557.0,0.012959713020733288
2556.0,0.012870232340102872
2555.0,0.012825498912458322
2554.0,0.012825498912458322
2553.0,0.012870232340102872
2552.0,0.012870232340102872
2551.0,0.012825498912458322
2550.0,0.012736045877764557
2549.0,0.01264661126420652
2548.0,0.012512493866907004
2547.0,0.012378417874516323
2546.0,0.012289056869694281
2545.0,0.012289056869694281
2544.0,0.012289056869694281
2543.0,0.012289056869694281
2542.0,0.012244383261476699
2541.0,0.012244383261476699
2540.0,0.012244383261476699
2539.0,0.012289056869694281
2538.0,0.012333735073725371
2537.0,0.012378417874516323
2536.0,0.012378417874516323
2535.0,0.012378417874516323
2534.0,0.012333735073725371
2533.0,0.012333735073725371
2532.0,0.012333735073725371
2531.0,0.012289056869694281
2530.0,0.012199714248127602
2529.0,0.012110390002254778
2528.0,0.012021084124518078
2527.0,0.012021084124518078
2526.0,0.0119764380713403
2525.0,0.0119764380713403
2524.0,0.011931796607364653
2523.0,0.011887159731648111
2522.0,0.011887159731648111
2521.0,0.011887159731648111
2520.0,0.011842527443247208
2519.0,0.011753276624621556
2518.0,0.011664044143949504
2517.0,0.011664044143949504
2516.0,0.011664044143949504
2515.0,0.011619434777991433
2514.0,0.011574829993696856
2513.0,0.011530229790124524
2512.0,0.011530229790124524
2511.0,0.011485634166333858
2510.0,0.011485634166333858
2509.0,0.011441043121384498
2508.0,0.011441043121384498
2507.0,0.011396456654336085
2506.0,0.011441043121384498
2505.0,0.011441043121384498
2504.0,0.011441043121384498
2503.0,0.011441043121384498
2502.0,0.011441043121384498
2501.0,0.011441043121384498
2500.0,0.011396456654336085
2499.0,0.011351874764248926
2498.0,0.011262724711199823
2497.0,0.01117359295472431
2496.0,0.011084479487313281
2495.0,0.011084479487313281
2494.0,0.011084479487313281
2493.0,0.011084479487313281
2492.0,0.011129033935354915
2491.0,0.01117359295472431
2490.0,0.01117359295472431
2489.0,0.01117359295472431
2488.0,0.011129033935354915
2487.0,0.011084479487313281
2486.0,0.011039929609661936
2485.0,0.010995384301463185
2484.0,0.010995384301463185
2483.0,0.010950843561779777
2482.0,0.010950843561779777
2481.0,0.010950843561779777
2480.0,0.011039929609661936
2479.0,0.011129033935354915
2478.0,0.01117359295472431
2477.0,0.01117359295472431
2476.0,0.01117359295472431
2475.0,0.011129033935354915
2474.0,0.011084479487313281
2473.0,0.011039929609661936
2472.0,0.010995384301463185
2471.0,0.010906307389674463
2470.0,0.010817248744452446
2469.0,0.01077272626946324
2468.0,0.01077272626946324
2467.0,0.01077272626946324
2466.0,0.01077272626946324
2465.0,0.01077272626946324
2464.0,0.010728208358306901
2463.0,0.010683695010048622
2462.0,0.010639186223752484
2461.0,0.010639186223752484
2460.0,0.010639186223752484
2459.0,0.010594681998483901
2458.0,0.010550182333308289
2457.0,0.010505687227290839
2456.0,0.01046119667949763
2455.0,0.010416710688994968
2454.0,0.010416710688994968
2453.0,0.01037222925484893
2452.0,0.01037222925484893
2451.0,0.01046119667949763
2450.0,0.010505687227290839
2449.0,0.010550182333308289
2448.0,0.010594681998483901
2447.0,0.010550182333308289
2446.0,0.010505687227290839
2445.0,0.01046119667949763
2444.0,0.01046119667949763
2443.0,0.01046119667949763
2442.0,0.01046119667949763
2441.0,0.010416710688994968
2440.0,0.010327752376126709
2439.0,0.010283280051895272
2438.0,0.010283280051895272
2437.0,0.010283280051895272
2436.0,0.010283280051895272
2435.0,0.010327752376126709
2434.0,0.01037222925484893
2433.0,0.010416710688994968
2432.0,0.010416710688994968
2431.0,0.01037222925484893
2430.0,0.010327752376126709
2429.0,0.010283280051895272
2428.0,0.010327752376126709
2427.0,0.010327752376126709
2426.0,0.01037222925484893
2425.0,0.010327752376126709
2424.0,0.010283280051895272
2423.0,0.01023881228122181
2422.0,0.010283280051895272
2421.0,0.01037222925484893
2420.0,0.01046119667949763
2419.0,0.010505687227290839
2418.0,0.010550182333308289
2417.0,0.010550182333308289
2416.0,0.010505687227290839
2415.0,0.01046119667949763
2414.0,0.01046119667949763
2413.0,0.01046119667949763
2412.0,0.010416710688994968
2411.0,0.010416710688994968
2410.0,0.01037222925484893
2409.0,0.01037222925484893
2408.0,0.010416710688994968
2407.0,0.010416710688994968
2406.0,0.010416710688994968
2405.0,0.010327752376126709
2404.0,0.01023881228122181
2403.0,0.010194349063173958
2402.0,0.010194349063173958
2401.0,0.010194349063173958
2400.0,0.01023881228122181
2399.0,0.01023881228122181
2398.0,0.010194349063173958
2397.0,0.010194349063173958
2396.0,0.010194349063173958
2395.0,0.010149890396819572
2394.0,0.010149890396819572
2393.0,0.010105436281226954
2392.0,0.010060986715464404
2391.0,0.009972101229705377
2390.0,0.009927665307847056
2389.0,0.009972101229705377
2388.0,0.009972101229705377
2387.0,0.01001654169860089
2386.0,0.010060986715464404
2385.0,0.010105436281226954
2384.0,0.010105436281226954
2383.0,0.01001654169860089
2382.0,0.009883233932095559
2381.0,0.009794384815193347
2380.0,0.00974996707218323
2379.0,0.00974996707218323
2378.0,0.009705553871561357
2377.0,0.009705553871561357
2376.0,0.009794384815193347
2375.0,0.009883233932095559
2374.0,0.009883233932095559
2373.0,0.009616741093766423
2372.0,0.009172949432521227
2371.0,0.008906891951112605
2370.0,0.009039900317800775
2369.0,0.009483555971770974
2368.0,0.00974996707218323
2367.0,0.009616741093766423
2366.0,0.009172949432521227
2365.0,0.008951223547323472
2364.0,0.009261671492462709
2363.0,0.010149890396819572
2362.0,0.011084479487313281
2361.0,0.011262724711199823
2360.0,0.01037222925484893
2359.0,0.009306039320248427
2358.0,0.008951223547323472
2357.0,0.009172949432521227
2356.0,0.009217308196862062
2355.0,0.008906891951112605
2354.0,0.008773924307505121
2353.0,0.009039900317800775
2352.0,0.009439170005980158
2351.0,0.00966114521239847
2350.0,0.00974996707218323
2349.0,0.009883233932095559
2348.0,0.010060986715464404
2347.0,0.01023881228122181
2346.0,0.010327752376126709
2345.0,0.010194349063173958
2344.0,0.00974996707218323
2343.0,0.009306039320248427
2342.0,0.009217308196862062
2341.0,0.009483555971770974
2340.0,0.009927665307847056
2339.0,0.010416710688994968
2338.0,0.010906307389674463
2337.0,0.011129033935354915
2336.0,0.011084479487313281
2335.0,0.01077272626946324
2334.0,0.010416710688994968
2333.0,0.010105436281226954
2332.0,0.009838807101520963
2331.0,0.00966114521239847
2330.0,0.00966114521239847
2329.0,0.009705553871561357
2328.0,0.009794384815193347
2327.0,0.009883233932095559
2326.0,0.010105436281226954
2325.0,0.010416710688994968
2324.0,0.010728208358306901
2323.0,0.01077272626946324
2322.0,0.010639186223752484
2321.0,0.010505687227290839
2320.0,0.01046119667949763
2319.0,0.010505687227290839
2318.0,0.010550182333308289
2317.0,0.010594681998483901
2316.0,0.010683695010048622
2315.0,0.01077272626946324
2314.0,0.01086177578421088
2313.0,0.010906307389674463
2312.0,0.01086177578421088
2311.0,0.010683695010048622
2310.0,0.010505687227290839
2309.0,0.01037222925484893
2308.0,0.01037222925484893
2307.0,0.010416710688994968
2306.0,0.010505687227290839
2305.0,0.010594681998483901
2304.0,0.010639186223752484
2303.0,0.010728208358306901
2302.0,0.010817248744452446
2301.0,0.010817248744452446
2300.0,0.01077272626946324
2299.0,0.010683695010048622
2298.0,0.010728208358306901
2297.0,0.01077272626946324
2296.0,0.01086177578421088
2295.0,0.01086177578421088
2294.0,0.010817248744452446
2293.0,0.01077272626946324
2292.0,0.010683695010048622
2291.0,0.010639186223752484
2290.0,0.010594681998483901
2289.0,0.010550182333308289
2288.0,0.01046119667949763
2287.0,0.010416710688994968
2286.0,0.01037222925484893
2285.0,0.01037222925484893
2284.0,0.01037222925484893
2283.0,0.010416710688994968
2282.0,0.01046119667949763
2281.0,0.010550182333308289
2280.0,0.010639186223752484
2279.0,0.010728208358306901
2278.0,0.01077272626946324
2277.0,0.01077272626946324
2276.0,0.01077272626946324
2275.0,0.010728208358306901
2274.0,0.010639186223752484
2273.0,0.010594681998483901
2272.0,0.010550182333308289
2271.0,0.010550182333308289
2270.0,0.010550182333308289
2269.0,0.010594681998483901
2268.0,0.010594681998483901
2267.0,0.010594681998483901
2266.0,0.010505687227290839
2265.0,0.010416710688994968
2264.0,0.01037222925484893
2263.0,0.010327752376126709
2262.0,0.010283280051895272
2261.0,0.010283280051895272
2260.0,0.01023881228122181
2259.0,0.010149890396819572
2258.0,0.010105436281226954
2257.0,0.010060986715464404
2256.0,0.010105436281226954
2255.0,0.010105436281226954
2254.0,0.010149890396819572
2253.0,0.010149890396819572
2252.0,0.010194349063173958
2251.0,0.01023881228122181
2250.0,0.010283280051895272
2249.0,0.010283280051895272
2248.0,0.01023881228122181
2247.0,0.010194349063173958
2246.0,0.010149890396819572
2245.0,0.010149890396819572
2244.0,0.010194349063173958
2243.0,0.010194349063173958
2242.0,0.010105436281226954
2241.0,0.010060986715464404
2240.0,0.010060986715464404
2239.0,0.010060986715464404
2238.0,0.010060986715464404
2237.0,0.010105436281226954
2236.0,0.010105436281226954
2235.0,0.010105436281226954
2234.0,0.010149890396819572
2233.0,0.010149890396819572
2232.0,0.010149890396819572
2231.0,0.010149890396819572
2230.0,0.010105436281226954
2229.0,0.010105436281226954
2228.0,0.010105436281226954
2227.0,0.010105436281226954
2226.0,0.010149890396819572
2225.0,0.010149890396819572
2224.0,0.010105436281226954
2223.0,0.01001654169860089
2222.0,0.009972101229705377
2221.0,0.009883233932095559
2220.0,0.009883233932095559
2219.0,0.009927665307847056
2218.0,0.009972101229705377
2217.0,0.009972101229705377
2216.0,0.009927665307847056
2215.0,0.009883233932095559
2214.0,0.009838807101520963
2213.0,0.009883233932095559
2212.0,0.009972101229705377
2211.0,0.01001654169860089
2210.0,0.01001654169860089
2209.0,0.009927665307847056
2208.0,0.009838807101520963
2207.0,0.00974996707218323
2206.0,0.00974996707218323
2205.0,0.009794384815193347
2204.0,0.009838807101520963
2203.0,0.009838807101520963
2202.0,0.009838807101520963
2201.0,0.009794384815193347
2200.0,0.009794384815193347
2199.0,0.009794384815193347
2198.0,0.009838807101520963
2197.0,0.009883233932095559
2196.0,0.009927665307847056
2195.0,0.009972101229705377
2194.0,0.01001654169860089
2193.0,0.010060986715464404
2192.0,0.010105436281226954
2191.0,0.010060986715464404
2190.0,0.01001654169860089
2189.0,0.009972101229705377
2188.0,0.009883233932095559
2187.0,0.009838807101520963
2186.0,0.00974996707218323
2185.0,0.009705553871561357
2184.0,0.00966114521239847
2183.0,0.009616741093766423
2182.0,0.00966114521239847
2181.0,0.00974996707218323
2180.0,0.009794384815193347
2179.0,0.009794384815193347
2178.0,0.009794384815193347
2177.0,0.009838807101520963
2176.0,0.009883233932095559
2175.0,0.009927665307847056
2174.0,0.009927665307847056
2173.0,0.009927665307847056
2172.0,0.009883233932095559
2171.0,0.009838807101520963
2170.0,0.009794384815193347
2169.0,0.009794384815193347
2168.0,0.009794384815193347
2167.0,0.009794384815193347
2166.0,0.009838807101520963
2165.0,0.009838807101520963
2164.0,0.009838807101520963
2163.0,0.009794384815193347
2162.0,0.00974996707218323
2161.0,0.00974996707218323
2160.0,0.00974996707218323
2159.0,0.009794384815193347
2158.0,0.009838807101520963
2157.0,0.009883233932095559
2156.0,0.009883233932095559
2155.0,0.009838807101520963
2154.0,0.009794384815193347
2153.0,0.009794384815193347
2152.0,0.009794384815193347
2151.0,0.009883233932095559
2150.0,0.009927665307847056
2149.0,0.009927665307847056
2148.0,0.009883233932095559
2147.0,0.009794384815193347
2146.0,0.00974996707218323
2145.0,0.009705553871561357
2144.0,0.009705553871561357
2143.0,0.009705553871561357
2142.0,0.009705553871561357
2141.0,0.00966114521239847
2140.0,0.009616741093766423
2139.0,0.009572341514736404
2138.0,0.009483555971770974
2137.0,0.009483555971770974
2136.0,0.009527946474380489
2135.0,0.00966114521239847
2134.0,0.00974996707218323
2133.0,0.009794384815193347
2132.0,0.00974996707218323
2131.0,0.00966114521239847
2130.0,0.009616741093766423
2129.0,0.009616741093766423
2128.0,0.009572341514736404
2127.0,0.009483555971770974
2126.0,0.009439170005980158
2125.0,0.009439170005980158
2124.0,0.009483555971770974
2123.0,0.009527946474380489
2122.0,0.009572341514736404
2121.0,0.009572341514736404
2120.0,0.009616741093766423
2119.0,0.00966114521239847
2118.0,0.00974996707218323
2117.0,0.009794384815193347
2116.0,0.00974996707218323
2115.0,0.00966114521239847
2114.0,0.009572341514736404
2113.0,0.009527946474380489
2112.0,0.009527946474380489
2111.0,0.009527946474380489
2110.0,0.009527946474380489
2109.0,0.009527946474380489
2108.0,0.009527946474380489
2107.0,0.009483555971770974
2106.0,0.009483555971770974
2105.0,0.009439170005980158
2104.0,0.009439170005980158
2103.0,0.009439170005980158
2102.0,0.009483555971770974
2101.0,0.009527946474380489
2100.0,0.009572341514736404
2099.0,0.009572341514736404
2098.0,0.009572341514736404
2097.0,0.009572341514736404
2096.0,0.009616741093766423
2095.0,0.009616741093766423
2094.0,0.00966114521239847
2093.0,0.009705553871561357
2092.0,0.009705553871561357
2091.0,0.00974996707218323
2090.0,0.00974996707218323
2089.0,0.009705553871561357
2088.0,0.009705553871561357
2087.0,0.00966114521239847
2086.0,0.00966114521239847
2085.0,0.009705553871561357
2084.0,0.00974996707218323
2083.0,0.00974996707218323
2082.0,0.00974996707218323
2081.0,0.00974996707218323
2080.0,0.009705553871561357
2079.0,0.009705553871561357
2078.0,0.009616741093766423
2077.0,0.009572341514736404
2076.0,0.009527946474380489
2075.0,0.009527946474380489
2074.0,0.009572341514736404
2073.0,0.009616741093766423
2072.0,0.00966114521239847
2071.0,0.00966114521239847
2070.0,0.00966114521239847
2069.0,0.00966114521239847
2068.0,0.00966114521239847
2067.0,0.00966114521239847
2066.0,0.009705553871561357
2065.0,0.00974996707218323
2064.0,0.009794384815193347
2063.0,0.009838807101520963
2062.0,0.009838807101520963
2061.0,0.009838807101520963
2060.0,0.009883233932095559
2059.0,0.009883233932095559
2058.0,0.009883233932095559
2057.0,0.009838807101520963
2056.0,0.00974996707218323
2055.0,0.00974996707218323
2054.0,0.009705553871561357
2053.0,0.00974996707218323
2052.0,0.009705553871561357
2051.0,0.00966114521239847
2050.0,0.00966114521239847
2049.0,0.009705553871561357
2048.0,0.009705553871561357
2047.0,0.009705553871561357
2046.0,0.00974996707218323
2045.0,0.009794384815193347
2044.0,0.009883233932095559
2043.0,0.009927665307847056
2042.0,0.009927665307847056
2041.0,0.009972101229705377
2040.0,0.009972101229705377
2039.0,0.009972101229705377
2038.0,0.009927665307847056
2037.0,0.009972101229705377
2036.0,0.009972101229705377
2035.0,0.009972101229705377
2034.0,0.009927665307847056
2033.0,0.009927665307847056
2032.0,0.009927665307847056
2031.0,0.009927665307847056
2030.0,0.009972101229705377
2029.0,0.01001654169860089
2028.0,0.01001654169860089
2027.0,0.01001654169860089
2026.0,0.01001654169860089
2025.0,0.010060986715464404
2024.0,0.010194349063173958
2023.0,0.010283280051895272
2022.0,0.010327752376126709
2021.0,0.010283280051895272
2020.0,0.010283280051895272
2019.0,0.010327752376126709
2018.0,0.01037222925484893
2017.0,0.010327752376126709
2016.0,0.01023881228122181
2015.0,0.010149890396819572
2014.0,0.010060986715464404
2013.0,0.009972101229705377
2012.0,0.009883233932095559
2011.0,0.009838807101520963
2010.0,0.009794384815193347
2009.0,0.00974996707218323
2008.0,0.009705553871561357
2007.0,0.009705553871561357
2006.0,0.009705553871561357
2005.0,0.009705553871561357
2004.0,0.00966114521239847
2003.0,0.009616741093766423
2002.0,0.009572341514736404
2001.0,0.009616741093766423
2000.0,0.009616741093766423
1999.0,0.009572341514736404
1998.0,0.009572341514736404
1997.0,0.009527946474380489
1996.0,0.009572341514736404
1995.0,0.009616741093766423
1994.0,0.00966114521239847
1993.0,0.009705553871561357
1992.0,0.00966114521239847
1991.0,0.009616741093766423
1990.0,0.009616741093766423
1989.0,0.00966114521239847
1988.0,0.00974996707218323
1987.0,0.009838807101520963
1986.0,0.009838807101520963
1985.0,0.009838807101520963
1984.0,0.00974996707218323
1983.0,0.009705553871561357
1982.0,0.00966114521239847
1981.0,0.009616741093766423
1980.0,0.009572341514736404
1979.0,0.009483555971770974
1978.0,0.009439170005980158
1977.0,0.009483555971770974
1976.0,0.009483555971770974
1975.0,0.009483555971770974
1974.0,0.009527946474380489
1973.0,0.009483555971770974
1972.0,0.009483555971770974
1971.0,0.009483555971770974
1970.0,0.009527946474380489
1969.0,0.009527946474380489
1968.0,0.009572341514736404
1967.0,0.009616741093766423
1966.0,0.009616741093766423
1965.0,0.009572341514736404
1964.0,0.009527946474380489
1963.0,0.009439170005980158
1962.0,0.009439170005980158
1961.0,0.009439170005980158
1960.0,0.009439170005980158
1959.0,0.009439170005980158
1958.0,0.009439170005980158
1957.0,0.009439170005980158
1956.0,0.009439170005980158
1955.0,0.009439170005980158
1954.0,0.009439170005980158
1953.0,0.00939478857608056
1952.0,0.009350411681145587
1951.0,0.009350411681145587
1950.0,0.009306039320248427
1949.0,0.009306039320248427
1948.0,0.009306039320248427
1947.0,0.009306039320248427
1946.0,0.009261671492462709
1945.0,0.009306039320248427
1944.0,0.00939478857608056
1943.0,0.009483555971770974
1942.0,0.009483555971770974
1941.0,0.009483555971770974
1940.0,0.009439170005980158
1939.0,0.00939478857608056
1938.0,0.009350411681145587
1937.0,0.009306039320248427
1936.0,0.009306039320248427
1935.0,0.009306039320248427
1934.0,0.009350411681145587
1933.0,0.009350411681145587
1932.0,0.00939478857608056
1931.0,0.00939478857608056
1930.0,0.00939478857608056
1929.0,0.00939478857608056
1928.0,0.009350411681145587
1927.0,0.009306039320248427
1926.0,0.009306039320248427
1925.0,0.009350411681145587
1924.0,0.009439170005980158
1923.0,0.009527946474380489
1922.0,0.009527946474380489
1921.0,0.009527946474380489
1920.0,0.009483555971770974
1919.0,0.009483555971770974
1918.0,0.009572341514736404
1917.0,0.009616741093766423
1916.0,0.009616741093766423
1915.0,0.009572341514736404
1914.0,0.009527946474380489
1913.0,0.009483555971770974
1912.0,0.009483555971770974
1911.0,0.009527946474380489
1910.0,0.009527946474380489
1909.0,0.009527946474380489
1908.0,0.009527946474380489
1907.0,0.009527946474380489
1906.0,0.009572341514736404
1905.0,0.009572341514736404
1904.0,0.009572341514736404
1903.0,0.009527946474380489
1902.0,0.009527946474380489
1901.0,0.009572341514736404
1900.0,0.009616741093766423
1899.0,0.009616741093766423
1898.0,0.009572341514736404
1897.0,0.009572341514736404
1896.0,0.009572341514736404
1895.0,0.009527946474380489
1894.0,0.009527946474380489
1893.0,0.009572341514736404
1892.0,0.009616741093766423
1891.0,0.009616741093766423
1890.0,0.009616741093766423
1889.0,0.009572341514736404
1888.0,0.009483555971770974
1887.0,0.00939478857608056
1886.0,0.00939478857608056
1885.0,0.009439170005980158
1884.0,0.009483555971770974
1883.0,0.009527946474380489
1882.0,0.009527946474380489
1881.0,0.009483555971770974
1880.0,0.009439170005980158
1879.0,0.00939478857608056
1878.0,0.00939478857608056
1877.0,0.00939478857608056
1876.0,0.00939478857608056
1875.0,0.009350411681145587
1874.0,0.009350411681145587
1873.0,0.009350411681145587
1872.0,0.009350411681145587
1871.0,0.00939478857608056
1870.0,0.00939478857608056
1869.0,0.009439170005980158
1868.0,0.00939478857608056
1867.0,0.009350411681145587
1866.0,0.009306039320248427
1865.0,0.009306039320248427
1864.0,0.009306039320248427
1863.0,0.009261671492462709
1862.0,0.009217308196862062
1861.0,0.009172949432521227
1860.0,0.009128595198514056
1859.0,0.009128595198514056
1858.0,0.009128595198514056
1857.0,0.009172949432521227
1856.0,0.009172949432521227
1855.0,0.009128595198514056
1854.0,0.00908424549391551
1853.0,0.009128595198514056
1852.0,0.009172949432521227
1851.0,0.009217308196862062
1850.0,0.009172949432521227
1849.0,0.009172949432521227
1848.0,0.009172949432521227
1847.0,0.009261671492462709
1846.0,0.00939478857608056
1845.0,0.009527946474380489
1844.0,0.009616741093766423
1843.0,0.009527946474380489
1842.0,0.009439170005980158
1841.0,0.009439170005980158
1840.0,0.00939478857608056
1839.0,0.009350411681145587
1838.0,0.009261671492462709
1837.0,0.009217308196862062
1836.0,0.009128595198514056
1835.0,0.009039900317800775
1834.0,0.008995559669244813
1833.0,0.009039900317800775
1832.0,0.00908424549391551
1831.0,0.00908424549391551
1830.0,0.008995559669244813
1829.0,0.008906891951112605
1828.0,0.008951223547323472
1827.0,0.00908424549391551
1826.0,0.009261671492462709
1825.0,0.009350411681145587
1824.0,0.009350411681145587
1823.0,0.009306039320248427
1822.0,0.009261671492462709
1821.0,0.009217308196862062
1820.0,0.009217308196862062
1819.0,0.009217308196862062
1818.0,0.009217308196862062
1817.0,0.009217308196862062
1816.0,0.009172949432521227
1815.0,0.00908424549391551
1814.0,0.008995559669244813
1813.0,0.009039900317800775
1812.0,0.009172949432521227
1811.0,0.009261671492462709
1810.0,0.009350411681145587
1809.0,0.009439170005980158
1808.0,0.009439170005980158
1807.0,0.009350411681145587
1806.0,0.009261671492462709
1805.0,0.009172949432521227
1804.0,0.009172949432521227
1803.0,0.009172949432521227
1802.0,0.009261671492462709
1801.0,0.009350411681145587
1800.0,0.009350411681145587
1799.0,0.009306039320248427
1798.0,0.009261671492462709
1797.0,0.009261671492462709
1796.0,0.009306039320248427
1795.0,0.009350411681145587
1794.0,0.00939478857608056
1793.0,0.00939478857608056
1792.0,0.009439170005980158
1791.0,0.009483555971770974
1790.0,0.009527946474380489
1789.0,0.009572341514736404
1788.0,0.009527946474380489
1787.0,0.009483555971770974
1786.0,0.009483555971770974
1785.0,0.009527946474380489
1784.0,0.009483555971770974
1783.0,0.009439170005980158
1782.0,0.009439170005980158
1781.0,0.009483555971770974
1780.0,0.009483555971770974
1779.0,0.009483555971770974
1778.0,0.009439170005980158
1777.0,0.00939478857608056
1776.0,0.00939478857608056
1775.0,0.009483555971770974
1774.0,0.009572341514736404
1773.0,0.00966114521239847
1772.0,0.00966114521239847
1771.0,0.009616741093766423
1770.0,0.00966114521239847
1769.0,0.009838807101520963
1768.0,0.009927665307847056
1767.0,0.009883233932095559
1766.0,0.009838807101520963
1765.0,0.009883233932095559
1764.0,0.009927665307847056
1763.0,0.01001654169860089
1762.0,0.009972101229705377
1761.0,0.009972101229705377
1760.0,0.010060986715464404
1759.0,0.01023881228122181
1758.0,0.010416710688994968
1757.0,0.010550182333308289
1756.0,0.010594681998483901
1755.0,0.010639186223752484
1754.0,0.010728208358306901
1753.0,0.01086177578421088
1752.0,0.011084479487313281
1751.0,0.011218156546359825
1750.0,0.01117359295472431
1749.0,0.011084479487313281
1748.0,0.011129033935354915
1747.0,0.011218156546359825
1746.0,0.011351874764248926
1745.0,0.011441043121384498
1744.0,0.011485634166333858
1743.0,0.011485634166333858
1742.0,0.011441043121384498
1741.0,0.011441043121384498
1740.0,0.011441043121384498
1739.0,0.011396456654336085
1738.0,0.011485634166333858
1737.0,0.011708658092512314
1736.0,0.012021084124518078
1735.0,0.012423105273012602
1734.0,0.01264661126420652
1733.0,0.01260190086298274
1732.0,0.012557195064198723
1731.0,0.012557195064198723
1730.0,0.012512493866907004
1729.0,0.01260190086298274
1728.0,0.012736045877764557
1727.0,0.012959713020733288
1726.0,0.01318349541446362
1725.0,0.013452186585275916
1724.0,0.013765869865004277
1723.0,0.013945219230304673
1722.0,0.01403492169512921
1721.0,0.014124642691606404
1720.0,0.014214382227394795
1719.0,0.014304140310157809
1718.0,0.014573525916998342
1717.0,0.014977917890464765
1716.0,0.015247721884586563
1715.0,0.015427684378367834
1714.0,0.01547268665620738
1713.0,0.01547268665620738
1712.0,0.015427684378367834
1711.0,0.01538268676325183
1710.0,0.01538268676325183
1709.0,0.01547268665620738
1708.0,0.015607721475734415
1707.0,0.015697768020096703
1706.0,0.015742798294583915
1705.0,0.01578783323856614
1704.0,0.01596801972881945
1703.0,0.016238439713835096
1702.0,0.016554142658660398
1701.0,0.016960383953898095
1700.0,0.017141057687924732
1699.0,0.017050711425501408
1698.0,0.017186237868137555
1697.0,0.017502630802287644
1696.0,0.017864505196230507
1695.0,0.017955020928509757
1694.0,0.01800028587012159
1693.0,0.018181392829336396
1692.0,0.01840788278591865
1691.0,0.01858915983411169
1690.0,0.018815862601645694
1689.0,0.0190880622231564
1688.0,0.019360432556262852
1687.0,0.01954210772389997
1686.0,0.019769308608968306
1685.0,0.020315076172974234
1684.0,0.021089422824428272
1683.0,0.0214542995372613
1682.0,0.021773818325474092
1681.0,0.022139270735302752
1680.0,0.02245929405346514
1679.0,0.022733787572707387
1678.0,0.02296266477531872
1677.0,0.023237476732539397
1676.0,0.02365002099672653
1675.0,0.02406295751688936
1674.0,0.024292536462819925
1673.0,0.024476287039668643
1672.0,0.02475205875931885
1671.0,0.02512002699306959
1670.0,0.025672564576383117
1669.0,0.026271941311972746
1668.0,0.026687379547098322
1667.0,0.027010773144651168
1666.0,0.02724191609646076
1665.0,0.027426919073445077
1664.0,0.027797161620935595
1663.0,0.02826040911222183
1662.0,0.02872415126189476
1661.0,0.029095501846216454
1660.0,0.02932775731028059
1659.0,0.029513651152349718
1658.0,0.029560137048236124
1657.0,0.029560137048236124
1656.0,0.02960662792039992
1655.0,0.02969962459782227
1654.0,0.030537492025363155
1653.0,0.03207779326948268
1652.0,0.032686081712916426
1651.0,0.03282657704446046
1650.0,0.03282657704446046
1649.0,0.032873418923587305
1648.0,0.03343591590268957
1647.0,0.034516075754861264
1646.0,0.03545753392086315
1645.0,0.03597620715996652
1644.0,0.03621217265444465
1643.0,0.03635381351515665
1642.0,0.036401037402758574
1641.0,0.036401037402758574
1640.0,0.03630659476198117
1639.0,0.036117771071222604
1638.0,0.03578752703018084
1637.0,0.035363296211498474
1636.0,0.03479829897408804
1635.0,0.033952178923546183
1634.0,0.033201453616638954
1633.0,0.032686081712916426
1632.0,0.032218091924200776
1631.0,0.031657169041054534
1630.0,0.031143625385307683
1629.0,0.03067729388779794
1628.0,0.03025802323714588
1627.0,0.029885677714903025
1626.0,0.029560137048236124
1625.0,0.029234840219232394
1624.0,0.028956208163971375
1623.0,0.028677754757187035
1622.0,0.02839947976994095
1621.0,0.02812138297373412
1620.0,0.027936083991977778
1619.0,0.0277045713888604
1618.0,0.027565723042634938
1617.0,0.02747318213414429
1616.0,0.027334407733889066
1615.0,0.027149444152769986
1614.0,0.02696455931306696
1613.0,0.02677975314776626
1612.0,0.026502691267936695
1611.0,0.026271941311972746
1610.0,0.026087429580295085
1609.0,0.025902996205869
1608.0,0.025718641122169483
1607.0,0.025488307262671706
1606.0,0.02521206778644225
1605.0,0.02498200236711723
1604.0,0.02475205875931885
1603.0,0.02461415101053266
1602.0,0.024522236834125355
1601.0,0.024430342106337877
1600.0,0.024246610963712723
1599.0,0.024017056287453542
1598.0,0.023787622882622816
1597.0,0.02351246269481
1596.0,0.023283295636617574
1595.0,0.02314585342378117
1594.0,0.02296266477531872
1593.0,0.02277955336461468
1592.0,0.022642270454698687
1591.0,0.02245929405346514
1590.0,0.022322112326006227
1589.0,0.022139270735302752
1588.0,0.021956506090037076
1587.0,0.021728158389364705
1586.0,0.021545566634771474
1585.0,0.021317434843055594
1584.0,0.021089422824428272
1583.0,0.020861530453190058
1582.0,0.020633757603838898
1581.0,0.020406104151069693
1580.0,0.02022406727031445
1579.0,0.02013307743509718
1578.0,0.020087589665283012
1577.0,0.019996628416253603
1576.0,0.019814763052665052
1575.0,0.01954210772389997
1574.0,0.019360432556262852
1573.0,0.0192242260373785
1572.0,0.01899731005860028
1571.0,0.018679826740892747
1570.0,0.018362575344230914
1569.0,0.01809082990920774
1568.0,0.017955020928509757
1567.0,0.017864505196230507
1566.0,0.017728766960431575
1565.0,0.017502630802287644
1564.0,0.017321806616515723
1563.0,0.01727661233145472
1562.0,0.01727661233145472
1561.0,0.017141057687924732
1560.0,0.017005545341335804
1559.0,0.017141057687924732
1558.0,0.017050711425501408
1557.0,0.017141057687924732
1556.0,0.01727661233145472
1555.0,0.017186237868137555
1554.0,0.016870075265299933
1553.0,0.016554142658660398
1552.0,0.016373712875465518
1551.0,0.01628352608625061
1550.0,0.016238439713835096
1549.0,0.016148281008528276
1548.0,0.016013078034810446
1547.0,0.015877917138889863
1546.0,0.015742798294583915
1545.0,0.015697768020096703
1544.0,0.015697768020096703
1543.0,0.015697768020096703
1542.0,0.015697768020096703
1541.0,0.015697768020096703
1540.0,0.015562705203923999
1539.0,0.015112798935672522
1538.0,0.014888020460646079
1537.0,0.014977917890464765
1536.0,0.015022873584506602
1535.0,0.014932966849499074
1534.0,0.014798141635428141
1533.0,0.014753209197138295
1532.0,0.014708281407112
1531.0,0.014663358264387139
1530.0,0.01452861671041239
1529.0,0.014438812226654996
1528.0,0.014349026309051105
1527.0,0.014259258949925524
1526.0,0.014124642691606404
1525.0,0.01403492169512921
1524.0,0.013945219230304673
1523.0,0.01381070026317599
1522.0,0.013765869865004277
1521.0,0.01381070026317599
1520.0,0.01381070026317599
1519.0,0.01381070026317599
1518.0,0.013765869865004277
1517.0,0.013765869865004277
1516.0,0.013765869865004277
1515.0,0.013676222949234651
1514.0,0.013541787262693505
1513.0,0.013496984613259544
1512.0,0.013496984613259544
1511.0,0.013407393177789162
1510.0,0.013317820220494436
1509.0,0.013273040668781544
1508.0,0.013407393177789162
1507.0,0.013452186585275916
1506.0,0.01322826573375524
1505.0,0.013093968619278806
1504.0,0.013138729709955221
1503.0,0.013093968619278806
1502.0,0.013004460275618523
1501.0,0.012959713020733288
1500.0,0.013049212141483357
1499.0,0.013049212141483357
1498.0,0.013138729709955221
1497.0,0.013317820220494436
1496.0,0.013496984613259544
1495.0,0.013452186585275916
1494.0,0.013362604389846044
1493.0,0.013407393177789162
1492.0,0.013496984613259544
1491.0,0.013496984613259544
1490.0,0.013541787262693505
1489.0,0.01381070026317599
1488.0,0.014079779876432497
1487.0,0.014079779876432497
1486.0,0.014079779876432497
1485.0,0.014259258949925524
1484.0,0.0144837121472845
1483.0,0.014708281407112
1482.0,0.015157768594724175
1481.0,0.01596801972881945
1480.0,0.017050711425501408
1479.0,0.018543833477873584
1478.0,0.0214542995372613
1477.0,0.02710321556345563
1476.0,0.03597620715996652
1475.0,0.04744970610179822
1474.0,0.060131455540490375
1473.0,0.07037674848475972
1472.0,0.07381195089279391
1471.0,0.07232173586200852
1470.0,0.07058107428570715
1469.0,0.07017251876930874
1468.0,0.07093887591523451
1467.0,0.0732460948102629
1466.0,0.07862570458152551
1465.0,0.08735289378168276
1464.0,0.09528445472131919
1463.0,0.09810596802617932
1462.0,0.09550084460218011
1461.0,0.08916223500731646
1460.0,0.08113125661901543
1459.0,0.07319468988839395
1458.0,0.06686717627326577
1457.0,0.0627329277885873
1456.0,0.05968277842578207
1455.0,0.057000406633959555
1454.0,0.05428528594013993
1453.0,0.05153812993871654
1452.0,0.04885683989244738
1451.0,0.04667530361081473
1450.0,0.044986096961949995
1449.0,0.04359142880416744
1448.0,0.042392712939904875
1447.0,0.041436116778032606
1446.0,0.040672354027829094
1445.0,0.03995754427315856
1444.0,0.03929144831144349
1443.0,0.038721320914956836
1442.0,0.038151940981675736
1441.0,0.03753595394209874
1440.0,0.03701541568300293
1439.0,0.036542739883292485
1438.0,0.03621217265444465
1437.0,0.03588185684851508
1436.0,0.03531618502395939
1435.0,0.03461012978487776
1434.0,0.03376437590141812
1433.0,0.03277974021703267
1432.0,0.03184406285002961
1431.0,0.031003673351687855
1430.0,0.03025802323714588
1429.0,0.029513651152349718
1428.0,0.028816959143838528
1427.0,0.02826040911222183
1426.0,0.027750864037404455
1425.0,0.027195677663422346
1424.0,0.026687379547098322
1423.0,0.02636422658259252
1422.0,0.02617967564731627
1421.0,0.026041313893296225
1420.0,0.025949097207122573
1419.0,0.025856900097785074
1418.0,0.02562649291857677
1417.0,0.02521206778644225
1416.0,0.02484402159331056
1415.0,0.024522236834125355
1414.0,0.024200690320592466
1413.0,0.023879381700184332
1412.0,0.02355831062115543
1411.0,0.023283295636617574
1410.0,0.02300845469384938
1409.0,0.022733787572707387
1408.0,0.02245929405346514
1407.0,0.022230681908425698
1406.0,0.02204787879853809
1405.0,0.021819483062586187
1404.0,0.021545566634771474
1403.0,0.021317434843055594
1402.0,0.021135015652343103
1401.0,0.020907099361673565
1400.0,0.020724852408976924
1399.0,0.02058821736556471
1398.0,0.02045162529590483
1397.0,0.020315076172974234
1396.0,0.020178569969774962
1395.0,0.019996628416253603
1394.0,0.019769308608968306
1393.0,0.01949668180660491
1392.0,0.019269623464054586
1391.0,0.019133445417920836
1390.0,0.0190880622231564
1389.0,0.019133445417920836
1388.0,0.0192242260373785
1387.0,0.01940584422377989
1386.0,0.01958753839310856
1385.0,0.019860222254245663
1384.0,0.02022406727031445
1383.0,0.020952673052035298
1382.0,0.021865152601710403
1381.0,0.02291687968414724
1380.0,0.023879381700184332
1379.0,0.024706084643793647
1378.0,0.02516604495145991
1377.0,0.02521206778644225
1376.0,0.024936003904763915
1375.0,0.024660115394541604
1374.0,0.02438440203310499
1373.0,0.024246610963712723
1372.0,0.024154774532432866
1371.0,0.024154774532432866
1370.0,0.024154774532432866
1369.0,0.024108863598207186
1368.0,0.023925268380126097
1367.0,0.023695883447997224
1366.0,0.02351246269481
1365.0,0.023283295636617574
1364.0,0.023054249440757957
1363.0,0.02282532397981263
1362.0,0.02245929405346514
1361.0,0.02204787879853809
1360.0,0.021636852916117055
1359.0,0.021271822861508305
1358.0,0.0209982515252789
1357.0,0.020861530453190058
1356.0,0.020861530453190058
1355.0,0.020907099361673565
1354.0,0.020952673052035298
1353.0,0.020861530453190058
1352.0,0.02067930261797568
1351.0,0.020542681902151694
1350.0,0.020406104151069693
1349.0,0.02022406727031445
1348.0,0.01995115493504329
1347.0,0.019723858922159776
1346.0,0.01954210772389997
1345.0,0.019360432556262852
1344.0,0.019133445417920836
1343.0,0.018906576854070378
1342.0,0.018725167293411005
1341.0,0.018543833477873584
1340.0,0.01840788278591865
1339.0,0.018271974638383703
1338.0,0.018136109008649592
1337.0,0.017864505196230507
1336.0,0.017547848615010242
1335.0,0.01727661233145472
1334.0,0.017095882207371904
1333.0,0.016915227262211507
1332.0,0.016870075265299933
1331.0,0.016824927962187042
1330.0,0.016824927962187042
1329.0,0.016824927962187042
1328.0,0.016824927962187042
1327.0,0.016824927962187042
1326.0,0.016824927962187042
1325.0,0.016870075265299933
1324.0,0.016915227262211507
1323.0,0.017005545341335804
1322.0,0.017095882207371904
1321.0,0.017186237868137555
1320.0,0.017321806616515723
1319.0,0.017457417697056554
1318.0,0.017638298366853045
1317.0,0.017774008325325275
1316.0,0.017909760704207134
1315.0,0.01809082990920774
1314.0,0.018271974638383703
1313.0,0.01840788278591865
1312.0,0.01845319495476394
1311.0,0.01845319495476394
1310.0,0.018498511851753108
1309.0,0.01858915983411169
1308.0,0.018679826740892747
1307.0,0.018770512579999288
1306.0,0.018815862601645694
1305.0,0.018861217359339655
1304.0,0.018861217359339655
1303.0,0.018906576854070378
1302.0,0.018951941086827073
1301.0,0.018951941086827073
1300.0,0.018951941086827073
1299.0,0.018861217359339655
1298.0,0.018815862601645694
1297.0,0.018679826740892747
1296.0,0.01858915983411169
1295.0,0.018498511851753108
1294.0,0.018362575344230914
1293.0,0.018271974638383703
1292.0,0.018136109008649592
1291.0,0.01809082990920774
1290.0,0.018045555530026514
1289.0,0.01800028587012159
1288.0,0.017955020928509757
1287.0,0.017909760704207134
1286.0,0.017864505196230507
1285.0,0.017774008325325275
1284.0,0.01768353030793479
1283.0,0.01759307113620534
1282.0,0.01759307113620534
1281.0,0.01759307113620534
1280.0,0.017547848615010242
1279.0,0.017547848615010242
1278.0,0.017457417697056554
1277.0,0.017412209298337533
1276.0,0.017321806616515723
1275.0,0.01727661233145472
1274.0,0.01727661233145472
1273.0,0.017321806616515723
1272.0,0.017412209298337533
1271.0,0.017457417697056554
1270.0,0.017547848615010242
1269.0,0.01759307113620534
1268.0,0.01759307113620534
1267.0,0.017638298366853045
1266.0,0.017638298366853045
1265.0,0.01768353030793479
1264.0,0.01768353030793479
1263.0,0.017728766960431575
1262.0,0.017728766960431575
1261.0,0.017728766960431575
1260.0,0.017774008325325275
1259.0,0.017864505196230507
1258.0,0.017955020928509757
1257.0,0.018045555530026514
1256.0,0.018045555530026514
1255.0,0.01800028587012159
1254.0,0.01800028587012159
1253.0,0.018045555530026514
1252.0,0.01809082990920774
1251.0,0.018136109008649592
1250.0,0.018136109008649592
1249.0,0.01809082990920774
1248.0,0.01809082990920774
1247.0,0.01809082990920774
1246.0,0.018136109008649592
1245.0,0.018181392829336396
1244.0,0.018181392829336396
1243.0,0.018181392829336396
1242.0,0.018181392829336396
1241.0,0.018136109008649592
1240.0,0.018045555530026514
1239.0,0.018045555530026514
1238.0,0.018045555530026514
1237.0,0.01809082990920774
1236.0,0.018136109008649592
1235.0,0.018136109008649592
1234.0,0.018181392829336396
1233.0,0.018181392829336396
1232.0,0.018181392829336396
1231.0,0.018136109008649592
1230.0,0.01809082990920774
1229.0,0.01809082990920774
1228.0,0.01809082990920774
1227.0,0.018181392829336396
1226.0,0.018226681372252695
1225.0,0.018226681372252695
1224.0,0.018181392829336396
1223.0,0.018136109008649592
1222.0,0.018181392829336396
1221.0,0.018181392829336396
1220.0,0.018181392829336396
1219.0,0.018226681372252695
1218.0,0.01831727262871463
1217.0,0.01840788278591865
1216.0,0.018543833477873584
1215.0,0.018634490921455527
1214.0,0.018725167293411005
1213.0,0.018770512579999288
1212.0,0.018861217359339655
1211.0,0.018951941086827073
1210.0,0.019042683770379876
1209.0,0.019178833355664393
1208.0,0.019315025636685412
1207.0,0.019451260640229506
1206.0,0.01958753839310856
1205.0,0.019769308608968306
1204.0,0.019996628416253603
1203.0,0.02022406727031445
1202.0,0.020406104151069693
1201.0,0.02058821736556471
1200.0,0.020724852408976924
1199.0,0.020907099361673565
1198.0,0.021089422824428272
1197.0,0.021271822861508305
1196.0,0.021499930688540836
1195.0,0.021728158389364705
1194.0,0.021956506090037076
1193.0,0.0221849739168134
1192.0,0.022413561996148967
1191.0,0.022642270454698687
1190.0,0.02291687968414724
1189.0,0.02314585342378117
1188.0,0.023374947949272418
1187.0,0.02365002099672653
1186.0,0.023925268380126097
1185.0,0.024246610963712723
1184.0,0.024568191490736968
1183.0,0.024936003904763915
1182.0,0.025304128090317013
1181.0,0.025672564576383117
1180.0,0.025995203102585407
1179.0,0.02636422658259252
1178.0,0.026733563891471412
1177.0,0.02710321556345563
1176.0,0.02738066094037661
1175.0,0.027565723042634938
1174.0,0.027750864037404455
1173.0,0.02798240132598462
1172.0,0.028167720075074953
1171.0,0.02839947976994095
1170.0,0.028538594975413334
1169.0,0.028677754757187035
1168.0,0.02890978686288448
1167.0,0.029188389127482228
1166.0,0.029513651152349718
1165.0,0.029746130405213123
1164.0,0.029932203450862893
1163.0,0.030071810571884017
1162.0,0.030211462585061133
1161.0,0.030397735151460825
1160.0,0.03058408764601861
1159.0,0.030770520137356927
1158.0,0.030957032694186815
1157.0,0.031096969696171817
1156.0,0.031236951802751545
1155.0,0.03133029827960798
1154.0,0.03147035562516054
1153.0,0.03161045815293173
1152.0,0.03175060589208267
1151.0,0.03189079887180224
1150.0,0.03207779326948268
1149.0,0.03226486821611996
1148.0,0.03240522732811035
1147.0,0.032545631817259224
1146.0,0.03263926003405038
1145.0,0.032686081712916426
1144.0,0.03273290844021437
1143.0,0.03282657704446046
1142.0,0.032920265855503006
1141.0,0.03301397488206215
1140.0,0.03310770413286357
1139.0,0.033201453616638954
1138.0,0.033295223342125535
1137.0,0.03338901331806565
1136.0,0.033482823553208085
1135.0,0.03357665405630694
1134.0,0.03362357691107709
1133.0,0.03367050483612166
1132.0,0.03362357691107709
1131.0,0.03362357691107709
1130.0,0.03362357691107709
1129.0,0.03357665405630694
1128.0,0.033482823553208085
1127.0,0.03334211579824231
1126.0,0.0332483359486222
1125.0,0.033154576345083564
1124.0,0.03310770413286357
1123.0,0.03310770413286357
1122.0,0.033060836978886954
1121.0,0.03301397488206215
1120.0,0.03301397488206215
1119.0,0.0329671178412978
1118.0,0.032873418923587305
1117.0,0.03277974021703267
1116.0,0.032686081712916426
1115.0,0.03263926003405038
1114.0,0.032592443402527316
1113.0,0.03249882527715853
1112.0,0.03240522732811035
1111.0,0.03245202378113787
1110.0,0.032545631817259224
1109.0,0.032592443402527316
1108.0,0.03263926003405038
1107.0,0.032592443402527316
1106.0,0.032592443402527316
1105.0,0.032592443402527316
1104.0,0.03263926003405038
1103.0,0.032686081712916426
1102.0,0.032686081712916426
1101.0,0.03263926003405038
1100.0,0.032592443402527316
1099.0,0.032686081712916426
1098.0,0.03277974021703267
1097.0,0.032920265855503006
1096.0,0.032920265855503006
1095.0,0.032873418923587305
1094.0,0.03277974021703267
1093.0,0.03263926003405038
1092.0,0.032545631817259224
1091.0,0.03249882527715853
1090.0,0.03249882527715853
1089.0,0.03245202378113787
1088.0,0.03245202378113787
1087.0,0.03240522732811035
1086.0,0.03245202378113787
1085.0,0.03245202378113787
1084.0,0.03249882527715853
1083.0,0.03240522732811035
1082.0,0.032218091924200776
1081.0,0.03193753992355086
1080.0,0.031657169041054534
1079.0,0.03142366482450232
1078.0,0.03128362253321426
1077.0,0.031143625385307683
1076.0,0.031003673351687855
1075.0,0.030910397045078586
1074.0,0.030770520137356927
1073.0,0.03063068826647264
1072.0,0.03058408764601861
1071.0,0.030490901403433135
1070.0,0.030397735151460825
1069.0,0.030211462585061133
1068.0,0.03002526987828502
1067.0,0.029885677714903025
1066.0,0.029792641193145286
1065.0,0.029653123769906697
1064.0,0.029560137048236124
1063.0,0.029467170231675777
1062.0,0.02942069428514915
1061.0,0.02942069428514915
1060.0,0.02932775731028059
1059.0,0.029281296279810798
1058.0,0.029281296279810798
1057.0,0.029234840219232394
1056.0,0.029141943003497595
1055.0,0.029002634427514717
1054.0,0.028863370523193765
1053.0,0.028863370523193765
1052.0,0.028956208163971375
1051.0,0.029141943003497595
1050.0,0.029234840219232394
1049.0,0.029234840219232394
1048.0,0.029234840219232394
1047.0,0.029281296279810798
1046.0,0.02942069428514915
1045.0,0.029513651152349718
1044.0,0.029560137048236124
1043.0,0.02960662792039992
1042.0,0.029653123769906697
1041.0,0.029653123769906697
1040.0,0.02960662792039992
1039.0,0.02960662792039992
1038.0,0.029653123769906697
1037.0,0.02969962459782227
1036.0,0.02969962459782227
1035.0,0.029746130405213123
1034.0,0.029746130405213123
1033.0,0.029746130405213123
1032.0,0.02969962459782227
1031.0,0.029560137048236124
1030.0,0.029467170231675777
1029.0,0.029374223311705583
1028.0,0.02932775731028059
1027.0,0.029374223311705583
1026.0,0.029467170231675777
1025.0,0.029467170231675777
1024.0,0.029374223311705583
1023.0,0.02932775731028059
1022.0,0.029281296279810798
1021.0,0.029234840219232394
1020.0,0.029188389127482228
1019.0,0.029141943003497595
1018.0,0.02904906565457588
1017.0,0.028956208163971375
1016.0,0.028816959143838528
1015.0,0.02872415126189476
1014.0,0.028677754757187035
1013.0,0.02858497661500481
1012.0,0.02839947976994095
1011.0,0.028167720075074953
1010.0,0.02798240132598462
1009.0,0.027750864037404455
1008.0,0.02751945012352408
1007.0,0.02724191609646076
1006.0,0.02696455931306696
1005.0,0.02664120011360227
1004.0,0.026318081496016443
1003.0,0.026087429580295085
1002.0,0.025902996205869
1001.0,0.025718641122169483
1000.0,0.02553436426275746
999.0,0.025304128090317013
998.0,0.02512002699306959
997.0,0.024936003904763915
996.0,0.02475205875931885
995.0,0.02461415101053266
994.0,0.024476287039668643
993.0,0.024338466818941473
992.0,0.024200690320592466
991.0,0.02406295751688936
990.0,0.023925268380126097
989.0,0.023787622882622816
988.0,0.02365002099672653
987.0,0.02351246269481
986.0,0.023374947949272418
985.0,0.023237476732539397
984.0,0.02300845469384938
983.0,0.02277955336461468
982.0,0.02255077261765881
981.0,0.022322112326006227
980.0,0.022093572362881675
979.0,0.021910826943857264
978.0,0.021728158389364705
977.0,0.02159120737696063
976.0,0.021363051615525652
975.0,0.021135015652343103
974.0,0.020907099361673565
973.0,0.02067930261797568
972.0,0.020497151212598652
971.0,0.020315076172974234
970.0,0.02013307743509718
969.0,0.01995115493504329
968.0,0.019769308608968306
967.0,0.01954210772389997
966.0,0.019451260640229506
965.0,0.019360432556262852
964.0,0.019315025636685412
963.0,0.019269623464054586
962.0,0.019133445417920836
961.0,0.019042683770379876
960.0,0.018906576854070378
959.0,0.018815862601645694
958.0,0.018725167293411005
957.0,0.018634490921455527
956.0,0.018543833477873584
955.0,0.01845319495476394
954.0,0.01845319495476394
953.0,0.018498511851753108
952.0,0.01845319495476394
951.0,0.01840788278591865
950.0,0.01840788278591865
949.0,0.01845319495476394
948.0,0.01845319495476394
947.0,0.01845319495476394
946.0,0.01840788278591865
945.0,0.01831727262871463
944.0,0.018226681372252695
943.0,0.018271974638383703
942.0,0.01831727262871463
941.0,0.018362575344230914
940.0,0.01831727262871463
939.0,0.01831727262871463
938.0,0.018362575344230914
937.0,0.018498511851753108
936.0,0.018679826740892747
935.0,0.018815862601645694
934.0,0.018815862601645694
933.0,0.018770512579999288
932.0,0.018725167293411005
931.0,0.018815862601645694
930.0,0.018906576854070378
929.0,0.019042683770379876
928.0,0.019133445417920836
927.0,0.019178833355664393
926.0,0.019178833355664393
925.0,0.019178833355664393
924.0,0.019178833355664393
923.0,0.019315025636685412
922.0,0.01954210772389997
921.0,0.019769308608968306
920.0,0.019996628416253603
919.0,0.02004210665933459
918.0,0.02004210665933459
917.0,0.01995115493504329
916.0,0.019860222254245663
915.0,0.019814763052665052
914.0,0.019723858922159776
913.0,0.019723858922159776
912.0,0.019769308608968306
911.0,0.01990568621470623
910.0,0.019996628416253603
909.0,0.020087589665283012
908.0,0.020087589665283012
907.0,0.020087589665283012
906.0,0.020087589665283012
905.0,0.020087589665283012
904.0,0.020178569969774962
903.0,0.020315076172974234
902.0,0.02045162529590483
901.0,0.020542681902151694
900.0,0.020542681902151694
899.0,0.020542681902151694
898.0,0.020633757603838898
897.0,0.020724852408976924
896.0,0.020907099361673565
895.0,0.021043834782408455
894.0,0.02122621566987748
893.0,0.021317434843055594
892.0,0.021363051615525652
891.0,0.02140867317992523
890.0,0.021499930688540836
889.0,0.021728158389364705
888.0,0.02200219004126036
887.0,0.0221849739168134
886.0,0.02227639471115217
885.0,0.0221849739168134
884.0,0.022139270735302752
883.0,0.02204787879853809
882.0,0.02200219004126036
881.0,0.02200219004126036
880.0,0.022139270735302752
879.0,0.022413561996148967
878.0,0.022733787572707387
877.0,0.02296266477531872
876.0,0.023100049017062307
875.0,0.023191662661933732
874.0,0.023191662661933732
873.0,0.023054249440757957
872.0,0.02282532397981263
871.0,0.02255077261765881
870.0,0.022322112326006227
869.0,0.022139270735302752
868.0,0.02204787879853809
867.0,0.022139270735302752
866.0,0.02227639471115217
865.0,0.022367834754000393
864.0,0.022367834754000393
863.0,0.022322112326006227
862.0,0.022367834754000393
861.0,0.02255077261765881
860.0,0.022733787572707387
859.0,0.02296266477531872
858.0,0.023191662661933732
857.0,0.023374947949272418
856.0,0.02351246269481
855.0,0.02365002099672653
854.0,0.02365002099672653
853.0,0.02365002099672653
852.0,0.02365002099672653
851.0,0.023787622882622816
850.0,0.02406295751688936
849.0,0.024338466818941473
848.0,0.024430342106337877
847.0,0.02438440203310499
846.0,0.024292536462819925
845.0,0.024292536462819925
844.0,0.024430342106337877
843.0,0.02461415101053266
842.0,0.024798037742147727
841.0,0.024890010313838973
840.0,0.02475205875931885
839.0,0.024522236834125355
838.0,0.024246610963712723
837.0,0.02406295751688936
836.0,0.024017056287453542
835.0,0.024017056287453542
834.0,0.024108863598207186
833.0,0.024154774532432866
832.0,0.024200690320592466
831.0,0.024292536462819925
830.0,0.02438440203310499
829.0,0.024522236834125355
828.0,0.02461415101053266
827.0,0.024660115394541604
826.0,0.024706084643793647
825.0,0.024798037742147727
824.0,0.02498200236711723
823.0,0.02512002699306959
822.0,0.025258095499050004
821.0,0.025350165561278004
820.0,0.02553436426275746
819.0,0.025672564576383117
818.0,0.025810808881832736
817.0,0.025949097207122573
816.0,0.026041313893296225
815.0,0.026041313893296225
814.0,0.026041313893296225
813.0,0.026041313893296225
812.0,0.026087429580295085
811.0,0.026225806029419818
810.0,0.026502691267936695
809.0,0.02677975314776626
808.0,0.02710321556345563
807.0,0.02738066094037661
806.0,0.027658283674251827
805.0,0.027843464140506313
804.0,0.028028723600243666
803.0,0.028214062120885508
802.0,0.02858497661500481
801.0,0.029002634427514717
800.0,0.029374223311705583
799.0,0.029560137048236124
798.0,0.029653123769906697
797.0,0.029792641193145286
796.0,0.030118356253500123
795.0,0.030537492025363155
794.0,0.03081714076773867
793.0,0.030910397045078586
792.0,0.030957032694186815
791.0,0.03105031901865729
790.0,0.031236951802751545
789.0,0.03142366482450232
788.0,0.03151705144606498
787.0,0.031563752288295444
786.0,0.03170388495374454
785.0,0.03189079887180224
784.0,0.032124554451966825
783.0,0.032311649546687526
782.0,0.032545631817259224
781.0,0.03277974021703267
780.0,0.032873418923587305
779.0,0.03282657704446046
778.0,0.032686081712916426
777.0,0.032686081712916426
776.0,0.03282657704446046
775.0,0.033060836978886954
774.0,0.0332483359486222
773.0,0.03338901331806565
772.0,0.03338901331806565
771.0,0.0332483359486222
770.0,0.03301397488206215
769.0,0.032873418923587305
768.0,0.0329671178412978
767.0,0.033201453616638954
766.0,0.03352973627071565
765.0,0.03376437590141812
764.0,0.033905220553829274
763.0,0.03414006319292828
762.0,0.03442204208947208
761.0,0.03461012978487776
760.0,0.03465716443937783
759.0,0.03461012978487776
758.0,0.03470420418834386
757.0,0.03498654972775217
756.0,0.03541041251009669
755.0,0.035740369803151095
754.0,0.036117771071222604
753.0,0.03658998431977123
752.0,0.03701541568300293
751.0,0.037251946641359446
750.0,0.037346595106788616
749.0,0.037488606492403154
748.0,0.03772539537668518
747.0,0.03800971255993524
746.0,0.03829421599749461
745.0,0.038673844065289176
744.0,0.03905380426616856
743.0,0.03929144831144349
742.0,0.03943409718180235
741.0,0.039767126871487646
740.0,0.0402909757535701
739.0,0.04086316882962593
738.0,0.04138834223512067
737.0,0.04210551278710151
736.0,0.0433514207947967
735.0,0.04599883231842972
734.0,0.051098239029786274
733.0,0.05953332233647113
732.0,0.07022356719509815
731.0,0.08013774644446192
730.0,0.08576265223225898
729.0,0.08581556657675371
728.0,0.08212704480115218
727.0,0.07784567476894111
726.0,0.07525564752005143
725.0,0.07535895258283709
724.0,0.07820951434181311
723.0,0.08407278830288423
722.0,0.09344948089854999
721.0,0.10568393731556158
720.0,0.11702034596270106
719.0,0.12205304837081177
718.0,0.11861534322942724
717.0,0.10924374808178183
716.0,0.0978882765519955
715.0,0.08745911720936239
714.0,0.07899019850296574
713.0,0.07242434530888953
712.0,0.06742477650170953
711.0,0.06358680028852026
710.0,0.06068046892176193
709.0,0.05858795962645047
708.0,0.05709945885970602
707.0,0.05606053552778367
706.0,0.055172003656783764
705.0,0.05413767551038262
704.0,0.0531548860393769
703.0,0.05212534510230182
702.0,0.05119595406718891
701.0,0.050414848673348
700.0,0.05002482217034632
699.0,0.04987865248862655
698.0,0.04982994019179987
697.0,0.04978123335813667
696.0,0.04987865248862655
695.0,0.05012229596312534
694.0,0.050171041064686284
693.0,0.04982994019179987
692.0,0.04919717703534143
691.0,0.0486139051197072
690.0,0.04827402457540786
689.0,0.04837110616336182
688.0,0.04875964967565971
687.0,0.04919717703534143
686.0,0.04944043838819989
685.0,0.04944043838819989
684.0,0.04939177521576932
683.0,0.04934311749548925
682.0,0.04909991063361274
681.0,0.048808242065293994
680.0,0.04871106272232795
679.0,0.048905443158337114
678.0,0.049245818406496555
677.0,0.04963514562387683
676.0,0.05002482217034632
675.0,0.050414848673348
674.0,0.0506099933550872
673.0,0.05056119896349576
672.0,0.050463626623857394
671.0,0.050317309204795935
670.0,0.04997609347667353
669.0,0.04875964967565971
668.0,0.04711073508906982
667.0,0.04672366333269573
666.0,0.04720755695590784
665.0,0.04744970610179822
664.0,0.04725597598510167
663.0,0.04662694927330402
662.0,0.045564513671517703
661.0,0.044456557540257124
660.0,0.04383156952463674
659.0,0.04402377775167454
658.0,0.04455278942230456
657.0,0.044793462458058375
656.0,0.04469717723830824
655.0,0.04464904263234004
654.0,0.04474531717982
653.0,0.044937930324967956
652.0,0.04527520902093718
651.0,0.04595055323640551
650.0,0.0469171560879138
649.0,0.047691990337874746
648.0,0.04803141550708934
647.0,0.04803141550708934
646.0,0.04807992647970649
645.0,0.048225491918274965
644.0,0.048468209457651845
643.0,0.0486139051197072
642.0,0.048565334467987054
641.0,0.048565334467987054
640.0,0.048905443158337114
639.0,0.04978123335813667
638.0,0.051049389754451946
637.0,0.05256627811294923
636.0,0.05448217792216048
635.0,0.05655495097496965
634.0,0.05789269101064454
633.0,0.05779345772290467
632.0,0.05660442349104544
631.0,0.05531996611868961
630.0,0.05453141486818014
629.0,0.05413767551038262
628.0,0.05399011523423525
627.0,0.05423607688882637
626.0,0.05482695382609992
625.0,0.05541863577307371
624.0,0.05571477931124735
623.0,0.05581353871631256
622.0,0.05606053552778367
621.0,0.056456022846545606
620.0,0.0567528748621382
619.0,0.0567528748621382
618.0,0.05665390164340933
617.0,0.0567528748621382
616.0,0.05729763111133224
615.0,0.058190526991161784
614.0,0.05923456436878238
613.0,0.060131455540490375
612.0,0.060530669156469985
611.0,0.060081579630943294
610.0,0.058836539841526925
609.0,0.0575950591438934
608.0,0.05724807957018618
607.0,0.05804158346918653
606.0,0.05938391766259232
605.0,0.06028111764589528
604.0,0.05998184499233683
603.0,0.05863766428823891
602.0,0.057198533682059516
601.0,0.0567528748621382
600.0,0.05779345772290467
