cm-1,A
4000.0,0.0004779868710962365
3999.0,0.00043451177401765406
3998.0,0.0003910410285830057
3997.0,0.0003910410285830057
3996.0,0.0003910410285830057
3995.0,0.0004779868710962365
3994.0,0.0005649501236701937
3993.0,0.0006519307932786322
3992.0,0.0006954276616513155
3991.0,0.0006519307932786322
3990.0,0.000521466320689834
3989.0,0.00043451177401765406
3988.0,0.0003475746339209884
3987.0,0.0003475746339209884
3986.0,0.00043451177401765406
3985.0,0.000521466320689834
3984.0,0.0006084382809090627
3983.0,0.0006084382809090627
3982.0,0.0005649501236701937
3981.0,0.000521466320689834
3980.0,0.000521466320689834
3979.0,0.0005649501236701937
3978.0,0.0006519307932786322
3977.0,0.0006519307932786322
3976.0,0.0006084382809090627
3975.0,0.0004779868710962365
3974.0,0.0003910410285830057
3973.0,0.00030411258916074324
3972.0,0.00026065489343207737
3971.0,0.00030411258916074324
3970.0,0.0003475746339209884
3969.0,0.0003475746339209884
3968.0,0.0003910410285830057
3967.0,0.0003475746339209884
3966.0,0.0003475746339209884
3965.0,0.00030411258916074324
3964.0,0.00026065489343207737
3963.0,0.00021720154586435392
3962.0,0.00017375254558760211
3961.0,0.00021720154586435392
3960.0,0.00026065489343207737
3959.0,0.00030411258916074324
3958.0,0.0003475746339209884
3957.0,0.0003475746339209884
3956.0,0.0003475746339209884
3955.0,0.00021720154586435392
3954.0,0.0001303078917322953
3953.0,8.686758342868472e-05
3952.0,0.00017375254558760211
3951.0,0.0003475746339209884
3950.0,0.0006084382809090627
3949.0,0.0007389288868995258
3948.0,0.0007389288868995258
3947.0,0.0006084382809090627
3946.0,0.0004779868710962365
3945.0,0.0003910410285830057
3944.0,0.0003475746339209884
3943.0,0.0003475746339209884
3942.0,0.0003475746339209884
3941.0,0.00030411258916074324
3940.0,0.00030411258916074324
3939.0,0.0003475746339209884
3938.0,0.0004779868710962365
3937.0,0.0005649501236701937
3936.0,0.0006084382809090627
3935.0,0.0006084382809090627
3934.0,0.0005649501236701937
3933.0,0.0005649501236701937
3932.0,0.0006084382809090627
3931.0,0.0006519307932786322
3930.0,0.0007389288868995258
3929.0,0.0007824344698965646
3928.0,0.0007824344698965646
3927.0,0.0007389288868995258
3926.0,0.0006519307932786322
3925.0,0.0005649501236701937
3924.0,0.000521466320689834
3923.0,0.00043451177401765406
3922.0,0.0003910410285830057
3921.0,0.0003475746339209884
3920.0,0.0003475746339209884
3919.0,0.0003475746339209884
3918.0,0.0003910410285830057
3917.0,0.00043451177401765406
3916.0,0.00043451177401765406
3915.0,0.0004779868710962365
3914.0,0.00043451177401765406
3913.0,0.0003910410285830057
3912.0,0.00030411258916074324
3911.0,0.00017375254558760211
3910.0,8.686758342868472e-05
3909.0,8.686758342868472e-05
3908.0,0.00017375254558760211
3907.0,0.00030411258916074324
3906.0,0.00043451177401765406
3905.0,0.0006084382809090627
3904.0,0.0006954276616513155
3903.0,0.0007389288868995258
3902.0,0.0007389288868995258
3901.0,0.0006519307932786322
3900.0,0.0005649501236701937
3899.0,0.0004779868710962365
3898.0,0.00043451177401765406
3897.0,0.00043451177401765406
3896.0,0.00043451177401765406
3895.0,0.00043451177401765406
3894.0,0.00043451177401765406
3893.0,0.00043451177401765406
3892.0,0.00043451177401765406
3891.0,0.0003910410285830057
3890.0,0.0003910410285830057
3889.0,0.00030411258916074324
3888.0,0.00026065489343207737
3887.0,0.00026065489343207737
3886.0,0.00030411258916074324
3885.0,0.0003910410285830057
3884.0,0.0004779868710962365
3883.0,0.000521466320689834
3882.0,0.000521466320689834
3881.0,0.000521466320689834
3880.0,0.000521466320689834
3879.0,0.000521466320689834
3878.0,0.0004779868710962365
3877.0,0.0003910410285830057
3876.0,0.0003475746339209884
3875.0,0.00030411258916074324
3874.0,0.0003475746339209884
3873.0,0.0003910410285830057
3872.0,0.0003910410285830057
3871.0,0.00026065489343207737
3870.0,0.00017375254558760211
3869.0,8.686758342868472e-05
3868.0,4.343161980746579e-05
3867.0,0.0
3866.0,-4.3427276862573194e-05
3865.0,0.0
3864.0,4.343161980746579e-05
3863.0,0.00017375254558760211
3862.0,0.00030411258916074324
3861.0,0.0003475746339209884
3860.0,0.0003910410285830057
3859.0,0.0003475746339209884
3858.0,0.00030411258916074324
3857.0,0.00026065489343207737
3856.0,0.00026065489343207737
3855.0,0.00026065489343207737
3854.0,0.00026065489343207737
3853.0,0.00030411258916074324
3852.0,0.00026065489343207737
3851.0,0.00021720154586435392
3850.0,0.00017375254558760211
3849.0,0.00017375254558760211
3848.0,0.00017375254558760211
3847.0,0.00021720154586435392
3846.0,0.00026065489343207737
3845.0,0.00026065489343207737
3844.0,0.00030411258916074324
3843.0,0.00026065489343207737
3842.0,0.00026065489343207737
3841.0,0.00021720154586435392
3840.0,0.00026065489343207737
3839.0,0.0003475746339209884
3838.0,0.00043451177401765406
3837.0,0.0004779868710962365
3836.0,0.0004779868710962365
3835.0,0.00043451177401765406
3834.0,0.0003475746339209884
3833.0,0.00030411258916074324
3832.0,0.00026065489343207737
3831.0,0.00026065489343207737
3830.0,0.00026065489343207737
3829.0,0.00026065489343207737
3828.0,0.00026065489343207737
3827.0,0.00026065489343207737
3826.0,0.00021720154586435392
3825.0,0.0001303078917322953
3824.0,4.343161980746579e-05
3823.0,0.0
3822.0,4.343161980746579e-05
3821.0,0.00026065489343207737
3820.0,0.00043451177401765406
3819.0,0.000521466320689834
3818.0,0.000521466320689834
3817.0,0.00043451177401765406
3816.0,0.0003475746339209884
3815.0,0.00030411258916074324
3814.0,0.00030411258916074324
3813.0,0.0003475746339209884
3812.0,0.0003910410285830057
3811.0,0.00043451177401765406
3810.0,0.0003910410285830057
3809.0,0.0003475746339209884
3808.0,0.00026065489343207737
3807.0,0.00017375254558760211
3806.0,0.0001303078917322953
3805.0,0.0001303078917322953
3804.0,0.0001303078917322953
3803.0,0.00030411258916074324
3802.0,0.0004779868710962365
3801.0,0.0006519307932786322
3800.0,0.0006519307932786322
3799.0,0.0006519307932786322
3798.0,0.0006084382809090627
3797.0,0.0006084382809090627
3796.0,0.0005649501236701937
3795.0,0.0005649501236701937
3794.0,0.000521466320689834
3793.0,0.0004779868710962365
3792.0,0.0004779868710962365
3791.0,0.0004779868710962365
3790.0,0.000521466320689834
3789.0,0.0005649501236701937
3788.0,0.000521466320689834
3787.0,0.0004779868710962365
3786.0,0.00043451177401765406
3785.0,0.00043451177401765406
3784.0,0.0004779868710962365
3783.0,0.0004779868710962365
3782.0,0.0004779868710962365
3781.0,0.0003910410285830057
3780.0,0.00030411258916074324
3779.0,0.00026065489343207737
3778.0,0.00021720154586435392
3777.0,0.00017375254558760211
3776.0,0.00017375254558760211
3775.0,0.00017375254558760211
3774.0,0.00021720154586435392
3773.0,0.00030411258916074324
3772.0,0.0003475746339209884
3771.0,0.00030411258916074324
3770.0,0.00021720154586435392
3769.0,0.00017375254558760211
3768.0,0.0001303078917322953
3767.0,8.686758342868472e-05
3766.0,8.686758342868472e-05
3765.0,4.343161980746579e-05
3764.0,4.343161980746579e-05
3763.0,0.0
3762.0,0.0
3761.0,4.343161980746579e-05
3760.0,0.0001303078917322953
3759.0,0.00017375254558760211
3758.0,0.00017375254558760211
3757.0,0.00017375254558760211
3756.0,8.686758342868472e-05
3755.0,-4.3427276862573194e-05
3754.0,-0.00021709297223004853
3753.0,-0.0003906892499099257
3752.0,-0.0003472966853634851
3751.0,-4.3427276862573194e-05
3750.0,0.00043451177401765406
3749.0,0.0008259444115150671
3748.0,0.0010870956412141197
3747.0,0.0011741809597138886
3746.0,0.0010870956412141197
3745.0,0.0009565003968372565
3744.0,0.0008259444115150671
3743.0,0.0007824344698965646
3742.0,0.0007389288868995258
3741.0,0.0006954276616513155
3740.0,0.0005649501236701937
3739.0,0.00043451177401765406
3738.0,0.00030411258916074324
3737.0,0.00026065489343207737
3736.0,0.00030411258916074324
3735.0,0.00030411258916074324
3734.0,0.0003475746339209884
3733.0,0.0003910410285830057
3732.0,0.00043451177401765406
3731.0,0.0004779868710962365
3730.0,0.00043451177401765406
3729.0,0.0003910410285830057
3728.0,0.00026065489343207737
3727.0,0.00017375254558760211
3726.0,4.343161980746579e-05
3725.0,-4.3427276862573194e-05
3724.0,-4.3427276862573194e-05
3723.0,0.0
3722.0,0.0001303078917322953
3721.0,0.00021720154586435392
3720.0,0.00026065489343207737
3719.0,0.00026065489343207737
3718.0,0.00026065489343207737
3717.0,0.00026065489343207737
3716.0,0.00026065489343207737
3715.0,0.00021720154586435392
3714.0,0.0001303078917322953
3713.0,4.343161980746579e-05
3712.0,0.0
3711.0,0.0
3710.0,0.0
3709.0,8.686758342868472e-05
3708.0,0.00021720154586435392
3707.0,0.00030411258916074324
3706.0,0.0003910410285830057
3705.0,0.00043451177401765406
3704.0,0.0003475746339209884
3703.0,0.00026065489343207737
3702.0,0.00021720154586435392
3701.0,0.00021720154586435392
3700.0,0.00030411258916074324
3699.0,0.00030411258916074324
3698.0,0.00026065489343207737
3697.0,0.00021720154586435392
3696.0,0.00017375254558760211
3695.0,0.00021720154586435392
3694.0,0.00026065489343207737
3693.0,0.0003475746339209884
3692.0,0.00043451177401765406
3691.0,0.000521466320689834
3690.0,0.0005649501236701937
3689.0,0.0006084382809090627
3688.0,0.0006519307932786322
3687.0,0.0006084382809090627
3686.0,0.0005649501236701937
3685.0,0.0004779868710962365
3684.0,0.0003910410285830057
3683.0,0.0003475746339209884
3682.0,0.00030411258916074324
3681.0,0.00026065489343207737
3680.0,0.00030411258916074324
3679.0,0.0003475746339209884
3678.0,0.00043451177401765406
3677.0,0.0005649501236701937
3676.0,0.0006519307932786322
3675.0,0.0006519307932786322
3674.0,0.000521466320689834
3673.0,0.00043451177401765406
3672.0,0.00030411258916074324
3671.0,0.00026065489343207737
3670.0,0.00030411258916074324
3669.0,0.0003475746339209884
3668.0,0.0003910410285830057
3667.0,0.00043451177401765406
3666.0,0.0004779868710962365
3665.0,0.0004779868710962365
3664.0,0.00043451177401765406
3663.0,0.0003475746339209884
3662.0,0.00030411258916074324
3661.0,0.00026065489343207737
3660.0,0.00017375254558760211
3659.0,0.0001303078917322953
3658.0,4.343161980746579e-05
3657.0,-4.3427276862573194e-05
3656.0,-8.685021164911433e-05
3655.0,-0.00013026880522692963
3654.0,-0.00017368305846510168
3653.0,-0.00017368305846510168
3652.0,-0.00013026880522692963
3651.0,-4.3427276862573194e-05
3650.0,-4.3427276862573194e-05
3649.0,-4.3427276862573194e-05
3648.0,0.0
3647.0,8.686758342868472e-05
3646.0,0.00021720154586435392
3645.0,0.0003475746339209884
3644.0,0.0003910410285830057
3643.0,0.00043451177401765406
3642.0,0.00043451177401765406
3641.0,0.00043451177401765406
3640.0,0.00043451177401765406
3639.0,0.0004779868710962365
3638.0,0.000521466320689834
3637.0,0.0004779868710962365
3636.0,0.0003475746339209884
3635.0,0.00021720154586435392
3634.0,0.0001303078917322953
3633.0,0.00017375254558760211
3632.0,0.00021720154586435392
3631.0,0.0003910410285830057
3630.0,0.0005649501236701937
3629.0,0.0006954276616513155
3628.0,0.0006519307932786322
3627.0,0.000521466320689834
3626.0,0.00043451177401765406
3625.0,0.0003475746339209884
3624.0,0.0003475746339209884
3623.0,0.0003475746339209884
3622.0,0.0003475746339209884
3621.0,0.00030411258916074324
3620.0,0.00026065489343207737
3619.0,0.00026065489343207737
3618.0,0.00026065489343207737
3617.0,0.00026065489343207737
3616.0,0.00026065489343207737
3615.0,0.00026065489343207737
3614.0,0.00030411258916074324
3613.0,0.0003910410285830057
3612.0,0.00043451177401765406
3611.0,0.00043451177401765406
3610.0,0.00043451177401765406
3609.0,0.00043451177401765406
3608.0,0.000521466320689834
3607.0,0.000521466320689834
3606.0,0.0004779868710962365
3605.0,0.00043451177401765406
3604.0,0.0003910410285830057
3603.0,0.0003910410285830057
3602.0,0.0003910410285830057
3601.0,0.0003475746339209884
3600.0,0.0003475746339209884
3599.0,0.0003475746339209884
3598.0,0.00030411258916074324
3597.0,0.00026065489343207737
3596.0,0.00026065489343207737
3595.0,0.00026065489343207737
3594.0,0.00030411258916074324
3593.0,0.0003475746339209884
3592.0,0.0003475746339209884
3591.0,0.00026065489343207737
3590.0,0.0001303078917322953
3589.0,8.686758342868472e-05
3588.0,0.00017375254558760211
3587.0,0.0003910410285830057
3586.0,0.0005649501236701937
3585.0,0.0006084382809090627
3584.0,0.0005649501236701937
3583.0,0.00043451177401765406
3582.0,0.0003475746339209884
3581.0,0.00030411258916074324
3580.0,0.00026065489343207737
3579.0,0.00026065489343207737
3578.0,0.00026065489343207737
3577.0,0.00030411258916074324
3576.0,0.0003475746339209884
3575.0,0.0003910410285830057
3574.0,0.0003910410285830057
3573.0,0.0003910410285830057
3572.0,0.00043451177401765406
3571.0,0.0004779868710962365
3570.0,0.0005649501236701937
3569.0,0.0006519307932786322
3568.0,0.0006519307932786322
3567.0,0.0006084382809090627
3566.0,0.0005649501236701937
3565.0,0.000521466320689834
3564.0,0.000521466320689834
3563.0,0.000521466320689834
3562.0,0.00043451177401765406
3561.0,0.0003910410285830057
3560.0,0.0003475746339209884
3559.0,0.0003910410285830057
3558.0,0.00043451177401765406
3557.0,0.00043451177401765406
3556.0,0.00043451177401765406
3555.0,0.0004779868710962365
3554.0,0.000521466320689834
3553.0,0.0006084382809090627
3552.0,0.0006519307932786322
3551.0,0.0006084382809090627
3550.0,0.0005649501236701937
3549.0,0.0005649501236701937
3548.0,0.0005649501236701937
3547.0,0.0005649501236701937
3546.0,0.0005649501236701937
3545.0,0.0005649501236701937
3544.0,0.0006084382809090627
3543.0,0.0006084382809090627
3542.0,0.0006084382809090627
3541.0,0.0005649501236701937
3540.0,0.0006084382809090627
3539.0,0.0006954276616513155
3538.0,0.0007824344698965646
3537.0,0.000869458712629001
3536.0,0.000869458712629001
3535.0,0.0007389288868995258
3534.0,0.0006084382809090627
3533.0,0.00043451177401765406
3532.0,0.00030411258916074324
3531.0,0.00026065489343207737
3530.0,0.00026065489343207737
3529.0,0.0003475746339209884
3528.0,0.00043451177401765406
3527.0,0.000521466320689834
3526.0,0.0006084382809090627
3525.0,0.0006084382809090627
3524.0,0.0006519307932786322
3523.0,0.0006519307932786322
3522.0,0.0006954276616513155
3521.0,0.0006519307932786322
3520.0,0.0006084382809090627
3519.0,0.000521466320689834
3518.0,0.0003475746339209884
3517.0,0.00026065489343207737
3516.0,0.00021720154586435392
3515.0,0.00021720154586435392
3514.0,0.00030411258916074324
3513.0,0.0003475746339209884
3512.0,0.00030411258916074324
3511.0,0.00026065489343207737
3510.0,0.00017375254558760211
3509.0,8.686758342868472e-05
3508.0,4.343161980746579e-05
3507.0,4.343161980746579e-05
3506.0,0.00017375254558760211
3505.0,0.00030411258916074324
3504.0,0.00043451177401765406
3503.0,0.00043451177401765406
3502.0,0.0003910410285830057
3501.0,0.00030411258916074324
3500.0,0.0003475746339209884
3499.0,0.0004779868710962365
3498.0,0.0006519307932786322
3497.0,0.0007824344698965646
3496.0,0.000869458712629001
3495.0,0.0009565003968372565
3494.0,0.0010000277816797354
3493.0,0.0010000277816797354
3492.0,0.0009565003968372565
3491.0,0.0007824344698965646
3490.0,0.0006519307932786322
3489.0,0.000521466320689834
3488.0,0.00043451177401765406
3487.0,0.00030411258916074324
3486.0,0.00026065489343207737
3485.0,0.00021720154586435392
3484.0,0.00026065489343207737
3483.0,0.0003475746339209884
3482.0,0.0004779868710962365
3481.0,0.0005649501236701937
3480.0,0.0006084382809090627
3479.0,0.0005649501236701937
3478.0,0.000521466320689834
3477.0,0.0004779868710962365
3476.0,0.0004779868710962365
3475.0,0.000521466320689834
3474.0,0.0005649501236701937
3473.0,0.0005649501236701937
3472.0,0.000521466320689834
3471.0,0.0003910410285830057
3470.0,0.00030411258916074324
3469.0,0.00026065489343207737
3468.0,0.0003475746339209884
3467.0,0.0004779868710962365
3466.0,0.0006084382809090627
3465.0,0.0006084382809090627
3464.0,0.000521466320689834
3463.0,0.0004779868710962365
3462.0,0.000521466320689834
3461.0,0.0006519307932786322
3460.0,0.0008259444115150671
3459.0,0.0008259444115150671
3458.0,0.0006954276616513155
3457.0,0.000521466320689834
3456.0,0.00030411258916074324
3455.0,0.00017375254558760211
3454.0,0.0001303078917322953
3453.0,0.0001303078917322953
3452.0,0.00021720154586435392
3451.0,0.0003475746339209884
3450.0,0.0004779868710962365
3449.0,0.0005649501236701937
3448.0,0.0006084382809090627
3447.0,0.0006084382809090627
3446.0,0.0006084382809090627
3445.0,0.0006084382809090627
3444.0,0.0006084382809090627
3443.0,0.0006084382809090627
3442.0,0.000521466320689834
3441.0,0.0004779868710962365
3440.0,0.0003910410285830057
3439.0,0.0003910410285830057
3438.0,0.00043451177401765406
3437.0,0.0005649501236701937
3436.0,0.0006954276616513155
3435.0,0.0007824344698965646
3434.0,0.0007389288868995258
3433.0,0.0006519307932786322
3432.0,0.0004779868710962365
3431.0,0.0003475746339209884
3430.0,0.00026065489343207737
3429.0,0.00030411258916074324
3428.0,0.0003910410285830057
3427.0,0.000521466320689834
3426.0,0.0006519307932786322
3425.0,0.0007389288868995258
3424.0,0.0008259444115150671
3423.0,0.000869458712629001
3422.0,0.0008259444115150671
3421.0,0.0007824344698965646
3420.0,0.0007389288868995258
3419.0,0.0006954276616513155
3418.0,0.0006084382809090627
3417.0,0.000521466320689834
3416.0,0.0004779868710962365
3415.0,0.0004779868710962365
3414.0,0.0005649501236701937
3413.0,0.0006954276616513155
3412.0,0.0007824344698965646
3411.0,0.0007824344698965646
3410.0,0.0006519307932786322
3409.0,0.00043451177401765406
3408.0,0.00026065489343207737
3407.0,0.00026065489343207737
3406.0,0.0003475746339209884
3405.0,0.00043451177401765406
3404.0,0.0004779868710962365
3403.0,0.0004779868710962365
3402.0,0.0004779868710962365
3401.0,0.0006084382809090627
3400.0,0.0007389288868995258
3399.0,0.0008259444115150671
3398.0,0.0008259444115150671
3397.0,0.0006954276616513155
3396.0,0.000521466320689834
3395.0,0.00030411258916074324
3394.0,0.00017375254558760211
3393.0,0.00017375254558760211
3392.0,0.00030411258916074324
3391.0,0.0003910410285830057
3390.0,0.0004779868710962365
3389.0,0.00043451177401765406
3388.0,0.0003475746339209884
3387.0,0.00030411258916074324
3386.0,0.00030411258916074324
3385.0,0.0003910410285830057
3384.0,0.00043451177401765406
3383.0,0.00043451177401765406
3382.0,0.0004779868710962365
3381.0,0.0006084382809090627
3380.0,0.0007824344698965646
3379.0,0.0009565003968372565
3378.0,0.0010000277816797354
3377.0,0.000869458712629001
3376.0,0.0006519307932786322
3375.0,0.00043451177401765406
3374.0,0.0003475746339209884
3373.0,0.00030411258916074324
3372.0,0.00030411258916074324
3371.0,0.00026065489343207737
3370.0,0.00026065489343207737
3369.0,0.00017375254558760211
3368.0,0.0001303078917322953
3367.0,0.0001303078917322953
3366.0,0.00021720154586435392
3365.0,0.0003910410285830057
3364.0,0.0004779868710962365
3363.0,0.0005649501236701937
3362.0,0.000521466320689834
3361.0,0.000521466320689834
3360.0,0.000521466320689834
3359.0,0.000521466320689834
3358.0,0.0004779868710962365
3357.0,0.0004779868710962365
3356.0,0.0004779868710962365
3355.0,0.0004779868710962365
3354.0,0.00043451177401765406
3353.0,0.0003475746339209884
3352.0,0.00026065489343207737
3351.0,0.00030411258916074324
3350.0,0.00043451177401765406
3349.0,0.0006084382809090627
3348.0,0.0006519307932786322
3347.0,0.0006084382809090627
3346.0,0.0004779868710962365
3345.0,0.0003910410285830057
3344.0,0.0003910410285830057
3343.0,0.00043451177401765406
3342.0,0.0003910410285830057
3341.0,0.0003475746339209884
3340.0,0.00026065489343207737
3339.0,0.00026065489343207737
3338.0,0.00021720154586435392
3337.0,0.00021720154586435392
3336.0,0.00017375254558760211
3335.0,0.00017375254558760211
3334.0,0.00021720154586435392
3333.0,0.0003475746339209884
3332.0,0.0004779868710962365
3331.0,0.0006084382809090627
3330.0,0.0006084382809090627
3329.0,0.0005649501236701937
3328.0,0.0004779868710962365
3327.0,0.0003910410285830057
3326.0,0.0003910410285830057
3325.0,0.0003910410285830057
3324.0,0.0004779868710962365
3323.0,0.000521466320689834
3322.0,0.000521466320689834
3321.0,0.0004779868710962365
3320.0,0.0003910410285830057
3319.0,0.00026065489343207737
3318.0,0.00021720154586435392
3317.0,0.00030411258916074324
3316.0,0.0004779868710962365
3315.0,0.0006519307932786322
3314.0,0.0008259444115150671
3313.0,0.0009129773741116676
3312.0,0.0009565003968372565
3311.0,0.0009565003968372565
3310.0,0.0009129773741116676
3309.0,0.0008259444115150671
3308.0,0.0007389288868995258
3307.0,0.0006519307932786322
3306.0,0.0005649501236701937
3305.0,0.000521466320689834
3304.0,0.0004779868710962365
3303.0,0.0004779868710962365
3302.0,0.000521466320689834
3301.0,0.0004779868710962365
3300.0,0.0004779868710962365
3299.0,0.00043451177401765406
3298.0,0.0004779868710962365
3297.0,0.0006084382809090627
3296.0,0.0007389288868995258
3295.0,0.0008259444115150671
3294.0,0.0007824344698965646
3293.0,0.0007389288868995258
3292.0,0.0007389288868995258
3291.0,0.0007824344698965646
3290.0,0.0007389288868995258
3289.0,0.0006519307932786322
3288.0,0.0004779868710962365
3287.0,0.0003475746339209884
3286.0,0.00021720154586435392
3285.0,0.00021720154586435392
3284.0,0.00026065489343207737
3283.0,0.0003910410285830057
3282.0,0.0005649501236701937
3281.0,0.0007389288868995258
3280.0,0.0008259444115150671
3279.0,0.0007824344698965646
3278.0,0.0007389288868995258
3277.0,0.0007389288868995258
3276.0,0.000869458712629001
3275.0,0.0011306361176557367
3274.0,0.001348404001626502
3273.0,0.001304841688344327
3272.0,0.0011306361176557367
3271.0,0.0008259444115150671
3270.0,0.0006084382809090627
3269.0,0.000521466320689834
3268.0,0.000521466320689834
3267.0,0.0006084382809090627
3266.0,0.0006519307932786322
3265.0,0.0006084382809090627
3264.0,0.0006084382809090627
3263.0,0.0006084382809090627
3262.0,0.0006084382809090627
3261.0,0.0006084382809090627
3260.0,0.000521466320689834
3259.0,0.0004779868710962365
3258.0,0.0004779868710962365
3257.0,0.0006084382809090627
3256.0,0.0007824344698965646
3255.0,0.0009129773741116676
3254.0,0.0009565003968372565
3253.0,0.0009129773741116676
3252.0,0.0007389288868995258
3251.0,0.0005649501236701937
3250.0,0.0004779868710962365
3249.0,0.00043451177401765406
3248.0,0.00043451177401765406
3247.0,0.0004779868710962365
3246.0,0.000521466320689834
3245.0,0.0005649501236701937
3244.0,0.0006519307932786322
3243.0,0.0007389288868995258
3242.0,0.0007824344698965646
3241.0,0.0007824344698965646
3240.0,0.0007389288868995258
3239.0,0.0006954276616513155
3238.0,0.0006954276616513155
3237.0,0.0006519307932786322
3236.0,0.0005649501236701937
3235.0,0.0003475746339209884
3234.0,0.00017375254558760211
3233.0,0.0001303078917322953
3232.0,0.00021720154586435392
3231.0,0.0003910410285830057
3230.0,0.0004779868710962365
3229.0,0.0004779868710962365
3228.0,0.00043451177401765406
3227.0,0.00043451177401765406
3226.0,0.0004779868710962365
3225.0,0.000521466320689834
3224.0,0.000521466320689834
3223.0,0.0004779868710962365
3222.0,0.000521466320689834
3221.0,0.0006084382809090627
3220.0,0.0006519307932786322
3219.0,0.0007389288868995258
3218.0,0.0007389288868995258
3217.0,0.0007389288868995258
3216.0,0.0006954276616513155
3215.0,0.0006519307932786322
3214.0,0.0006519307932786322
3213.0,0.0006519307932786322
3212.0,0.0006519307932786322
3211.0,0.0006084382809090627
3210.0,0.000521466320689834
3209.0,0.0003910410285830057
3208.0,0.00030411258916074324
3207.0,0.00026065489343207737
3206.0,0.0003475746339209884
3205.0,0.00043451177401765406
3204.0,0.0005649501236701937
3203.0,0.0006519307932786322
3202.0,0.0006954276616513155
3201.0,0.0006954276616513155
3200.0,0.0006954276616513155
3199.0,0.0007389288868995258
3198.0,0.0007824344698965646
3197.0,0.0008259444115150671
3196.0,0.0008259444115150671
3195.0,0.0007824344698965646
3194.0,0.0006519307932786322
3193.0,0.0005649501236701937
3192.0,0.0005649501236701937
3191.0,0.0006519307932786322
3190.0,0.0007824344698965646
3189.0,0.0009129773741116676
3188.0,0.0010000277816797354
3187.0,0.0010000277816797354
3186.0,0.0009565003968372565
3185.0,0.000869458712629001
3184.0,0.0007824344698965646
3183.0,0.0007389288868995258
3182.0,0.0006954276616513155
3181.0,0.0006519307932786322
3180.0,0.0006084382809090627
3179.0,0.0006084382809090627
3178.0,0.0005649501236701937
3177.0,0.000521466320689834
3176.0,0.000521466320689834
3175.0,0.000521466320689834
3174.0,0.0006519307932786322
3173.0,0.0008259444115150671
3172.0,0.0009129773741116676
3171.0,0.0008259444115150671
3170.0,0.0006954276616513155
3169.0,0.0005649501236701937
3168.0,0.0004779868710962365
3167.0,0.00043451177401765406
3166.0,0.00043451177401765406
3165.0,0.0004779868710962365
3164.0,0.0004779868710962365
3163.0,0.000521466320689834
3162.0,0.000521466320689834
3161.0,0.0005649501236701937
3160.0,0.0006084382809090627
3159.0,0.0006084382809090627
3158.0,0.000521466320689834
3157.0,0.0003910410285830057
3156.0,0.00026065489343207737
3155.0,0.00026065489343207737
3154.0,0.00026065489343207737
3153.0,0.00030411258916074324
3152.0,0.0003910410285830057
3151.0,0.0004779868710962365
3150.0,0.000521466320689834
3149.0,0.0005649501236701937
3148.0,0.0005649501236701937
3147.0,0.0006519307932786322
3146.0,0.0007389288868995258
3145.0,0.0007824344698965646
3144.0,0.0007824344698965646
3143.0,0.0007389288868995258
3142.0,0.0006954276616513155
3141.0,0.0006954276616513155
3140.0,0.0006954276616513155
3139.0,0.0006954276616513155
3138.0,0.0006954276616513155
3137.0,0.0006084382809090627
3136.0,0.000521466320689834
3135.0,0.000521466320689834
3134.0,0.0005649501236701937
3133.0,0.0006084382809090627
3132.0,0.0006519307932786322
3131.0,0.0006519307932786322
3130.0,0.0006519307932786322
3129.0,0.0005649501236701937
3128.0,0.000521466320689834
3127.0,0.000521466320689834
3126.0,0.0005649501236701937
3125.0,0.0006519307932786322
3124.0,0.0006954276616513155
3123.0,0.0006954276616513155
3122.0,0.0007389288868995258
3121.0,0.0007389288868995258
3120.0,0.0007389288868995258
3119.0,0.0006519307932786322
3118.0,0.00043451177401765406
3117.0,0.00026065489343207737
3116.0,0.0001303078917322953
3115.0,8.686758342868472e-05
3114.0,0.0001303078917322953
3113.0,0.00021720154586435392
3112.0,0.0003475746339209884
3111.0,0.00043451177401765406
3110.0,0.0005649501236701937
3109.0,0.0006954276616513155
3108.0,0.0007389288868995258
3107.0,0.0007389288868995258
3106.0,0.0006954276616513155
3105.0,0.0006519307932786322
3104.0,0.0006519307932786322
3103.0,0.0006084382809090627
3102.0,0.000521466320689834
3101.0,0.0004779868710962365
3100.0,0.0003910410285830057
3099.0,0.0003910410285830057
3098.0,0.0003910410285830057
3097.0,0.0003910410285830057
3096.0,0.00043451177401765406
3095.0,0.0004779868710962365
3094.0,0.0004779868710962365
3093.0,0.0004779868710962365
3092.0,0.0004779868710962365
3091.0,0.000521466320689834
3090.0,0.0006084382809090627
3089.0,0.0006954276616513155
3088.0,0.0006954276616513155
3087.0,0.0005649501236701937
3086.0,0.00043451177401765406
3085.0,0.0003475746339209884
3084.0,0.0003475746339209884
3083.0,0.0003910410285830057
3082.0,0.000521466320689834
3081.0,0.0006519307932786322
3080.0,0.0007824344698965646
3079.0,0.0008259444115150671
3078.0,0.0007824344698965646
3077.0,0.0006954276616513155
3076.0,0.0006084382809090627
3075.0,0.000521466320689834
3074.0,0.0004779868710962365
3073.0,0.0004779868710962365
3072.0,0.0004779868710962365
3071.0,0.00043451177401765406
3070.0,0.0003910410285830057
3069.0,0.0003475746339209884
3068.0,0.0003910410285830057
3067.0,0.00043451177401765406
3066.0,0.0004779868710962365
3065.0,0.0004779868710962365
3064.0,0.0004779868710962365
3063.0,0.0004779868710962365
3062.0,0.000521466320689834
3061.0,0.000521466320689834
3060.0,0.000521466320689834
3059.0,0.000521466320689834
3058.0,0.0005649501236701937
3057.0,0.0005649501236701937
3056.0,0.000521466320689834
3055.0,0.000521466320689834
3054.0,0.000521466320689834
3053.0,0.0004779868710962365
3052.0,0.00043451177401765406
3051.0,0.0003475746339209884
3050.0,0.00021720154586435392
3049.0,0.00017375254558760211
3048.0,0.0001303078917322953
3047.0,0.0001303078917322953
3046.0,0.00017375254558760211
3045.0,0.00026065489343207737
3044.0,0.0003475746339209884
3043.0,0.0003475746339209884
3042.0,0.0003475746339209884
3041.0,0.0003475746339209884
3040.0,0.0003910410285830057
3039.0,0.0004779868710962365
3038.0,0.0005649501236701937
3037.0,0.0006084382809090627
3036.0,0.0005649501236701937
3035.0,0.00043451177401765406
3034.0,0.00030411258916074324
3033.0,0.00021720154586435392
3032.0,0.00017375254558760211
3031.0,0.00021720154586435392
3030.0,0.00030411258916074324
3029.0,0.0003910410285830057
3028.0,0.000521466320689834
3027.0,0.0006084382809090627
3026.0,0.0006084382809090627
3025.0,0.0005649501236701937
3024.0,0.000521466320689834
3023.0,0.0004779868710962365
3022.0,0.0004779868710962365
3021.0,0.00043451177401765406
3020.0,0.0003910410285830057
3019.0,0.0003910410285830057
3018.0,0.0003475746339209884
3017.0,0.0003910410285830057
3016.0,0.00043451177401765406
3015.0,0.0004779868710962365
3014.0,0.000521466320689834
3013.0,0.0005649501236701937
3012.0,0.0005649501236701937
3011.0,0.000521466320689834
3010.0,0.0004779868710962365
3009.0,0.000521466320689834
3008.0,0.0005649501236701937
3007.0,0.0006519307932786322
3006.0,0.0006954276616513155
3005.0,0.0006519307932786322
3004.0,0.0006084382809090627
3003.0,0.0005649501236701937
3002.0,0.0004779868710962365
3001.0,0.00043451177401765406
3000.0,0.0003910410285830057
2999.0,0.0003910410285830057
2998.0,0.0003910410285830057
2997.0,0.0003910410285830057
2996.0,0.0003475746339209884
2995.0,0.00030411258916074324
2994.0,0.00030411258916074324
2993.0,0.00026065489343207737
2992.0,0.00026065489343207737
2991.0,0.00026065489343207737
2990.0,0.00030411258916074324
2989.0,0.0003475746339209884
2988.0,0.0003910410285830057
2987.0,0.00043451177401765406
2986.0,0.0004779868710962365
2985.0,0.0005649501236701937
2984.0,0.0005649501236701937
2983.0,0.0005649501236701937
2982.0,0.000521466320689834
2981.0,0.000521466320689834
2980.0,0.0004779868710962365
2979.0,0.0004779868710962365
2978.0,0.000521466320689834
2977.0,0.000521466320689834
2976.0,0.000521466320689834
2975.0,0.0004779868710962365
2974.0,0.0003910410285830057
2973.0,0.00030411258916074324
2972.0,0.00026065489343207737
2971.0,0.00030411258916074324
2970.0,0.0003910410285830057
2969.0,0.00043451177401765406
2968.0,0.00043451177401765406
2967.0,0.0003910410285830057
2966.0,0.0003475746339209884
2965.0,0.00026065489343207737
2964.0,0.00021720154586435392
2963.0,0.00026065489343207737
2962.0,0.00030411258916074324
2961.0,0.0003475746339209884
2960.0,0.00043451177401765406
2959.0,0.00043451177401765406
2958.0,0.00043451177401765406
2957.0,0.00043451177401765406
2956.0,0.0003910410285830057
2955.0,0.0003475746339209884
2954.0,0.00030411258916074324
2953.0,0.00026065489343207737
2952.0,0.00030411258916074324
2951.0,0.00030411258916074324
2950.0,0.0003475746339209884
2949.0,0.0003910410285830057
2948.0,0.00043451177401765406
2947.0,0.00043451177401765406
2946.0,0.0003910410285830057
2945.0,0.0003475746339209884
2944.0,0.00030411258916074324
2943.0,0.00030411258916074324
2942.0,0.00026065489343207737
2941.0,0.00017375254558760211
2940.0,0.00017375254558760211
2939.0,0.00021720154586435392
2938.0,0.00030411258916074324
2937.0,0.0003475746339209884
2936.0,0.0003910410285830057
2935.0,0.0003475746339209884
2934.0,0.0003910410285830057
2933.0,0.0004779868710962365
2932.0,0.0005649501236701937
2931.0,0.0006084382809090627
2930.0,0.0006519307932786322
2929.0,0.0005649501236701937
2928.0,0.0004779868710962365
2927.0,0.0003910410285830057
2926.0,0.0003475746339209884
2925.0,0.0003475746339209884
2924.0,0.0003475746339209884
2923.0,0.0003910410285830057
2922.0,0.00043451177401765406
2921.0,0.0004779868710962365
2920.0,0.0004779868710962365
2919.0,0.0004779868710962365
2918.0,0.0004779868710962365
2917.0,0.0004779868710962365
2916.0,0.00043451177401765406
2915.0,0.00043451177401765406
2914.0,0.0003910410285830057
2913.0,0.0003910410285830057
2912.0,0.0003910410285830057
2911.0,0.0003910410285830057
2910.0,0.0003475746339209884
2909.0,0.00030411258916074324
2908.0,0.00026065489343207737
2907.0,0.00026065489343207737
2906.0,0.00021720154586435392
2905.0,0.00026065489343207737
2904.0,0.0003475746339209884
2903.0,0.0004779868710962365
2902.0,0.000521466320689834
2901.0,0.000521466320689834
2900.0,0.000521466320689834
2899.0,0.000521466320689834
2898.0,0.000521466320689834
2897.0,0.000521466320689834
2896.0,0.0004779868710962365
2895.0,0.0003910410285830057
2894.0,0.00030411258916074324
2893.0,0.00026065489343207737
2892.0,0.00030411258916074324
2891.0,0.0003475746339209884
2890.0,0.0003475746339209884
2889.0,0.0003475746339209884
2888.0,0.0003475746339209884
2887.0,0.0003475746339209884
2886.0,0.0003910410285830057
2885.0,0.0003910410285830057
2884.0,0.0003910410285830057
2883.0,0.0003475746339209884
2882.0,0.00030411258916074324
2881.0,0.00030411258916074324
2880.0,0.0003475746339209884
2879.0,0.0003910410285830057
2878.0,0.0004779868710962365
2877.0,0.000521466320689834
2876.0,0.0005649501236701937
2875.0,0.0005649501236701937
2874.0,0.000521466320689834
2873.0,0.0005649501236701937
2872.0,0.000521466320689834
2871.0,0.000521466320689834
2870.0,0.00043451177401765406
2869.0,0.0003910410285830057
2868.0,0.0003910410285830057
2867.0,0.0003910410285830057
2866.0,0.0003475746339209884
2865.0,0.0003475746339209884
2864.0,0.00030411258916074324
2863.0,0.00030411258916074324
2862.0,0.0003475746339209884
2861.0,0.0003910410285830057
2860.0,0.0003910410285830057
2859.0,0.0003910410285830057
2858.0,0.0003910410285830057
2857.0,0.0003475746339209884
2856.0,0.0003475746339209884
2855.0,0.0003475746339209884
2854.0,0.00030411258916074324
2853.0,0.00026065489343207737
2852.0,0.00017375254558760211
2851.0,0.0001303078917322953
2850.0,0.0001303078917322953
2849.0,0.00017375254558760211
2848.0,0.00026065489343207737
2847.0,0.0003910410285830057
2846.0,0.0004779868710962365
2845.0,0.0005649501236701937
2844.0,0.0006084382809090627
2843.0,0.0006084382809090627
2842.0,0.0006084382809090627
2841.0,0.0006084382809090627
2840.0,0.0005649501236701937
2839.0,0.000521466320689834
2838.0,0.0004779868710962365
2837.0,0.00043451177401765406
2836.0,0.00043451177401765406
2835.0,0.00043451177401765406
2834.0,0.0003910410285830057
2833.0,0.0003910410285830057
2832.0,0.0003910410285830057
2831.0,0.00043451177401765406
2830.0,0.00043451177401765406
2829.0,0.00043451177401765406
2828.0,0.0003910410285830057
2827.0,0.0003475746339209884
2826.0,0.0003910410285830057
2825.0,0.0003910410285830057
2824.0,0.00043451177401765406
2823.0,0.0004779868710962365
2822.0,0.0004779868710962365
2821.0,0.0004779868710962365
2820.0,0.00043451177401765406
2819.0,0.00043451177401765406
2818.0,0.00043451177401765406
2817.0,0.0003910410285830057
2816.0,0.0003910410285830057
2815.0,0.0003910410285830057
2814.0,0.0003475746339209884
2813.0,0.0003475746339209884
2812.0,0.0003475746339209884
2811.0,0.00043451177401765406
2810.0,0.0004779868710962365
2809.0,0.000521466320689834
2808.0,0.0004779868710962365
2807.0,0.0003910410285830057
2806.0,0.0003910410285830057
2805.0,0.00043451177401765406
2804.0,0.00043451177401765406
2803.0,0.00043451177401765406
2802.0,0.00043451177401765406
2801.0,0.0003910410285830057
2800.0,0.0003910410285830057
2799.0,0.00043451177401765406
2798.0,0.0003910410285830057
2797.0,0.0003475746339209884
2796.0,0.00030411258916074324
2795.0,0.00030411258916074324
2794.0,0.0003475746339209884
2793.0,0.0003475746339209884
2792.0,0.0003475746339209884
2791.0,0.00030411258916074324
2790.0,0.00030411258916074324
2789.0,0.00030411258916074324
2788.0,0.0003475746339209884
2787.0,0.0003910410285830057
2786.0,0.00043451177401765406
2785.0,0.0003910410285830057
2784.0,0.0003475746339209884
2783.0,0.00026065489343207737
2782.0,0.00026065489343207737
2781.0,0.00030411258916074324
2780.0,0.0003910410285830057
2779.0,0.00043451177401765406
2778.0,0.00043451177401765406
2777.0,0.00043451177401765406
2776.0,0.00043451177401765406
2775.0,0.00043451177401765406
2774.0,0.0004779868710962365
2773.0,0.0005649501236701937
2772.0,0.0006084382809090627
2771.0,0.0005649501236701937
2770.0,0.000521466320689834
2769.0,0.0004779868710962365
2768.0,0.0004779868710962365
2767.0,0.00043451177401765406
2766.0,0.00043451177401765406
2765.0,0.00043451177401765406
2764.0,0.00043451177401765406
2763.0,0.00043451177401765406
2762.0,0.00043451177401765406
2761.0,0.00043451177401765406
2760.0,0.0003910410285830057
2759.0,0.0003475746339209884
2758.0,0.00030411258916074324
2757.0,0.00026065489343207737
2756.0,0.00030411258916074324
2755.0,0.00030411258916074324
2754.0,0.0003475746339209884
2753.0,0.00043451177401765406
2752.0,0.0004779868710962365
2751.0,0.0005649501236701937
2750.0,0.0006084382809090627
2749.0,0.0006084382809090627
2748.0,0.0006084382809090627
2747.0,0.0005649501236701937
2746.0,0.0005649501236701937
2745.0,0.000521466320689834
2744.0,0.0004779868710962365
2743.0,0.0004779868710962365
2742.0,0.000521466320689834
2741.0,0.000521466320689834
2740.0,0.0005649501236701937
2739.0,0.000521466320689834
2738.0,0.0004779868710962365
2737.0,0.00043451177401765406
2736.0,0.0003475746339209884
2735.0,0.00030411258916074324
2734.0,0.00026065489343207737
2733.0,0.0003475746339209884
2732.0,0.0003910410285830057
2731.0,0.00043451177401765406
2730.0,0.00043451177401765406
2729.0,0.0003475746339209884
2728.0,0.00030411258916074324
2727.0,0.00030411258916074324
2726.0,0.00026065489343207737
2725.0,0.00026065489343207737
2724.0,0.00026065489343207737
2723.0,0.00026065489343207737
2722.0,0.00026065489343207737
2721.0,0.00026065489343207737
2720.0,0.00026065489343207737
2719.0,0.0003475746339209884
2718.0,0.00043451177401765406
2717.0,0.0004779868710962365
2716.0,0.000521466320689834
2715.0,0.0004779868710962365
2714.0,0.0004779868710962365
2713.0,0.00043451177401765406
2712.0,0.00043451177401765406
2711.0,0.00043451177401765406
2710.0,0.0003910410285830057
2709.0,0.0003475746339209884
2708.0,0.00030411258916074324
2707.0,0.00026065489343207737
2706.0,0.00026065489343207737
2705.0,0.00026065489343207737
2704.0,0.00021720154586435392
2703.0,0.00021720154586435392
2702.0,0.00017375254558760211
2701.0,0.00017375254558760211
2700.0,0.00021720154586435392
2699.0,0.00026065489343207737
2698.0,0.00026065489343207737
2697.0,0.00026065489343207737
2696.0,0.00021720154586435392
2695.0,0.00026065489343207737
2694.0,0.00030411258916074324
2693.0,0.0003475746339209884
2692.0,0.0003475746339209884
2691.0,0.00030411258916074324
2690.0,0.00021720154586435392
2689.0,0.00017375254558760211
2688.0,0.00017375254558760211
2687.0,0.00017375254558760211
2686.0,0.00021720154586435392
2685.0,0.00030411258916074324
2684.0,0.0003910410285830057
2683.0,0.0004779868710962365
2682.0,0.0004779868710962365
2681.0,0.0004779868710962365
2680.0,0.000521466320689834
2679.0,0.0005649501236701937
2678.0,0.0006084382809090627
2677.0,0.0005649501236701937
2676.0,0.0005649501236701937
2675.0,0.0005649501236701937
2674.0,0.0005649501236701937
2673.0,0.000521466320689834
2672.0,0.0004779868710962365
2671.0,0.00043451177401765406
2670.0,0.0003910410285830057
2669.0,0.00043451177401765406
2668.0,0.0004779868710962365
2667.0,0.000521466320689834
2666.0,0.000521466320689834
2665.0,0.0004779868710962365
2664.0,0.0003475746339209884
2663.0,0.00026065489343207737
2662.0,0.00017375254558760211
2661.0,0.00017375254558760211
2660.0,0.00021720154586435392
2659.0,0.00026065489343207737
2658.0,0.0003475746339209884
2657.0,0.0003910410285830057
2656.0,0.00043451177401765406
2655.0,0.0004779868710962365
2654.0,0.0004779868710962365
2653.0,0.000521466320689834
2652.0,0.000521466320689834
2651.0,0.000521466320689834
2650.0,0.0004779868710962365
2649.0,0.00043451177401765406
2648.0,0.0003475746339209884
2647.0,0.00030411258916074324
2646.0,0.00030411258916074324
2645.0,0.00030411258916074324
2644.0,0.00030411258916074324
2643.0,0.0003475746339209884
2642.0,0.0003475746339209884
2641.0,0.0003475746339209884
2640.0,0.00030411258916074324
2639.0,0.00026065489343207737
2638.0,0.00026065489343207737
2637.0,0.00026065489343207737
2636.0,0.00030411258916074324
2635.0,0.0003475746339209884
2634.0,0.0003475746339209884
2633.0,0.0003475746339209884
2632.0,0.0003475746339209884
2631.0,0.00030411258916074324
2630.0,0.00021720154586435392
2629.0,0.00021720154586435392
2628.0,0.00021720154586435392
2627.0,0.00030411258916074324
2626.0,0.0003475746339209884
2625.0,0.0003475746339209884
2624.0,0.0003475746339209884
2623.0,0.0003475746339209884
2622.0,0.0003910410285830057
2621.0,0.0004779868710962365
2620.0,0.000521466320689834
2619.0,0.0005649501236701937
2618.0,0.0005649501236701937
2617.0,0.0004779868710962365
2616.0,0.0003475746339209884
2615.0,0.00021720154586435392
2614.0,0.0001303078917322953
2613.0,8.686758342868472e-05
2612.0,0.0001303078917322953
2611.0,0.00026065489343207737
2610.0,0.0003475746339209884
2609.0,0.00043451177401765406
2608.0,0.0004779868710962365
2607.0,0.000521466320689834
2606.0,0.0004779868710962365
2605.0,0.00043451177401765406
2604.0,0.00043451177401765406
2603.0,0.00043451177401765406
2602.0,0.00043451177401765406
2601.0,0.0004779868710962365
2600.0,0.00043451177401765406
2599.0,0.0003910410285830057
2598.0,0.00030411258916074324
2597.0,0.00030411258916074324
2596.0,0.0003475746339209884
2595.0,0.00043451177401765406
2594.0,0.000521466320689834
2593.0,0.000521466320689834
2592.0,0.0004779868710962365
2591.0,0.00043451177401765406
2590.0,0.0003910410285830057
2589.0,0.0003910410285830057
2588.0,0.00043451177401765406
2587.0,0.00043451177401765406
2586.0,0.00043451177401765406
2585.0,0.0003475746339209884
2584.0,0.00030411258916074324
2583.0,0.00026065489343207737
2582.0,0.00030411258916074324
2581.0,0.0003910410285830057
2580.0,0.0004779868710962365
2579.0,0.0004779868710962365
2578.0,0.0004779868710962365
2577.0,0.00043451177401765406
2576.0,0.0003475746339209884
2575.0,0.00030411258916074324
2574.0,0.00030411258916074324
2573.0,0.00030411258916074324
2572.0,0.0003475746339209884
2571.0,0.0003475746339209884
2570.0,0.0003910410285830057
2569.0,0.0003910410285830057
2568.0,0.00043451177401765406
2567.0,0.00043451177401765406
2566.0,0.00043451177401765406
2565.0,0.00043451177401765406
2564.0,0.0003910410285830057
2563.0,0.0003475746339209884
2562.0,0.00030411258916074324
2561.0,0.00030411258916074324
2560.0,0.00030411258916074324
2559.0,0.0003475746339209884
2558.0,0.0003910410285830057
2557.0,0.00030411258916074324
2556.0,0.00021720154586435392
2555.0,0.00017375254558760211
2554.0,0.00021720154586435392
2553.0,0.0003475746339209884
2552.0,0.00043451177401765406
2551.0,0.000521466320689834
2550.0,0.0004779868710962365
2549.0,0.0004779868710962365
2548.0,0.00043451177401765406
2547.0,0.0004779868710962365
2546.0,0.0004779868710962365
2545.0,0.0004779868710962365
2544.0,0.00043451177401765406
2543.0,0.0003910410285830057
2542.0,0.0003910410285830057
2541.0,0.0003910410285830057
2540.0,0.00043451177401765406
2539.0,0.00043451177401765406
2538.0,0.00043451177401765406
2537.0,0.0003475746339209884
2536.0,0.00030411258916074324
2535.0,0.00026065489343207737
2534.0,0.00026065489343207737
2533.0,0.0003475746339209884
2532.0,0.0003910410285830057
2531.0,0.00043451177401765406
2530.0,0.00043451177401765406
2529.0,0.00043451177401765406
2528.0,0.0004779868710962365
2527.0,0.0005649501236701937
2526.0,0.0006084382809090627
2525.0,0.0006084382809090627
2524.0,0.0005649501236701937
2523.0,0.000521466320689834
2522.0,0.000521466320689834
2521.0,0.0004779868710962365
2520.0,0.0003910410285830057
2519.0,0.00030411258916074324
2518.0,0.00017375254558760211
2517.0,0.00017375254558760211
2516.0,0.00017375254558760211
2515.0,0.00017375254558760211
2514.0,0.00021720154586435392
2513.0,0.00021720154586435392
2512.0,0.00021720154586435392
2511.0,0.00026065489343207737
2510.0,0.00026065489343207737
2509.0,0.00030411258916074324
2508.0,0.00026065489343207737
2507.0,0.00026065489343207737
2506.0,0.00030411258916074324
2505.0,0.0003910410285830057
2504.0,0.00043451177401765406
2503.0,0.0004779868710962365
2502.0,0.0004779868710962365
2501.0,0.00043451177401765406
2500.0,0.00043451177401765406
2499.0,0.00043451177401765406
2498.0,0.00043451177401765406
2497.0,0.00043451177401765406
2496.0,0.0003475746339209884
2495.0,0.00030411258916074324
2494.0,0.00026065489343207737
2493.0,0.00030411258916074324
2492.0,0.0003910410285830057
2491.0,0.0004779868710962365
2490.0,0.0004779868710962365
2489.0,0.0004779868710962365
2488.0,0.00043451177401765406
2487.0,0.00043451177401765406
2486.0,0.00043451177401765406
2485.0,0.00043451177401765406
2484.0,0.0003910410285830057
2483.0,0.00026065489343207737
2482.0,0.00017375254558760211
2481.0,8.686758342868472e-05
2480.0,0.0001303078917322953
2479.0,0.00021720154586435392
2478.0,0.00026065489343207737
2477.0,0.00030411258916074324
2476.0,0.0003475746339209884
2475.0,0.00043451177401765406
2474.0,0.0004779868710962365
2473.0,0.000521466320689834
2472.0,0.000521466320689834
2471.0,0.000521466320689834
2470.0,0.00043451177401765406
2469.0,0.0003910410285830057
2468.0,0.0003910410285830057
2467.0,0.0003910410285830057
2466.0,0.0004779868710962365
2465.0,0.000521466320689834
2464.0,0.0005649501236701937
2463.0,0.000521466320689834
2462.0,0.0004779868710962365
2461.0,0.00043451177401765406
2460.0,0.0003910410285830057
2459.0,0.0003475746339209884
2458.0,0.00026065489343207737
2457.0,0.00026065489343207737
2456.0,0.00030411258916074324
2455.0,0.0003475746339209884
2454.0,0.0003910410285830057
2453.0,0.0003910410285830057
2452.0,0.0003910410285830057
2451.0,0.00043451177401765406
2450.0,0.0004779868710962365
2449.0,0.0004779868710962365
2448.0,0.0004779868710962365
2447.0,0.0003910410285830057
2446.0,0.0003475746339209884
2445.0,0.00030411258916074324
2444.0,0.00030411258916074324
2443.0,0.00030411258916074324
2442.0,0.0003910410285830057
2441.0,0.00043451177401765406
2440.0,0.0004779868710962365
2439.0,0.000521466320689834
2438.0,0.0004779868710962365
2437.0,0.00043451177401765406
2436.0,0.0003910410285830057
2435.0,0.00043451177401765406
2434.0,0.0005649501236701937
2433.0,0.0006519307932786322
2432.0,0.0006954276616513155
2431.0,0.0006954276616513155
2430.0,0.0006084382809090627
2429.0,0.0004779868710962365
2428.0,0.0003475746339209884
2427.0,0.00026065489343207737
2426.0,0.00021720154586435392
2425.0,0.00021720154586435392
2424.0,0.00021720154586435392
2423.0,0.00026065489343207737
2422.0,0.0003475746339209884
2421.0,0.00043451177401765406
2420.0,0.000521466320689834
2419.0,0.0005649501236701937
2418.0,0.000521466320689834
2417.0,0.00043451177401765406
2416.0,0.00030411258916074324
2415.0,0.00026065489343207737
2414.0,0.00026065489343207737
2413.0,0.00026065489343207737
2412.0,0.00030411258916074324
2411.0,0.0003475746339209884
2410.0,0.0003910410285830057
2409.0,0.0004779868710962365
2408.0,0.0004779868710962365
2407.0,0.0004779868710962365
2406.0,0.0003910410285830057
2405.0,0.00030411258916074324
2404.0,0.00026065489343207737
2403.0,0.00030411258916074324
2402.0,0.0003910410285830057
2401.0,0.0004779868710962365
2400.0,0.000521466320689834
2399.0,0.0004779868710962365
2398.0,0.00043451177401765406
2397.0,0.0003910410285830057
2396.0,0.0003910410285830057
2395.0,0.0003475746339209884
2394.0,0.00030411258916074324
2393.0,0.00026065489343207737
2392.0,0.00021720154586435392
2391.0,0.00021720154586435392
2390.0,0.00017375254558760211
2389.0,0.00017375254558760211
2388.0,0.00017375254558760211
2387.0,0.0001303078917322953
2386.0,8.686758342868472e-05
2385.0,4.343161980746579e-05
2384.0,0.0
2383.0,-4.3427276862573194e-05
2382.0,-8.685021164911433e-05
2381.0,-8.685021164911433e-05
2380.0,-8.685021164911433e-05
2379.0,-4.3427276862573194e-05
2378.0,0.0
2377.0,0.0001303078917322953
2376.0,0.00021720154586435392
2375.0,0.0003475746339209884
2374.0,0.00043451177401765406
2373.0,0.0004779868710962365
2372.0,0.0003475746339209884
2371.0,4.343161980746579e-05
2370.0,-0.0005208409361854294
2369.0,-0.0010843812922201046
2368.0,-0.0015173768235041685
2367.0,-0.0016471913460383014
2366.0,-0.001257631312230778
2365.0,-0.00043407747931878404
2364.0,0.00043451177401765406
2363.0,0.0007389288868995258
2362.0,0.0003910410285830057
2361.0,4.343161980746579e-05
2360.0,0.0
2359.0,-8.685021164911433e-05
2358.0,-0.00043407747931878404
2357.0,-0.0008243766056055257
2356.0,-0.0007376737740329986
2355.0,-0.00030389978481260016
2354.0,0.0
2353.0,8.686758342868472e-05
2352.0,0.0
2351.0,-8.685021164911433e-05
2350.0,-0.00017368305846510168
2349.0,-0.00021709297223004853
2348.0,-0.00021709297223004853
2347.0,-0.00013026880522692963
2346.0,-0.00017368305846510168
2345.0,-0.0002604985473904087
2344.0,-0.00030389978481260016
2343.0,-0.0003472966853634851
2342.0,-0.0003472966853634851
2341.0,-0.0003906892499099257
2340.0,-0.00021709297223004853
2339.0,0.00026065489343207737
2338.0,0.000869458712629001
2337.0,0.0012612837441823288
2336.0,0.0011741809597138886
2335.0,0.0006084382809090627
2334.0,-0.00021709297223004853
2333.0,-0.0009110621312231615
2332.0,-0.00121432528617893
2331.0,-0.001041057986093552
2330.0,-0.0006075870628903246
2329.0,-0.0002604985473904087
2328.0,-0.00013026880522692963
2327.0,-4.3427276862573194e-05
2326.0,0.0
2325.0,0.0
2324.0,-4.3427276862573194e-05
2323.0,-0.00013026880522692963
2322.0,-0.00017368305846510168
2321.0,-0.00017368305846510168
2320.0,-8.685021164911433e-05
2319.0,-4.3427276862573194e-05
2318.0,-0.00013026880522692963
2317.0,-0.00017368305846510168
2316.0,-0.00017368305846510168
2315.0,-0.00013026880522692963
2314.0,-0.00017368305846510168
2313.0,-0.0003472966853634851
2312.0,-0.0005642161653756084
2311.0,-0.0007810273534953893
2310.0,-0.0008243766056055257
2309.0,-0.0006943158663546001
2308.0,-0.0004774613744551459
2307.0,-0.0002604985473904087
2306.0,-8.685021164911433e-05
2305.0,4.343161980746579e-05
2304.0,0.0001303078917322953
2303.0,0.00017375254558760211
2302.0,0.00017375254558760211
2301.0,0.00017375254558760211
2300.0,0.0001303078917322953
2299.0,0.0001303078917322953
2298.0,8.686758342868472e-05
2297.0,8.686758342868472e-05
2296.0,8.686758342868472e-05
2295.0,0.0001303078917322953
2294.0,0.00017375254558760211
2293.0,0.00021720154586435392
2292.0,0.00026065489343207737
2291.0,0.00026065489343207737
2290.0,0.00030411258916074324
2289.0,0.00030411258916074324
2288.0,0.00026065489343207737
2287.0,0.00021720154586435392
2286.0,0.00021720154586435392
2285.0,0.00026065489343207737
2284.0,0.0003475746339209884
2283.0,0.0003910410285830057
2282.0,0.0003475746339209884
2281.0,0.0003475746339209884
2280.0,0.00030411258916074324
2279.0,0.0003475746339209884
2278.0,0.0003910410285830057
2277.0,0.0003910410285830057
2276.0,0.00043451177401765406
2275.0,0.0004779868710962365
2274.0,0.000521466320689834
2273.0,0.000521466320689834
2272.0,0.0004779868710962365
2271.0,0.00043451177401765406
2270.0,0.0003910410285830057
2269.0,0.0003475746339209884
2268.0,0.0003475746339209884
2267.0,0.0003475746339209884
2266.0,0.0003910410285830057
2265.0,0.00043451177401765406
2264.0,0.0004779868710962365
2263.0,0.0004779868710962365
2262.0,0.0004779868710962365
2261.0,0.00043451177401765406
2260.0,0.00043451177401765406
2259.0,0.0003910410285830057
2258.0,0.0003475746339209884
2257.0,0.0003475746339209884
2256.0,0.0003910410285830057
2255.0,0.00043451177401765406
2254.0,0.00043451177401765406
2253.0,0.0003910410285830057
2252.0,0.0003910410285830057
2251.0,0.0003475746339209884
2250.0,0.00030411258916074324
2249.0,0.00026065489343207737
2248.0,0.00017375254558760211
2247.0,0.0001303078917322953
2246.0,0.0001303078917322953
2245.0,0.00021720154586435392
2244.0,0.00030411258916074324
2243.0,0.00043451177401765406
2242.0,0.0004779868710962365
2241.0,0.000521466320689834
2240.0,0.0005649501236701937
2239.0,0.0006084382809090627
2238.0,0.0006519307932786322
2237.0,0.0006519307932786322
2236.0,0.0006084382809090627
2235.0,0.0006084382809090627
2234.0,0.0005649501236701937
2233.0,0.000521466320689834
2232.0,0.0004779868710962365
2231.0,0.00043451177401765406
2230.0,0.00043451177401765406
2229.0,0.0003910410285830057
2228.0,0.0003475746339209884
2227.0,0.0003475746339209884
2226.0,0.0003475746339209884
2225.0,0.0003910410285830057
2224.0,0.0003910410285830057
2223.0,0.0003910410285830057
2222.0,0.0003910410285830057
2221.0,0.0003910410285830057
2220.0,0.00030411258916074324
2219.0,0.00026065489343207737
2218.0,0.00021720154586435392
2217.0,0.00021720154586435392
2216.0,0.00017375254558760211
2215.0,0.00017375254558760211
2214.0,0.00017375254558760211
2213.0,0.00021720154586435392
2212.0,0.00030411258916074324
2211.0,0.0003910410285830057
2210.0,0.00043451177401765406
2209.0,0.0004779868710962365
2208.0,0.000521466320689834
2207.0,0.0005649501236701937
2206.0,0.000521466320689834
2205.0,0.0004779868710962365
2204.0,0.0003910410285830057
2203.0,0.0003475746339209884
2202.0,0.00030411258916074324
2201.0,0.00030411258916074324
2200.0,0.0003475746339209884
2199.0,0.0003910410285830057
2198.0,0.0003910410285830057
2197.0,0.00030411258916074324
2196.0,0.00021720154586435392
2195.0,0.00017375254558760211
2194.0,0.00021720154586435392
2193.0,0.00030411258916074324
2192.0,0.0003910410285830057
2191.0,0.0004779868710962365
2190.0,0.000521466320689834
2189.0,0.000521466320689834
2188.0,0.0004779868710962365
2187.0,0.00043451177401765406
2186.0,0.0003910410285830057
2185.0,0.0003910410285830057
2184.0,0.0003910410285830057
2183.0,0.00043451177401765406
2182.0,0.0004779868710962365
2181.0,0.00043451177401765406
2180.0,0.0003910410285830057
2179.0,0.00030411258916074324
2178.0,0.00026065489343207737
2177.0,0.00026065489343207737
2176.0,0.00030411258916074324
2175.0,0.0003475746339209884
2174.0,0.0003910410285830057
2173.0,0.0003910410285830057
2172.0,0.0003475746339209884
2171.0,0.0003475746339209884
2170.0,0.0003475746339209884
2169.0,0.00030411258916074324
2168.0,0.00026065489343207737
2167.0,0.00021720154586435392
2166.0,0.00021720154586435392
2165.0,0.00021720154586435392
2164.0,0.00021720154586435392
2163.0,0.00021720154586435392
2162.0,0.00021720154586435392
2161.0,0.00026065489343207737
2160.0,0.00030411258916074324
2159.0,0.0003475746339209884
2158.0,0.00030411258916074324
2157.0,0.00030411258916074324
2156.0,0.0003475746339209884
2155.0,0.0003910410285830057
2154.0,0.000521466320689834
2153.0,0.0006084382809090627
2152.0,0.0006519307932786322
2151.0,0.0006519307932786322
2150.0,0.0005649501236701937
2149.0,0.0004779868710962365
2148.0,0.0003910410285830057
2147.0,0.0003910410285830057
2146.0,0.00043451177401765406
2145.0,0.0004779868710962365
2144.0,0.00043451177401765406
2143.0,0.0003910410285830057
2142.0,0.0003475746339209884
2141.0,0.0003475746339209884
2140.0,0.0003475746339209884
2139.0,0.0003910410285830057
2138.0,0.00043451177401765406
2137.0,0.00043451177401765406
2136.0,0.0003475746339209884
2135.0,0.00026065489343207737
2134.0,0.00026065489343207737
2133.0,0.00026065489343207737
2132.0,0.00026065489343207737
2131.0,0.00026065489343207737
2130.0,0.0003475746339209884
2129.0,0.00043451177401765406
2128.0,0.0004779868710962365
2127.0,0.0004779868710962365
2126.0,0.0004779868710962365
2125.0,0.0003910410285830057
2124.0,0.0003475746339209884
2123.0,0.0003475746339209884
2122.0,0.0003475746339209884
2121.0,0.0003910410285830057
2120.0,0.0003475746339209884
2119.0,0.00030411258916074324
2118.0,0.00026065489343207737
2117.0,0.00026065489343207737
2116.0,0.00030411258916074324
2115.0,0.0003475746339209884
2114.0,0.00043451177401765406
2113.0,0.0004779868710962365
2112.0,0.000521466320689834
2111.0,0.00043451177401765406
2110.0,0.0003475746339209884
2109.0,0.00030411258916074324
2108.0,0.00030411258916074324
2107.0,0.0003475746339209884
2106.0,0.0003910410285830057
2105.0,0.00043451177401765406
2104.0,0.00043451177401765406
2103.0,0.00043451177401765406
2102.0,0.0004779868710962365
2101.0,0.00043451177401765406
2100.0,0.0003910410285830057
2099.0,0.00026065489343207737
2098.0,0.00021720154586435392
2097.0,0.00021720154586435392
2096.0,0.00030411258916074324
2095.0,0.0003475746339209884
2094.0,0.0003475746339209884
2093.0,0.00030411258916074324
2092.0,0.00021720154586435392
2091.0,0.0001303078917322953
2090.0,0.0001303078917322953
2089.0,0.00017375254558760211
2088.0,0.00021720154586435392
2087.0,0.00030411258916074324
2086.0,0.0003475746339209884
2085.0,0.0003475746339209884
2084.0,0.00030411258916074324
2083.0,0.00026065489343207737
2082.0,0.00026065489343207737
2081.0,0.0003475746339209884
2080.0,0.0003910410285830057
2079.0,0.0003475746339209884
2078.0,0.00030411258916074324
2077.0,0.00026065489343207737
2076.0,0.00021720154586435392
2075.0,0.00017375254558760211
2074.0,0.0001303078917322953
2073.0,0.0001303078917322953
2072.0,0.0001303078917322953
2071.0,0.00021720154586435392
2070.0,0.00030411258916074324
2069.0,0.0003910410285830057
2068.0,0.00043451177401765406
2067.0,0.0003475746339209884
2066.0,0.00026065489343207737
2065.0,0.00026065489343207737
2064.0,0.00026065489343207737
2063.0,0.00030411258916074324
2062.0,0.0003475746339209884
2061.0,0.00043451177401765406
2060.0,0.0004779868710962365
2059.0,0.0004779868710962365
2058.0,0.000521466320689834
2057.0,0.0005649501236701937
2056.0,0.0005649501236701937
2055.0,0.000521466320689834
2054.0,0.00043451177401765406
2053.0,0.00030411258916074324
2052.0,0.00026065489343207737
2051.0,0.00021720154586435392
2050.0,0.00021720154586435392
2049.0,0.00026065489343207737
2048.0,0.00030411258916074324
2047.0,0.0003475746339209884
2046.0,0.0003475746339209884
2045.0,0.0003475746339209884
2044.0,0.0003475746339209884
2043.0,0.0003475746339209884
2042.0,0.0003910410285830057
2041.0,0.00043451177401765406
2040.0,0.0004779868710962365
2039.0,0.000521466320689834
2038.0,0.000521466320689834
2037.0,0.000521466320689834
2036.0,0.000521466320689834
2035.0,0.000521466320689834
2034.0,0.000521466320689834
2033.0,0.000521466320689834
2032.0,0.0004779868710962365
2031.0,0.00043451177401765406
2030.0,0.0003910410285830057
2029.0,0.0003910410285830057
2028.0,0.0003475746339209884
2027.0,0.0003475746339209884
2026.0,0.0003910410285830057
2025.0,0.00043451177401765406
2024.0,0.0004779868710962365
2023.0,0.0004779868710962365
2022.0,0.00043451177401765406
2021.0,0.00043451177401765406
2020.0,0.0003910410285830057
2019.0,0.0003910410285830057
2018.0,0.0003910410285830057
2017.0,0.0003910410285830057
2016.0,0.0003475746339209884
2015.0,0.0003475746339209884
2014.0,0.0003475746339209884
2013.0,0.0003475746339209884
2012.0,0.0003475746339209884
2011.0,0.00030411258916074324
2010.0,0.00026065489343207737
2009.0,0.00021720154586435392
2008.0,0.00021720154586435392
2007.0,0.00026065489343207737
2006.0,0.0003475746339209884
2005.0,0.0003910410285830057
2004.0,0.00043451177401765406
2003.0,0.00043451177401765406
2002.0,0.0004779868710962365
2001.0,0.0004779868710962365
2000.0,0.00043451177401765406
1999.0,0.0003475746339209884
1998.0,0.00026065489343207737
1997.0,0.00030411258916074324
1996.0,0.0003475746339209884
1995.0,0.0004779868710962365
1994.0,0.000521466320689834
1993.0,0.0004779868710962365
1992.0,0.00043451177401765406
1991.0,0.0003475746339209884
1990.0,0.0003475746339209884
1989.0,0.00043451177401765406
1988.0,0.000521466320689834
1987.0,0.0005649501236701937
1986.0,0.000521466320689834
1985.0,0.00043451177401765406
1984.0,0.0003910410285830057
1983.0,0.0003475746339209884
1982.0,0.0003475746339209884
1981.0,0.0003475746339209884
1980.0,0.0003475746339209884
1979.0,0.0003475746339209884
1978.0,0.0003475746339209884
1977.0,0.0003910410285830057
1976.0,0.0003910410285830057
1975.0,0.0003910410285830057
1974.0,0.0003910410285830057
1973.0,0.0003910410285830057
1972.0,0.0003910410285830057
1971.0,0.0003910410285830057
1970.0,0.0003910410285830057
1969.0,0.0003910410285830057
1968.0,0.0003910410285830057
1967.0,0.0003910410285830057
1966.0,0.0003910410285830057
1965.0,0.0003910410285830057
1964.0,0.0003910410285830057
1963.0,0.00043451177401765406
1962.0,0.00043451177401765406
1961.0,0.00043451177401765406
1960.0,0.0003910410285830057
1959.0,0.0003475746339209884
1958.0,0.00030411258916074324
1957.0,0.0003475746339209884
1956.0,0.0003475746339209884
1955.0,0.0003475746339209884
1954.0,0.0003910410285830057
1953.0,0.0003910410285830057
1952.0,0.0003910410285830057
1951.0,0.00043451177401765406
1950.0,0.00043451177401765406
1949.0,0.0003910410285830057
1948.0,0.0003910410285830057
1947.0,0.0003910410285830057
1946.0,0.0003910410285830057
1945.0,0.0003910410285830057
1944.0,0.0003910410285830057
1943.0,0.0003910410285830057
1942.0,0.0003910410285830057
1941.0,0.00043451177401765406
1940.0,0.00043451177401765406
1939.0,0.0004779868710962365
1938.0,0.0004779868710962365
1937.0,0.0004779868710962365
1936.0,0.0004779868710962365
1935.0,0.0004779868710962365
1934.0,0.0004779868710962365
1933.0,0.00043451177401765406
1932.0,0.0003475746339209884
1931.0,0.00030411258916074324
1930.0,0.00026065489343207737
1929.0,0.00026065489343207737
1928.0,0.00030411258916074324
1927.0,0.0003475746339209884
1926.0,0.00043451177401765406
1925.0,0.0004779868710962365
1924.0,0.0004779868710962365
1923.0,0.00043451177401765406
1922.0,0.00043451177401765406
1921.0,0.0003910410285830057
1920.0,0.0003910410285830057
1919.0,0.00043451177401765406
1918.0,0.000521466320689834
1917.0,0.0005649501236701937
1916.0,0.0005649501236701937
1915.0,0.0004779868710962365
1914.0,0.0003910410285830057
1913.0,0.00030411258916074324
1912.0,0.00026065489343207737
1911.0,0.00026065489343207737
1910.0,0.00030411258916074324
1909.0,0.0003910410285830057
1908.0,0.0004779868710962365
1907.0,0.0004779868710962365
1906.0,0.0004779868710962365
1905.0,0.0003910410285830057
1904.0,0.0003475746339209884
1903.0,0.0003475746339209884
1902.0,0.0003910410285830057
1901.0,0.00043451177401765406
1900.0,0.0004779868710962365
1899.0,0.0004779868710962365
1898.0,0.0004779868710962365
1897.0,0.0004779868710962365
1896.0,0.0004779868710962365
1895.0,0.00043451177401765406
1894.0,0.0003910410285830057
1893.0,0.0003475746339209884
1892.0,0.0003475746339209884
1891.0,0.0003475746339209884
1890.0,0.0003475746339209884
1889.0,0.0003475746339209884
1888.0,0.00030411258916074324
1887.0,0.00026065489343207737
1886.0,0.00021720154586435392
1885.0,0.0001303078917322953
1884.0,0.0001303078917322953
1883.0,0.0001303078917322953
1882.0,0.00017375254558760211
1881.0,0.00021720154586435392
1880.0,0.00021720154586435392
1879.0,0.00026065489343207737
1878.0,0.00026065489343207737
1877.0,0.00030411258916074324
1876.0,0.0003475746339209884
1875.0,0.00043451177401765406
1874.0,0.0004779868710962365
1873.0,0.0004779868710962365
1872.0,0.00043451177401765406
1871.0,0.0003910410285830057
1870.0,0.0003475746339209884
1869.0,0.0003475746339209884
1868.0,0.0003475746339209884
1867.0,0.0003910410285830057
1866.0,0.00043451177401765406
1865.0,0.0004779868710962365
1864.0,0.0004779868710962365
1863.0,0.00043451177401765406
1862.0,0.0003475746339209884
1861.0,0.0003475746339209884
1860.0,0.00030411258916074324
1859.0,0.00026065489343207737
1858.0,0.00026065489343207737
1857.0,0.00026065489343207737
1856.0,0.00026065489343207737
1855.0,0.00030411258916074324
1854.0,0.00030411258916074324
1853.0,0.00021720154586435392
1852.0,0.00017375254558760211
1851.0,0.00017375254558760211
1850.0,0.00017375254558760211
1849.0,0.00026065489343207737
1848.0,0.0003475746339209884
1847.0,0.0003475746339209884
1846.0,0.0003475746339209884
1845.0,0.00030411258916074324
1844.0,0.00026065489343207737
1843.0,0.00021720154586435392
1842.0,0.00017375254558760211
1841.0,0.00021720154586435392
1840.0,0.00021720154586435392
1839.0,0.00030411258916074324
1838.0,0.0003475746339209884
1837.0,0.00043451177401765406
1836.0,0.0004779868710962365
1835.0,0.00043451177401765406
1834.0,0.0003910410285830057
1833.0,0.00030411258916074324
1832.0,0.00030411258916074324
1831.0,0.0003475746339209884
1830.0,0.0004779868710962365
1829.0,0.0005649501236701937
1828.0,0.0005649501236701937
1827.0,0.000521466320689834
1826.0,0.00043451177401765406
1825.0,0.0003910410285830057
1824.0,0.0003475746339209884
1823.0,0.0003475746339209884
1822.0,0.0003910410285830057
1821.0,0.00043451177401765406
1820.0,0.0004779868710962365
1819.0,0.000521466320689834
1818.0,0.000521466320689834
1817.0,0.000521466320689834
1816.0,0.0004779868710962365
1815.0,0.00043451177401765406
1814.0,0.0003910410285830057
1813.0,0.0003475746339209884
1812.0,0.00030411258916074324
1811.0,0.00030411258916074324
1810.0,0.0003910410285830057
1809.0,0.0004779868710962365
1808.0,0.0004779868710962365
1807.0,0.0004779868710962365
1806.0,0.00043451177401765406
1805.0,0.0003910410285830057
1804.0,0.0003475746339209884
1803.0,0.0003475746339209884
1802.0,0.00030411258916074324
1801.0,0.00030411258916074324
1800.0,0.00026065489343207737
1799.0,0.00026065489343207737
1798.0,0.00026065489343207737
1797.0,0.00030411258916074324
1796.0,0.0003475746339209884
1795.0,0.0003910410285830057
1794.0,0.0003475746339209884
1793.0,0.00026065489343207737
1792.0,0.00017375254558760211
1791.0,8.686758342868472e-05
1790.0,4.343161980746579e-05
1789.0,4.343161980746579e-05
1788.0,8.686758342868472e-05
1787.0,0.00017375254558760211
1786.0,0.00030411258916074324
1785.0,0.00043451177401765406
1784.0,0.00043451177401765406
1783.0,0.0003910410285830057
1782.0,0.0003475746339209884
1781.0,0.00030411258916074324
1780.0,0.00026065489343207737
1779.0,0.00021720154586435392
1778.0,0.00017375254558760211
1777.0,0.0001303078917322953
1776.0,0.0001303078917322953
1775.0,0.00021720154586435392
1774.0,0.00026065489343207737
1773.0,0.00030411258916074324
1772.0,0.00030411258916074324
1771.0,0.00026065489343207737
1770.0,0.00026065489343207737
1769.0,0.00026065489343207737
1768.0,0.00030411258916074324
1767.0,0.0003475746339209884
1766.0,0.00030411258916074324
1765.0,0.00026065489343207737
1764.0,0.00026065489343207737
1763.0,0.00030411258916074324
1762.0,0.0003475746339209884
1761.0,0.0003475746339209884
1760.0,0.00030411258916074324
1759.0,0.00026065489343207737
1758.0,0.00026065489343207737
1757.0,0.00030411258916074324
1756.0,0.0003475746339209884
1755.0,0.0003475746339209884
1754.0,0.0003475746339209884
1753.0,0.0003475746339209884
1752.0,0.0003475746339209884
1751.0,0.0003475746339209884
1750.0,0.00030411258916074324
1749.0,0.00030411258916074324
1748.0,0.00030411258916074324
1747.0,0.0003475746339209884
1746.0,0.0003910410285830057
1745.0,0.00043451177401765406
1744.0,0.00043451177401765406
1743.0,0.0003910410285830057
1742.0,0.0003475746339209884
1741.0,0.00030411258916074324
1740.0,0.00026065489343207737
1739.0,0.00021720154586435392
1738.0,0.00021720154586435392
1737.0,0.00017375254558760211
1736.0,0.00017375254558760211
1735.0,0.00021720154586435392
1734.0,0.00026065489343207737
1733.0,0.0003475746339209884
1732.0,0.0003910410285830057
1731.0,0.0003910410285830057
1730.0,0.0003910410285830057
1729.0,0.0003475746339209884
1728.0,0.0003475746339209884
1727.0,0.0003475746339209884
1726.0,0.0003475746339209884
1725.0,0.00030411258916074324
1724.0,0.00030411258916074324
1723.0,0.00030411258916074324
1722.0,0.00030411258916074324
1721.0,0.0003475746339209884
1720.0,0.0003475746339209884
1719.0,0.00030411258916074324
1718.0,0.00030411258916074324
1717.0,0.00030411258916074324
1716.0,0.0003910410285830057
1715.0,0.0003910410285830057
1714.0,0.0003910410285830057
1713.0,0.0003910410285830057
1712.0,0.0003910410285830057
1711.0,0.00043451177401765406
1710.0,0.00043451177401765406
1709.0,0.00043451177401765406
1708.0,0.0003910410285830057
1707.0,0.00030411258916074324
1706.0,0.00021720154586435392
1705.0,0.00017375254558760211
1704.0,0.00017375254558760211
1703.0,0.00021720154586435392
1702.0,0.00026065489343207737
1701.0,0.00021720154586435392
1700.0,0.00017375254558760211
1699.0,0.00017375254558760211
1698.0,0.00021720154586435392
1697.0,0.00021720154586435392
1696.0,0.00017375254558760211
1695.0,0.0001303078917322953
1694.0,0.0001303078917322953
1693.0,0.00017375254558760211
1692.0,0.00021720154586435392
1691.0,0.00021720154586435392
1690.0,0.00021720154586435392
1689.0,0.00021720154586435392
1688.0,0.00017375254558760211
1687.0,0.0001303078917322953
1686.0,8.686758342868472e-05
1685.0,8.686758342868472e-05
1684.0,0.0001303078917322953
1683.0,0.00017375254558760211
1682.0,0.0001303078917322953
1681.0,8.686758342868472e-05
1680.0,8.686758342868472e-05
1679.0,8.686758342868472e-05
1678.0,0.0001303078917322953
1677.0,0.00021720154586435392
1676.0,0.00026065489343207737
1675.0,0.00021720154586435392
1674.0,0.00017375254558760211
1673.0,8.686758342868472e-05
1672.0,4.343161980746579e-05
1671.0,-8.685021164911433e-05
1670.0,-8.685021164911433e-05
1669.0,0.0
1668.0,0.00017375254558760211
1667.0,0.00026065489343207737
1666.0,0.00030411258916074324
1665.0,0.0003475746339209884
1664.0,0.0003475746339209884
1663.0,0.0003475746339209884
1662.0,0.0003475746339209884
1661.0,0.0003910410285830057
1660.0,0.0003910410285830057
1659.0,0.0003910410285830057
1658.0,0.0003475746339209884
1657.0,0.00026065489343207737
1656.0,0.00021720154586435392
1655.0,0.00017375254558760211
1654.0,0.00017375254558760211
1653.0,0.0003475746339209884
1652.0,0.0004779868710962365
1651.0,0.0004779868710962365
1650.0,0.0004779868710962365
1649.0,0.0004779868710962365
1648.0,0.0004779868710962365
1647.0,0.00043451177401765406
1646.0,0.0003910410285830057
1645.0,0.00026065489343207737
1644.0,0.00021720154586435392
1643.0,0.00021720154586435392
1642.0,0.00030411258916074324
1641.0,0.0003910410285830057
1640.0,0.00043451177401765406
1639.0,0.0003910410285830057
1638.0,0.0003475746339209884
1637.0,0.00030411258916074324
1636.0,0.00026065489343207737
1635.0,0.00026065489343207737
1634.0,0.00030411258916074324
1633.0,0.0003475746339209884
1632.0,0.0003475746339209884
1631.0,0.0003475746339209884
1630.0,0.00030411258916074324
1629.0,0.00026065489343207737
1628.0,0.00026065489343207737
1627.0,0.00030411258916074324
1626.0,0.0003910410285830057
1625.0,0.0004779868710962365
1624.0,0.000521466320689834
1623.0,0.0004779868710962365
1622.0,0.0003910410285830057
1621.0,0.00030411258916074324
1620.0,0.00026065489343207737
1619.0,0.00026065489343207737
1618.0,0.00030411258916074324
1617.0,0.0003910410285830057
1616.0,0.0004779868710962365
1615.0,0.00043451177401765406
1614.0,0.0003475746339209884
1613.0,0.00030411258916074324
1612.0,0.00026065489343207737
1611.0,0.00030411258916074324
1610.0,0.0003475746339209884
1609.0,0.0003910410285830057
1608.0,0.00043451177401765406
1607.0,0.00043451177401765406
1606.0,0.00043451177401765406
1605.0,0.0003475746339209884
1604.0,0.0003475746339209884
1603.0,0.0003475746339209884
1602.0,0.0003475746339209884
1601.0,0.0003910410285830057
1600.0,0.0003910410285830057
1599.0,0.0003910410285830057
1598.0,0.0003910410285830057
1597.0,0.00043451177401765406
1596.0,0.0004779868710962365
1595.0,0.00043451177401765406
1594.0,0.0003910410285830057
1593.0,0.0003475746339209884
1592.0,0.0003910410285830057
1591.0,0.00043451177401765406
1590.0,0.0004779868710962365
1589.0,0.0004779868710962365
1588.0,0.00043451177401765406
1587.0,0.00043451177401765406
1586.0,0.00043451177401765406
1585.0,0.00043451177401765406
1584.0,0.0003910410285830057
1583.0,0.0003910410285830057
1582.0,0.0003475746339209884
1581.0,0.0003475746339209884
1580.0,0.00030411258916074324
1579.0,0.00021720154586435392
1578.0,0.00017375254558760211
1577.0,0.0001303078917322953
1576.0,0.00017375254558760211
1575.0,0.00021720154586435392
1574.0,0.00026065489343207737
1573.0,0.00030411258916074324
1572.0,0.00030411258916074324
1571.0,0.0003475746339209884
1570.0,0.0004779868710962365
1569.0,0.000521466320689834
1568.0,0.0005649501236701937
1567.0,0.0004779868710962365
1566.0,0.0003475746339209884
1565.0,0.00026065489343207737
1564.0,0.00017375254558760211
1563.0,0.00017375254558760211
1562.0,0.00021720154586435392
1561.0,0.00026065489343207737
1560.0,0.00030411258916074324
1559.0,0.00030411258916074324
1558.0,0.00026065489343207737
1557.0,0.00026065489343207737
1556.0,0.00030411258916074324
1555.0,0.0003475746339209884
1554.0,0.0003910410285830057
1553.0,0.0003475746339209884
1552.0,0.00030411258916074324
1551.0,0.00026065489343207737
1550.0,0.00021720154586435392
1549.0,0.00021720154586435392
1548.0,0.00021720154586435392
1547.0,0.00017375254558760211
1546.0,0.0001303078917322953
1545.0,8.686758342868472e-05
1544.0,0.0001303078917322953
1543.0,0.00021720154586435392
1542.0,0.0003475746339209884
1541.0,0.0004779868710962365
1540.0,0.0003910410285830057
1539.0,0.00026065489343207737
1538.0,0.00017375254558760211
1537.0,0.0001303078917322953
1536.0,0.0001303078917322953
1535.0,0.00021720154586435392
1534.0,0.00026065489343207737
1533.0,0.00030411258916074324
1532.0,0.0003475746339209884
1531.0,0.00043451177401765406
1530.0,0.0004779868710962365
1529.0,0.0004779868710962365
1528.0,0.00043451177401765406
1527.0,0.0003910410285830057
1526.0,0.0003475746339209884
1525.0,0.0003475746339209884
1524.0,0.0003475746339209884
1523.0,0.00030411258916074324
1522.0,0.00026065489343207737
1521.0,0.00021720154586435392
1520.0,0.00017375254558760211
1519.0,0.00017375254558760211
1518.0,0.00026065489343207737
1517.0,0.0003475746339209884
1516.0,0.0003910410285830057
1515.0,0.00043451177401765406
1514.0,0.0003910410285830057
1513.0,0.0003910410285830057
1512.0,0.0003475746339209884
1511.0,0.0003910410285830057
1510.0,0.0003910410285830057
1509.0,0.0004779868710962365
1508.0,0.0004779868710962365
1507.0,0.00043451177401765406
1506.0,0.0003910410285830057
1505.0,0.00043451177401765406
1504.0,0.0003910410285830057
1503.0,0.0003475746339209884
1502.0,0.00030411258916074324
1501.0,0.00030411258916074324
1500.0,0.00030411258916074324
1499.0,0.0003475746339209884
1498.0,0.0003910410285830057
1497.0,0.0003910410285830057
1496.0,0.0003910410285830057
1495.0,0.0003475746339209884
1494.0,0.0003910410285830057
1493.0,0.0003910410285830057
1492.0,0.0003475746339209884
1491.0,0.00021720154586435392
1490.0,4.343161980746579e-05
1489.0,0.0
1488.0,8.686758342868472e-05
1487.0,0.00021720154586435392
1486.0,0.0003475746339209884
1485.0,0.00043451177401765406
1484.0,0.000521466320689834
1483.0,0.0005649501236701937
1482.0,0.0005649501236701937
1481.0,0.0005649501236701937
1480.0,0.000521466320689834
1479.0,0.000521466320689834
1478.0,0.000521466320689834
1477.0,0.0004779868710962365
1476.0,0.0003910410285830057
1475.0,0.0003475746339209884
1474.0,0.0003475746339209884
1473.0,0.0003910410285830057
1472.0,0.0003910410285830057
1471.0,0.0003910410285830057
1470.0,0.0003910410285830057
1469.0,0.0003910410285830057
1468.0,0.0003475746339209884
1467.0,0.00030411258916074324
1466.0,0.00026065489343207737
1465.0,0.00021720154586435392
1464.0,0.00026065489343207737
1463.0,0.00026065489343207737
1462.0,0.00030411258916074324
1461.0,0.00030411258916074324
1460.0,0.00030411258916074324
1459.0,0.00017375254558760211
1458.0,4.343161980746579e-05
1457.0,-4.3427276862573194e-05
1456.0,0.0
1455.0,8.686758342868472e-05
1454.0,0.0001303078917322953
1453.0,0.00021720154586435392
1452.0,0.00030411258916074324
1451.0,0.0003475746339209884
1450.0,0.0003910410285830057
1449.0,0.0003475746339209884
1448.0,0.00030411258916074324
1447.0,0.00030411258916074324
1446.0,0.00030411258916074324
1445.0,0.00030411258916074324
1444.0,0.00030411258916074324
1443.0,0.0003475746339209884
1442.0,0.0003910410285830057
1441.0,0.0004779868710962365
1440.0,0.0004779868710962365
1439.0,0.0004779868710962365
1438.0,0.0003910410285830057
1437.0,0.00026065489343207737
1436.0,0.00017375254558760211
1435.0,0.0001303078917322953
1434.0,0.0001303078917322953
1433.0,0.0001303078917322953
1432.0,0.00021720154586435392
1431.0,0.00026065489343207737
1430.0,0.00030411258916074324
1429.0,0.0003475746339209884
1428.0,0.00030411258916074324
1427.0,0.00021720154586435392
1426.0,0.00017375254558760211
1425.0,8.686758342868472e-05
1424.0,8.686758342868472e-05
1423.0,0.0001303078917322953
1422.0,0.00021720154586435392
1421.0,0.0003475746339209884
1420.0,0.0004779868710962365
1419.0,0.000521466320689834
1418.0,0.0004779868710962365
1417.0,0.00043451177401765406
1416.0,0.00043451177401765406
1415.0,0.00043451177401765406
1414.0,0.00043451177401765406
1413.0,0.00043451177401765406
1412.0,0.0003910410285830057
1411.0,0.0003910410285830057
1410.0,0.0003910410285830057
1409.0,0.00043451177401765406
1408.0,0.00043451177401765406
1407.0,0.00043451177401765406
1406.0,0.0003475746339209884
1405.0,0.00030411258916074324
1404.0,0.00026065489343207737
1403.0,0.00026065489343207737
1402.0,0.00021720154586435392
1401.0,0.00026065489343207737
1400.0,0.00030411258916074324
1399.0,0.0003475746339209884
1398.0,0.0003475746339209884
1397.0,0.00030411258916074324
1396.0,0.00021720154586435392
1395.0,0.00021720154586435392
1394.0,0.00021720154586435392
1393.0,0.00021720154586435392
1392.0,0.00021720154586435392
1391.0,0.00017375254558760211
1390.0,0.00017375254558760211
1389.0,0.00021720154586435392
1388.0,0.00026065489343207737
1387.0,0.00030411258916074324
1386.0,0.00030411258916074324
1385.0,0.0003475746339209884
1384.0,0.0003475746339209884
1383.0,0.00030411258916074324
1382.0,0.00030411258916074324
1381.0,0.00030411258916074324
1380.0,0.00026065489343207737
1379.0,0.00021720154586435392
1378.0,0.00021720154586435392
1377.0,0.00017375254558760211
1376.0,0.00017375254558760211
1375.0,0.00017375254558760211
1374.0,0.00017375254558760211
1373.0,0.00017375254558760211
1372.0,0.00021720154586435392
1371.0,0.00021720154586435392
1370.0,0.00021720154586435392
1369.0,0.00021720154586435392
1368.0,0.00017375254558760211
1367.0,0.00017375254558760211
1366.0,0.00021720154586435392
1365.0,0.00026065489343207737
1364.0,0.00030411258916074324
1363.0,0.0003475746339209884
1362.0,0.00043451177401765406
1361.0,0.0004779868710962365
1360.0,0.000521466320689834
1359.0,0.0004779868710962365
1358.0,0.0003910410285830057
1357.0,0.0003475746339209884
1356.0,0.00030411258916074324
1355.0,0.00030411258916074324
1354.0,0.00030411258916074324
1353.0,0.00030411258916074324
1352.0,0.0003475746339209884
1351.0,0.0003475746339209884
1350.0,0.0003910410285830057
1349.0,0.0003910410285830057
1348.0,0.0003910410285830057
1347.0,0.00030411258916074324
1346.0,0.00026065489343207737
1345.0,0.00021720154586435392
1344.0,0.00017375254558760211
1343.0,0.00021720154586435392
1342.0,0.00026065489343207737
1341.0,0.0003475746339209884
1340.0,0.0003910410285830057
1339.0,0.0004779868710962365
1338.0,0.0004779868710962365
1337.0,0.0003910410285830057
1336.0,0.0003475746339209884
1335.0,0.00030411258916074324
1334.0,0.00030411258916074324
1333.0,0.00030411258916074324
1332.0,0.00026065489343207737
1331.0,0.00021720154586435392
1330.0,0.00021720154586435392
1329.0,0.00021720154586435392
1328.0,0.00026065489343207737
1327.0,0.00030411258916074324
1326.0,0.0003475746339209884
1325.0,0.0003910410285830057
1324.0,0.0003475746339209884
1323.0,0.00030411258916074324
1322.0,0.00026065489343207737
1321.0,0.00017375254558760211
1320.0,0.00017375254558760211
1319.0,0.00017375254558760211
1318.0,0.00021720154586435392
1317.0,0.00021720154586435392
1316.0,0.00021720154586435392
1315.0,0.00021720154586435392
1314.0,0.00026065489343207737
1313.0,0.00026065489343207737
1312.0,0.00030411258916074324
1311.0,0.00026065489343207737
1310.0,0.00026065489343207737
1309.0,0.00030411258916074324
1308.0,0.00030411258916074324
1307.0,0.00026065489343207737
1306.0,0.00026065489343207737
1305.0,0.00021720154586435392
1304.0,0.00021720154586435392
1303.0,0.00021720154586435392
1302.0,0.00021720154586435392
1301.0,0.00021720154586435392
1300.0,0.00026065489343207737
1299.0,0.00026065489343207737
1298.0,0.00030411258916074324
1297.0,0.0003475746339209884
1296.0,0.00043451177401765406
1295.0,0.0004779868710962365
1294.0,0.00043451177401765406
1293.0,0.0003910410285830057
1292.0,0.0003910410285830057
1291.0,0.0003910410285830057
1290.0,0.0003910410285830057
1289.0,0.0003475746339209884
1288.0,0.00030411258916074324
1287.0,0.00026065489343207737
1286.0,0.00026065489343207737
1285.0,0.00026065489343207737
1284.0,0.00030411258916074324
1283.0,0.0003475746339209884
1282.0,0.0003475746339209884
1281.0,0.0003475746339209884
1280.0,0.0003475746339209884
1279.0,0.00030411258916074324
1278.0,0.00026065489343207737
1277.0,0.00026065489343207737
1276.0,0.00030411258916074324
1275.0,0.0003475746339209884
1274.0,0.0003910410285830057
1273.0,0.0003910410285830057
1272.0,0.00043451177401765406
1271.0,0.0003910410285830057
1270.0,0.0003475746339209884
1269.0,0.00030411258916074324
1268.0,0.00026065489343207737
1267.0,0.00021720154586435392
1266.0,0.00017375254558760211
1265.0,0.0001303078917322953
1264.0,8.686758342868472e-05
1263.0,8.686758342868472e-05
1262.0,0.0001303078917322953
1261.0,0.00017375254558760211
1260.0,0.00021720154586435392
1259.0,0.00017375254558760211
1258.0,0.00017375254558760211
1257.0,0.00017375254558760211
1256.0,0.00021720154586435392
1255.0,0.0003475746339209884
1254.0,0.0003910410285830057
1253.0,0.0003910410285830057
1252.0,0.0003475746339209884
1251.0,0.00030411258916074324
1250.0,0.00030411258916074324
1249.0,0.00026065489343207737
1248.0,0.00021720154586435392
1247.0,0.00021720154586435392
1246.0,0.00026065489343207737
1245.0,0.00026065489343207737
1244.0,0.00030411258916074324
1243.0,0.00030411258916074324
1242.0,0.00030411258916074324
1241.0,0.00030411258916074324
1240.0,0.0003475746339209884
1239.0,0.0003475746339209884
1238.0,0.00030411258916074324
1237.0,0.00026065489343207737
1236.0,0.00021720154586435392
1235.0,0.00021720154586435392
1234.0,0.00030411258916074324
1233.0,0.0003910410285830057
1232.0,0.0003910410285830057
1231.0,0.0003910410285830057
1230.0,0.0003475746339209884
1229.0,0.00030411258916074324
1228.0,0.0003475746339209884
1227.0,0.0003475746339209884
1226.0,0.0003910410285830057
1225.0,0.00043451177401765406
1224.0,0.00043451177401765406
1223.0,0.00043451177401765406
1222.0,0.0003910410285830057
1221.0,0.00026065489343207737
1220.0,0.00017375254558760211
1219.0,0.0001303078917322953
1218.0,0.0001303078917322953
1217.0,0.00017375254558760211
1216.0,0.00021720154586435392
1215.0,0.00026065489343207737
1214.0,0.00030411258916074324
1213.0,0.0003475746339209884
1212.0,0.0003475746339209884
1211.0,0.0003475746339209884
1210.0,0.0003475746339209884
1209.0,0.0003475746339209884
1208.0,0.00030411258916074324
1207.0,0.00026065489343207737
1206.0,0.00021720154586435392
1205.0,0.00017375254558760211
1204.0,0.00017375254558760211
1203.0,0.00017375254558760211
1202.0,0.0001303078917322953
1201.0,0.0001303078917322953
1200.0,0.0001303078917322953
1199.0,0.00017375254558760211
1198.0,0.00017375254558760211
1197.0,0.00017375254558760211
1196.0,0.00021720154586435392
1195.0,0.00021720154586435392
1194.0,0.00021720154586435392
1193.0,0.00017375254558760211
1192.0,0.00017375254558760211
1191.0,0.00021720154586435392
1190.0,0.00030411258916074324
1189.0,0.0003910410285830057
1188.0,0.00043451177401765406
1187.0,0.0004779868710962365
1186.0,0.0004779868710962365
1185.0,0.00043451177401765406
1184.0,0.0003910410285830057
1183.0,0.00030411258916074324
1182.0,0.00026065489343207737
1181.0,0.00017375254558760211
1180.0,0.0001303078917322953
1179.0,0.0001303078917322953
1178.0,0.00017375254558760211
1177.0,0.00021720154586435392
1176.0,0.00026065489343207737
1175.0,0.00021720154586435392
1174.0,0.0001303078917322953
1173.0,8.686758342868472e-05
1172.0,8.686758342868472e-05
1171.0,0.00017375254558760211
1170.0,0.00030411258916074324
1169.0,0.0003910410285830057
1168.0,0.0004779868710962365
1167.0,0.0004779868710962365
1166.0,0.0003475746339209884
1165.0,0.00021720154586435392
1164.0,4.343161980746579e-05
1163.0,4.343161980746579e-05
1162.0,8.686758342868472e-05
1161.0,0.00026065489343207737
1160.0,0.0003910410285830057
1159.0,0.00043451177401765406
1158.0,0.0003910410285830057
1157.0,0.00030411258916074324
1156.0,0.00017375254558760211
1155.0,0.0001303078917322953
1154.0,0.0001303078917322953
1153.0,0.0001303078917322953
1152.0,0.00021720154586435392
1151.0,0.00021720154586435392
1150.0,0.00026065489343207737
1149.0,0.00026065489343207737
1148.0,0.00021720154586435392
1147.0,0.00021720154586435392
1146.0,0.00021720154586435392
1145.0,0.00021720154586435392
1144.0,0.0001303078917322953
1143.0,0.0001303078917322953
1142.0,0.0001303078917322953
1141.0,0.00017375254558760211
1140.0,0.00017375254558760211
1139.0,8.686758342868472e-05
1138.0,4.343161980746579e-05
1137.0,8.686758342868472e-05
1136.0,0.00021720154586435392
1135.0,0.00030411258916074324
1134.0,0.0003910410285830057
1133.0,0.00043451177401765406
1132.0,0.0003910410285830057
1131.0,0.0003475746339209884
1130.0,0.00030411258916074324
1129.0,0.00026065489343207737
1128.0,0.00030411258916074324
1127.0,0.0003910410285830057
1126.0,0.00043451177401765406
1125.0,0.0003910410285830057
1124.0,0.0003475746339209884
1123.0,0.00030411258916074324
1122.0,0.00030411258916074324
1121.0,0.0003910410285830057
1120.0,0.00043451177401765406
1119.0,0.0003910410285830057
1118.0,0.00030411258916074324
1117.0,0.00021720154586435392
1116.0,0.00017375254558760211
1115.0,0.00017375254558760211
1114.0,0.00017375254558760211
1113.0,0.0001303078917322953
1112.0,8.686758342868472e-05
1111.0,0.0
1110.0,0.0
1109.0,8.686758342868472e-05
1108.0,0.00021720154586435392
1107.0,0.00030411258916074324
1106.0,0.0003910410285830057
1105.0,0.0003910410285830057
1104.0,0.0003910410285830057
1103.0,0.0003910410285830057
1102.0,0.0003910410285830057
1101.0,0.0003475746339209884
1100.0,0.00030411258916074324
1099.0,0.00021720154586435392
1098.0,0.00017375254558760211
1097.0,0.00017375254558760211
1096.0,0.00026065489343207737
1095.0,0.0003475746339209884
1094.0,0.00043451177401765406
1093.0,0.0003910410285830057
1092.0,0.0003910410285830057
1091.0,0.0003475746339209884
1090.0,0.0003475746339209884
1089.0,0.0003475746339209884
1088.0,0.0003475746339209884
1087.0,0.0003910410285830057
1086.0,0.0003910410285830057
1085.0,0.0003910410285830057
1084.0,0.0003910410285830057
1083.0,0.00043451177401765406
1082.0,0.00043451177401765406
1081.0,0.0004779868710962365
1080.0,0.000521466320689834
1079.0,0.000521466320689834
1078.0,0.000521466320689834
1077.0,0.0004779868710962365
1076.0,0.0003910410285830057
1075.0,0.00030411258916074324
1074.0,0.00026065489343207737
1073.0,0.00030411258916074324
1072.0,0.0003910410285830057
1071.0,0.00043451177401765406
1070.0,0.00043451177401765406
1069.0,0.00043451177401765406
1068.0,0.00043451177401765406
1067.0,0.0003910410285830057
1066.0,0.0003475746339209884
1065.0,0.00021720154586435392
1064.0,0.0001303078917322953
1063.0,8.686758342868472e-05
1062.0,0.0001303078917322953
1061.0,0.00017375254558760211
1060.0,0.00026065489343207737
1059.0,0.00026065489343207737
1058.0,0.00026065489343207737
1057.0,0.00021720154586435392
1056.0,0.00017375254558760211
1055.0,0.0001303078917322953
1054.0,8.686758342868472e-05
1053.0,0.0001303078917322953
1052.0,0.00017375254558760211
1051.0,0.00026065489343207737
1050.0,0.00030411258916074324
1049.0,0.0003475746339209884
1048.0,0.00030411258916074324
1047.0,0.00026065489343207737
1046.0,0.00017375254558760211
1045.0,0.0001303078917322953
1044.0,0.0001303078917322953
1043.0,8.686758342868472e-05
1042.0,8.686758342868472e-05
1041.0,0.0001303078917322953
1040.0,0.00017375254558760211
1039.0,0.00026065489343207737
1038.0,0.0003475746339209884
1037.0,0.0003910410285830057
1036.0,0.0003475746339209884
1035.0,0.00030411258916074324
1034.0,0.00021720154586435392
1033.0,0.0001303078917322953
1032.0,8.686758342868472e-05
1031.0,0.0001303078917322953
1030.0,0.00017375254558760211
1029.0,0.00021720154586435392
1028.0,0.00026065489343207737
1027.0,0.00030411258916074324
1026.0,0.0003475746339209884
1025.0,0.0003910410285830057
1024.0,0.0003475746339209884
1023.0,0.0003475746339209884
1022.0,0.00030411258916074324
1021.0,0.00026065489343207737
1020.0,0.00021720154586435392
1019.0,0.00017375254558760211
1018.0,0.00017375254558760211
1017.0,0.00017375254558760211
1016.0,0.00021720154586435392
1015.0,0.00026065489343207737
1014.0,0.00030411258916074324
1013.0,0.00030411258916074324
1012.0,0.00026065489343207737
1011.0,0.00021720154586435392
1010.0,0.0001303078917322953
1009.0,0.0001303078917322953
1008.0,0.00017375254558760211
1007.0,0.00026065489343207737
1006.0,0.00030411258916074324
1005.0,0.00026065489343207737
1004.0,0.00026065489343207737
1003.0,0.00030411258916074324
1002.0,0.00030411258916074324
1001.0,0.00030411258916074324
1000.0,0.00026065489343207737
999.0,0.00017375254558760211
998.0,0.00017375254558760211
997.0,0.00017375254558760211
996.0,0.00021720154586435392
995.0,0.00030411258916074324
994.0,0.0003910410285830057
993.0,0.0004779868710962365
992.0,0.0004779868710962365
991.0,0.0004779868710962365
990.0,0.0004779868710962365
989.0,0.00043451177401765406
988.0,0.0003475746339209884
987.0,0.00030411258916074324
986.0,0.00026065489343207737
985.0,0.00026065489343207737
984.0,0.00026065489343207737
983.0,0.00021720154586435392
982.0,0.0001303078917322953
981.0,0.0001303078917322953
980.0,0.0001303078917322953
979.0,0.00017375254558760211
978.0,0.00021720154586435392
977.0,0.00017375254558760211
976.0,8.686758342868472e-05
975.0,0.0
974.0,0.0
973.0,0.0001303078917322953
972.0,0.00021720154586435392
971.0,0.00030411258916074324
970.0,0.00030411258916074324
969.0,0.00030411258916074324
968.0,0.00026065489343207737
967.0,0.0001303078917322953
966.0,0.0
965.0,-4.3427276862573194e-05
964.0,0.0
963.0,0.0001303078917322953
962.0,0.00021720154586435392
961.0,0.00026065489343207737
960.0,0.00017375254558760211
959.0,0.0001303078917322953
958.0,0.00017375254558760211
957.0,0.00021720154586435392
956.0,0.00026065489343207737
955.0,0.00030411258916074324
954.0,0.0003475746339209884
953.0,0.0003475746339209884
952.0,0.0003475746339209884
951.0,0.00043451177401765406
950.0,0.0005649501236701937
949.0,0.0006519307932786322
948.0,0.0006084382809090627
947.0,0.0004779868710962365
946.0,0.00030411258916074324
945.0,0.00017375254558760211
944.0,0.0001303078917322953
943.0,4.343161980746579e-05
942.0,-4.3427276862573194e-05
941.0,-4.3427276862573194e-05
940.0,0.0
939.0,8.686758342868472e-05
938.0,0.0001303078917322953
937.0,0.0001303078917322953
936.0,0.00017375254558760211
935.0,0.00017375254558760211
934.0,0.00021720154586435392
933.0,0.00026065489343207737
932.0,0.0003475746339209884
931.0,0.0004779868710962365
930.0,0.0005649501236701937
929.0,0.0005649501236701937
928.0,0.0004779868710962365
927.0,0.0003475746339209884
926.0,0.00030411258916074324
925.0,0.00030411258916074324
924.0,0.0003475746339209884
923.0,0.00030411258916074324
922.0,0.00026065489343207737
921.0,0.00021720154586435392
920.0,0.00021720154586435392
919.0,0.00021720154586435392
918.0,0.00017375254558760211
917.0,8.686758342868472e-05
916.0,0.0
915.0,4.343161980746579e-05
914.0,8.686758342868472e-05
913.0,4.343161980746579e-05
912.0,-4.3427276862573194e-05
911.0,-0.00013026880522692963
910.0,-0.00013026880522692963
909.0,0.0
908.0,0.0001303078917322953
907.0,0.00030411258916074324
906.0,0.0003910410285830057
905.0,0.00043451177401765406
904.0,0.0003910410285830057
903.0,0.00026065489343207737
902.0,0.0001303078917322953
901.0,-8.685021164911433e-05
900.0,-0.0002604985473904087
899.0,-0.0003472966853634851
898.0,-0.00030389978481260016
897.0,-0.00021709297223004853
896.0,-0.00013026880522692963
895.0,-4.3427276862573194e-05
894.0,4.343161980746579e-05
893.0,0.00017375254558760211
892.0,0.00030411258916074324
891.0,0.0003475746339209884
890.0,0.00030411258916074324
889.0,0.00021720154586435392
888.0,0.00017375254558760211
887.0,0.00021720154586435392
886.0,0.00026065489343207737
885.0,0.0003475746339209884
884.0,0.0003910410285830057
883.0,0.00043451177401765406
882.0,0.0005649501236701937
881.0,0.0006519307932786322
880.0,0.0006519307932786322
879.0,0.0006084382809090627
878.0,0.000521466320689834
877.0,0.00043451177401765406
876.0,0.0003475746339209884
875.0,0.00030411258916074324
874.0,0.00021720154586435392
873.0,0.00017375254558760211
872.0,0.00017375254558760211
871.0,0.00021720154586435392
870.0,0.00030411258916074324
869.0,0.0003910410285830057
868.0,0.0004779868710962365
867.0,0.0004779868710962365
866.0,0.00043451177401765406
865.0,0.0003475746339209884
864.0,0.00017375254558760211
863.0,8.686758342868472e-05
862.0,4.343161980746579e-05
861.0,8.686758342868472e-05
860.0,0.00017375254558760211
859.0,0.00021720154586435392
858.0,0.00021720154586435392
857.0,0.00017375254558760211
856.0,8.686758342868472e-05
855.0,4.343161980746579e-05
854.0,4.343161980746579e-05
853.0,0.00017375254558760211
852.0,0.00030411258916074324
851.0,0.00030411258916074324
850.0,0.00026065489343207737
849.0,8.686758342868472e-05
848.0,0.0
847.0,-8.685021164911433e-05
846.0,-8.685021164911433e-05
845.0,-4.3427276862573194e-05
844.0,0.0
843.0,4.343161980746579e-05
842.0,8.686758342868472e-05
841.0,0.00017375254558760211
840.0,0.00030411258916074324
839.0,0.0004779868710962365
838.0,0.0005649501236701937
837.0,0.0006084382809090627
836.0,0.0005649501236701937
835.0,0.00043451177401765406
834.0,0.0003475746339209884
833.0,0.0003475746339209884
832.0,0.00030411258916074324
831.0,0.00021720154586435392
830.0,8.686758342868472e-05
829.0,0.0
828.0,0.0
827.0,-4.3427276862573194e-05
826.0,-8.685021164911433e-05
825.0,-8.685021164911433e-05
824.0,-4.3427276862573194e-05
823.0,4.343161980746579e-05
822.0,8.686758342868472e-05
821.0,0.00021720154586435392
820.0,0.0003475746339209884
819.0,0.00043451177401765406
818.0,0.0003910410285830057
817.0,0.00017375254558760211
816.0,-4.3427276862573194e-05
815.0,-0.00017368305846510168
814.0,-0.00017368305846510168
813.0,-0.00013026880522692963
812.0,-0.00013026880522692963
811.0,-0.00013026880522692963
810.0,-8.685021164911433e-05
809.0,0.0
808.0,8.686758342868472e-05
807.0,8.686758342868472e-05
806.0,4.343161980746579e-05
805.0,-4.3427276862573194e-05
804.0,0.0
803.0,4.343161980746579e-05
802.0,0.00026065489343207737
801.0,0.0004779868710962365
800.0,0.0006084382809090627
799.0,0.0006519307932786322
798.0,0.0006084382809090627
797.0,0.0005649501236701937
796.0,0.0006084382809090627
795.0,0.0006084382809090627
794.0,0.0006084382809090627
793.0,0.000521466320689834
792.0,0.0004779868710962365
791.0,0.000521466320689834
790.0,0.0005649501236701937
789.0,0.000521466320689834
788.0,0.0003910410285830057
787.0,0.0001303078917322953
786.0,-4.3427276862573194e-05
785.0,-0.00013026880522692963
784.0,-4.3427276862573194e-05
783.0,8.686758342868472e-05
782.0,0.00021720154586435392
781.0,0.00017375254558760211
780.0,4.343161980746579e-05
779.0,-0.00017368305846510168
778.0,-0.0002604985473904087
777.0,-0.00013026880522692963
776.0,0.00021720154586435392
775.0,0.0006084382809090627
774.0,0.0008259444115150671
773.0,0.0007389288868995258
772.0,0.0004779868710962365
771.0,0.00030411258916074324
770.0,0.00026065489343207737
769.0,0.00026065489343207737
768.0,0.00021720154586435392
767.0,8.686758342868472e-05
766.0,8.686758342868472e-05
765.0,0.0001303078917322953
764.0,0.00017375254558760211
763.0,0.0001303078917322953
762.0,4.343161980746579e-05
761.0,-4.3427276862573194e-05
760.0,-0.00017368305846510168
759.0,-0.0003906892499099257
758.0,-0.0006075870628903246
757.0,-0.0006509536295951079
756.0,-0.0004774613744551459
755.0,-0.00017368305846510168
754.0,4.343161980746579e-05
753.0,4.343161980746579e-05
752.0,-8.685021164911433e-05
751.0,-0.00030389978481260016
750.0,-0.0003472966853634851
749.0,-0.00017368305846510168
748.0,8.686758342868472e-05
747.0,0.00026065489343207737
746.0,0.00017375254558760211
745.0,0.0
744.0,-0.00017368305846510168
743.0,-0.00021709297223004853
742.0,-0.00017368305846510168
741.0,0.0
740.0,0.00021720154586435392
739.0,0.0004779868710962365
738.0,0.0006519307932786322
737.0,0.0006519307932786322
736.0,0.0005649501236701937
735.0,0.0003475746339209884
734.0,0.00017375254558760211
733.0,0.0001303078917322953
732.0,0.00017375254558760211
731.0,0.00017375254558760211
730.0,0.0
729.0,-0.0002604985473904087
728.0,-0.0003906892499099257
727.0,-0.0002604985473904087
726.0,0.0
725.0,0.00021720154586435392
724.0,0.00021720154586435392
723.0,0.0
722.0,-0.00021709297223004853
721.0,-0.0003472966853634851
720.0,-0.00021709297223004853
719.0,8.686758342868472e-05
718.0,0.000521466320689834
717.0,0.0007824344698965646
716.0,0.0007389288868995258
715.0,0.0003910410285830057
714.0,-4.3427276862573194e-05
713.0,-0.00043407747931878404
712.0,-0.0005208409361854294
711.0,-0.0003472966853634851
710.0,-4.3427276862573194e-05
709.0,0.00021720154586435392
708.0,0.00021720154586435392
707.0,-4.3427276862573194e-05
706.0,-0.00030389978481260016
705.0,-0.0002604985473904087
704.0,0.0001303078917322953
703.0,0.0006954276616513155
702.0,0.0010000277816797354
701.0,0.0010000277816797354
700.0,0.0007389288868995258
699.0,0.000521466320689834
698.0,0.0004779868710962365
697.0,0.0003475746339209884
696.0,0.0001303078917322953
695.0,-0.00013026880522692963
694.0,-0.00030389978481260016
693.0,-0.0002604985473904087
692.0,-0.00017368305846510168
691.0,-0.00013026880522692963
690.0,-0.0003472966853634851
689.0,-0.0007810273534953893
688.0,-0.0010843812922201046
687.0,-0.0009977303577937136
686.0,-0.0005642161653756084
685.0,-8.685021164911433e-05
684.0,0.0001303078917322953
683.0,0.00017375254558760211
682.0,0.00026065489343207737
681.0,0.00026065489343207737
680.0,4.343161980746579e-05
679.0,-0.0003906892499099257
678.0,-0.0007376737740329986
677.0,-0.0008677215312267172
676.0,-0.0008677215312267172
675.0,-0.0009110621312231615
674.0,-0.0009977303577937136
673.0,-0.0011710149414008164
672.0,-0.0013875234866409514
671.0,-0.0014308122463981832
670.0,-0.0011710149414008164
669.0,-0.0004774613744551459
668.0,0.0004779868710962365
667.0,0.0011306361176557367
666.0,0.0011306361176557367
665.0,0.0009565003968372565
664.0,0.0007824344698965646
663.0,0.0005649501236701937
662.0,0.00017375254558760211
661.0,-0.00017368305846510168
660.0,-0.0002604985473904087
659.0,-0.00013026880522692963
658.0,0.0
657.0,-8.685021164911433e-05
656.0,-0.0003472966853634851
655.0,-0.0005642161653756084
654.0,-0.0004774613744551459
653.0,-0.00017368305846510168
652.0,-0.00013026880522692963
651.0,-0.0005642161653756084
650.0,-0.0013009330204178937
649.0,-0.0018634626925240205
648.0,-0.0020364022595291686
647.0,-0.0016904542321527494
646.0,-0.00121432528617893
645.0,-0.0009543984064577238
644.0,-0.001041057986093552
643.0,-0.0010843812922201046
642.0,-0.0007376737740329986
641.0,4.343161980746579e-05
640.0,0.0008259444115150671
639.0,0.0014791171649619628
638.0,0.001915112063444413
637.0,0.0022205691343961664
636.0,0.002351545103793873
635.0,0.002482560585275184
634.0,0.0028758443407954637
633.0,0.0031819781204844855
632.0,0.0026573093983774942
631.0,0.0012177301682640973
630.0,-4.3427276862573194e-05
629.0,-0.00030389978481260016
628.0,8.686758342868472e-05
627.0,0.00017375254558760211
626.0,-0.0003472966853634851
625.0,-0.0007376737740329986
624.0,-0.00043407747931878404
623.0,0.00030411258916074324
622.0,0.0008259444115150671
621.0,0.0007824344698965646
620.0,0.0004779868710962365
619.0,0.0003475746339209884
618.0,0.000521466320689834
617.0,0.0009129773741116676
616.0,0.0016970599014589638
615.0,0.0029195645282691363
614.0,0.004189368323957332
613.0,0.004671990922590297
612.0,0.0038825238627120395
611.0,0.0020023635919956817
610.0,-0.00021709297223004853
609.0,-0.0020796263931210923
608.0,-0.0033312585613267665
607.0,-0.003762020828246282
606.0,-0.0029863408567849525
605.0,-0.0011710149414008164
604.0,0.0010870956412141197
603.0,0.0028321285541661467
602.0,0.003488327845821315
601.0,0.0030070181092942683
600.0,0.0018278780605593958
