cm-1,A
4000.0,0.009972101229705377
3999.0,0.01001654169860089
3998.0,0.010060986715464404
3997.0,0.010105436281226954
3996.0,0.010149890396819572
3995.0,0.010194349063173958
3994.0,0.010194349063173958
3993.0,0.010194349063173958
3992.0,0.010194349063173958
3991.0,0.010194349063173958
3990.0,0.01023881228122181
3989.0,0.010283280051895272
3988.0,0.010283280051895272
3987.0,0.010283280051895272
3986.0,0.010194349063173958
3985.0,0.010149890396819572
3984.0,0.010149890396819572
3983.0,0.010105436281226954
3982.0,0.010060986715464404
3981.0,0.009972101229705377
3980.0,0.009883233932095559
3979.0,0.009794384815193347
3978.0,0.009794384815193347
3977.0,0.009838807101520963
3976.0,0.009927665307847056
3975.0,0.01001654169860089
3974.0,0.010060986715464404
3973.0,0.010105436281226954
3972.0,0.010149890396819572
3971.0,0.010194349063173958
3970.0,0.010194349063173958
3969.0,0.010194349063173958
3968.0,0.010149890396819572
3967.0,0.010060986715464404
3966.0,0.009972101229705377
3965.0,0.009927665307847056
3964.0,0.009927665307847056
3963.0,0.009972101229705377
3962.0,0.010060986715464404
3961.0,0.010105436281226954
3960.0,0.010105436281226954
3959.0,0.010105436281226954
3958.0,0.010105436281226954
3957.0,0.010149890396819572
3956.0,0.01023881228122181
3955.0,0.010327752376126709
3954.0,0.010283280051895272
3953.0,0.010149890396819572
3952.0,0.009972101229705377
3951.0,0.009838807101520963
3950.0,0.00974996707218323
3949.0,0.00974996707218323
3948.0,0.009794384815193347
3947.0,0.009838807101520963
3946.0,0.009838807101520963
3945.0,0.009883233932095559
3944.0,0.009883233932095559
3943.0,0.009883233932095559
3942.0,0.009794384815193347
3941.0,0.00974996707218323
3940.0,0.009705553871561357
3939.0,0.009794384815193347
3938.0,0.009883233932095559
3937.0,0.009927665307847056
3936.0,0.009927665307847056
3935.0,0.009927665307847056
3934.0,0.009972101229705377
3933.0,0.01001654169860089
3932.0,0.010060986715464404
3931.0,0.010105436281226954
3930.0,0.010105436281226954
3929.0,0.010060986715464404
3928.0,0.009972101229705377
3927.0,0.009883233932095559
3926.0,0.009794384815193347
3925.0,0.009794384815193347
3924.0,0.009794384815193347
3923.0,0.009794384815193347
3922.0,0.009794384815193347
3921.0,0.009838807101520963
3920.0,0.009838807101520963
3919.0,0.009883233932095559
3918.0,0.009927665307847056
3917.0,0.009883233932095559
3916.0,0.009794384815193347
3915.0,0.009705553871561357
3914.0,0.009705553871561357
3913.0,0.009794384815193347
3912.0,0.009927665307847056
3911.0,0.010060986715464404
3910.0,0.010060986715464404
3909.0,0.009972101229705377
3908.0,0.009883233932095559
3907.0,0.009794384815193347
3906.0,0.00974996707218323
3905.0,0.00966114521239847
3904.0,0.009483555971770974
3903.0,0.009217308196862062
3902.0,0.009039900317800775
3901.0,0.00908424549391551
3900.0,0.009306039320248427
3899.0,0.009527946474380489
3898.0,0.009572341514736404
3897.0,0.009616741093766423
3896.0,0.009616741093766423
3895.0,0.009616741093766423
3894.0,0.009616741093766423
3893.0,0.009705553871561357
3892.0,0.009838807101520963
3891.0,0.009794384815193347
3890.0,0.009572341514736404
3889.0,0.00939478857608056
3888.0,0.009350411681145587
3887.0,0.009439170005980158
3886.0,0.009527946474380489
3885.0,0.00939478857608056
3884.0,0.009172949432521227
3883.0,0.00908424549391551
3882.0,0.009261671492462709
3881.0,0.009572341514736404
3880.0,0.00974996707218323
3879.0,0.009616741093766423
3878.0,0.00939478857608056
3877.0,0.009306039320248427
3876.0,0.009306039320248427
3875.0,0.009306039320248427
3874.0,0.009261671492462709
3873.0,0.00908424549391551
3872.0,0.009128595198514056
3871.0,0.00939478857608056
3870.0,0.00966114521239847
3869.0,0.00966114521239847
3868.0,0.009527946474380489
3867.0,0.009483555971770974
3866.0,0.009572341514736404
3865.0,0.009705553871561357
3864.0,0.009705553871561357
3863.0,0.009616741093766423
3862.0,0.009483555971770974
3861.0,0.009439170005980158
3860.0,0.00939478857608056
3859.0,0.009350411681145587
3858.0,0.009172949432521227
3857.0,0.008818242332126802
3856.0,0.008375265465994541
3855.0,0.008242460465651913
3854.0,0.008552401996197112
3853.0,0.008818242332126802
3852.0,0.008818242332126802
3851.0,0.009039900317800775
3850.0,0.009572341514736404
3849.0,0.009972101229705377
3848.0,0.010149890396819572
3847.0,0.010060986715464404
3846.0,0.009883233932095559
3845.0,0.00966114521239847
3844.0,0.00939478857608056
3843.0,0.009128595198514056
3842.0,0.008951223547323472
3841.0,0.008906891951112605
3840.0,0.009128595198514056
3839.0,0.009439170005980158
3838.0,0.00966114521239847
3837.0,0.009705553871561357
3836.0,0.009616741093766423
3835.0,0.009616741093766423
3834.0,0.009705553871561357
3833.0,0.009838807101520963
3832.0,0.009927665307847056
3831.0,0.009883233932095559
3830.0,0.00974996707218323
3829.0,0.009705553871561357
3828.0,0.00974996707218323
3827.0,0.009794384815193347
3826.0,0.00974996707218323
3825.0,0.009527946474380489
3824.0,0.009261671492462709
3823.0,0.009172949432521227
3822.0,0.00939478857608056
3821.0,0.009572341514736404
3820.0,0.009350411681145587
3819.0,0.00908424549391551
3818.0,0.00908424549391551
3817.0,0.009483555971770974
3816.0,0.009972101229705377
3815.0,0.01023881228122181
3814.0,0.010283280051895272
3813.0,0.010327752376126709
3812.0,0.010327752376126709
3811.0,0.01023881228122181
3810.0,0.010060986715464404
3809.0,0.009972101229705377
3808.0,0.010060986715464404
3807.0,0.010149890396819572
3806.0,0.01001654169860089
3805.0,0.009794384815193347
3804.0,0.009705553871561357
3803.0,0.009838807101520963
3802.0,0.010105436281226954
3801.0,0.010194349063173958
3800.0,0.009972101229705377
3799.0,0.009883233932095559
3798.0,0.010060986715464404
3797.0,0.010327752376126709
3796.0,0.010416710688994968
3795.0,0.010327752376126709
3794.0,0.01023881228122181
3793.0,0.01023881228122181
3792.0,0.01023881228122181
3791.0,0.010283280051895272
3790.0,0.01023881228122181
3789.0,0.010194349063173958
3788.0,0.010194349063173958
3787.0,0.010283280051895272
3786.0,0.01037222925484893
3785.0,0.010416710688994968
3784.0,0.010283280051895272
3783.0,0.010105436281226954
3782.0,0.01001654169860089
3781.0,0.01001654169860089
3780.0,0.010149890396819572
3779.0,0.01023881228122181
3778.0,0.010283280051895272
3777.0,0.010283280051895272
3776.0,0.010327752376126709
3775.0,0.010327752376126709
3774.0,0.010283280051895272
3773.0,0.010194349063173958
3772.0,0.010060986715464404
3771.0,0.01001654169860089
3770.0,0.009927665307847056
3769.0,0.009794384815193347
3768.0,0.009705553871561357
3767.0,0.009794384815193347
3766.0,0.01001654169860089
3765.0,0.010149890396819572
3764.0,0.010105436281226954
3763.0,0.009972101229705377
3762.0,0.009883233932095559
3761.0,0.009883233932095559
3760.0,0.009972101229705377
3759.0,0.01001654169860089
3758.0,0.009927665307847056
3757.0,0.009794384815193347
3756.0,0.009572341514736404
3755.0,0.00939478857608056
3754.0,0.009261671492462709
3753.0,0.009350411681145587
3752.0,0.009616741093766423
3751.0,0.009838807101520963
3750.0,0.009616741093766423
3749.0,0.009217308196862062
3748.0,0.008951223547323472
3747.0,0.009039900317800775
3746.0,0.00939478857608056
3745.0,0.009927665307847056
3744.0,0.01001654169860089
3743.0,0.00974996707218323
3742.0,0.009616741093766423
3741.0,0.009838807101520963
3740.0,0.01001654169860089
3739.0,0.009838807101520963
3738.0,0.009572341514736404
3737.0,0.00939478857608056
3736.0,0.009483555971770974
3735.0,0.009572341514736404
3734.0,0.009572341514736404
3733.0,0.009527946474380489
3732.0,0.009616741093766423
3731.0,0.009705553871561357
3730.0,0.009838807101520963
3729.0,0.009972101229705377
3728.0,0.010060986715464404
3727.0,0.010060986715464404
3726.0,0.009972101229705377
3725.0,0.009838807101520963
3724.0,0.009705553871561357
3723.0,0.009705553871561357
3722.0,0.00974996707218323
3721.0,0.009794384815193347
3720.0,0.009838807101520963
3719.0,0.009927665307847056
3718.0,0.010060986715464404
3717.0,0.010060986715464404
3716.0,0.009972101229705377
3715.0,0.009705553871561357
3714.0,0.009439170005980158
3713.0,0.009350411681145587
3712.0,0.009527946474380489
3711.0,0.009705553871561357
3710.0,0.009883233932095559
3709.0,0.01001654169860089
3708.0,0.010105436281226954
3707.0,0.010194349063173958
3706.0,0.010149890396819572
3705.0,0.010060986715464404
3704.0,0.009972101229705377
3703.0,0.009972101229705377
3702.0,0.01001654169860089
3701.0,0.009972101229705377
3700.0,0.009883233932095559
3699.0,0.009838807101520963
3698.0,0.009883233932095559
3697.0,0.009883233932095559
3696.0,0.00974996707218323
3695.0,0.009572341514736404
3694.0,0.009350411681145587
3693.0,0.009217308196862062
3692.0,0.009128595198514056
3691.0,0.009172949432521227
3690.0,0.009350411681145587
3689.0,0.009527946474380489
3688.0,0.009616741093766423
3687.0,0.009705553871561357
3686.0,0.009927665307847056
3685.0,0.010105436281226954
3684.0,0.010194349063173958
3683.0,0.010105436281226954
3682.0,0.009972101229705377
3681.0,0.009883233932095559
3680.0,0.00974996707218323
3679.0,0.009439170005980158
3678.0,0.009128595198514056
3677.0,0.00908424549391551
3676.0,0.009261671492462709
3675.0,0.009350411681145587
3674.0,0.00908424549391551
3673.0,0.008951223547323472
3672.0,0.00908424549391551
3671.0,0.009483555971770974
3670.0,0.009927665307847056
3669.0,0.010060986715464404
3668.0,0.01001654169860089
3667.0,0.010105436281226954
3666.0,0.010327752376126709
3665.0,0.010550182333308289
3664.0,0.010683695010048622
3663.0,0.010683695010048622
3662.0,0.010639186223752484
3661.0,0.010505687227290839
3660.0,0.010416710688994968
3659.0,0.01037222925484893
3658.0,0.010416710688994968
3657.0,0.010550182333308289
3656.0,0.010594681998483901
3655.0,0.010416710688994968
3654.0,0.010105436281226954
3653.0,0.009838807101520963
3652.0,0.009616741093766423
3651.0,0.009572341514736404
3650.0,0.009705553871561357
3649.0,0.009883233932095559
3648.0,0.009972101229705377
3647.0,0.010194349063173958
3646.0,0.010505687227290839
3645.0,0.01086177578421088
3644.0,0.011218156546359825
3643.0,0.011530229790124524
3642.0,0.011708658092512314
3641.0,0.011753276624621556
3640.0,0.011753276624621556
3639.0,0.011753276624621556
3638.0,0.011753276624621556
3637.0,0.011753276624621556
3636.0,0.011797899741219142
3635.0,0.011753276624621556
3634.0,0.011664044143949504
3633.0,0.011396456654336085
3632.0,0.010995384301463185
3631.0,0.01077272626946324
3630.0,0.01086177578421088
3629.0,0.011218156546359825
3628.0,0.011351874764248926
3627.0,0.011307297450183107
3626.0,0.011485634166333858
3625.0,0.011797899741219142
3624.0,0.0119764380713403
3623.0,0.011887159731648111
3622.0,0.011753276624621556
3621.0,0.011664044143949504
3620.0,0.011619434777991433
3619.0,0.011574829993696856
3618.0,0.011441043121384498
3617.0,0.011351874764248926
3616.0,0.011351874764248926
3615.0,0.011485634166333858
3614.0,0.011664044143949504
3613.0,0.011797899741219142
3612.0,0.011797899741219142
3611.0,0.011797899741219142
3610.0,0.011842527443247208
3609.0,0.011931796607364653
3608.0,0.012021084124518078
3607.0,0.012021084124518078
3606.0,0.012021084124518078
3605.0,0.01215504982870197
3604.0,0.012333735073725371
3603.0,0.012557195064198723
3602.0,0.012691326268817527
3601.0,0.01260190086298274
3600.0,0.012423105273012602
3599.0,0.012199714248127602
3598.0,0.012110390002254778
3597.0,0.01215504982870197
3596.0,0.012333735073725371
3595.0,0.012423105273012602
3594.0,0.012467797270160563
3593.0,0.012378417874516323
3592.0,0.012289056869694281
3591.0,0.012244383261476699
3590.0,0.012199714248127602
3589.0,0.012244383261476699
3588.0,0.012333735073725371
3587.0,0.012378417874516323
3586.0,0.012333735073725371
3585.0,0.012423105273012602
3584.0,0.01264661126420652
3583.0,0.012959713020733288
3582.0,0.01318349541446362
3581.0,0.013362604389846044
3580.0,0.013452186585275916
3579.0,0.013496984613259544
3578.0,0.013496984613259544
3577.0,0.013541787262693505
3576.0,0.013586594534531482
3575.0,0.013676222949234651
3574.0,0.013676222949234651
3573.0,0.013676222949234651
3572.0,0.013541787262693505
3571.0,0.013317820220494436
3570.0,0.013049212141483357
3569.0,0.012959713020733288
3568.0,0.013049212141483357
3567.0,0.013273040668781544
3566.0,0.013407393177789162
3565.0,0.013496984613259544
3564.0,0.013586594534531482
3563.0,0.013676222949234651
3562.0,0.01372104409400876
3561.0,0.013765869865004277
3560.0,0.01385553528947936
3559.0,0.013990068146738865
3558.0,0.014124642691606404
3557.0,0.014259258949925524
3556.0,0.014304140310157809
3555.0,0.014304140310157809
3554.0,0.014349026309051105
3553.0,0.0144837121472845
3552.0,0.014573525916998342
3551.0,0.014663358264387139
3550.0,0.014663358264387139
3549.0,0.014663358264387139
3548.0,0.014708281407112
3547.0,0.014663358264387139
3546.0,0.014663358264387139
3545.0,0.014618439768003144
3544.0,0.014663358264387139
3543.0,0.014663358264387139
3542.0,0.014663358264387139
3541.0,0.014618439768003144
3540.0,0.014573525916998342
3539.0,0.014573525916998342
3538.0,0.014663358264387139
3537.0,0.014708281407112
3536.0,0.014798141635428141
3535.0,0.014843078722943437
3534.0,0.014888020460646079
3533.0,0.015022873584506602
3532.0,0.015112798935672522
3531.0,0.015202742910707112
3530.0,0.015202742910707112
3529.0,0.015157768594724175
3528.0,0.015067833932588037
3527.0,0.014932966849499074
3526.0,0.014843078722943437
3525.0,0.014798141635428141
3524.0,0.014843078722943437
3523.0,0.014888020460646079
3522.0,0.014932966849499074
3521.0,0.014888020460646079
3520.0,0.014843078722943437
3519.0,0.014798141635428141
3518.0,0.014798141635428141
3517.0,0.014798141635428141
3516.0,0.014888020460646079
3515.0,0.014977917890464765
3514.0,0.015067833932588037
3513.0,0.015067833932588037
3512.0,0.015067833932588037
3511.0,0.015022873584506602
3510.0,0.015022873584506602
3509.0,0.015022873584506602
3508.0,0.014977917890464765
3507.0,0.014843078722943437
3506.0,0.014753209197138295
3505.0,0.014708281407112
3504.0,0.014753209197138295
3503.0,0.014888020460646079
3502.0,0.014977917890464765
3501.0,0.014977917890464765
3500.0,0.014977917890464765
3499.0,0.014977917890464765
3498.0,0.015022873584506602
3497.0,0.015112798935672522
3496.0,0.015202742910707112
3495.0,0.015247721884586563
3494.0,0.015247721884586563
3493.0,0.015202742910707112
3492.0,0.015157768594724175
3491.0,0.015157768594724175
3490.0,0.015247721884586563
3489.0,0.015337693809893471
3488.0,0.015427684378367834
3487.0,0.01547268665620738
3486.0,0.01547268665620738
3485.0,0.01538268676325183
3484.0,0.015292705517326866
3483.0,0.015157768594724175
3482.0,0.015022873584506602
3481.0,0.014977917890464765
3480.0,0.015067833932588037
3479.0,0.015247721884586563
3478.0,0.015427684378367834
3477.0,0.015517693597737248
3476.0,0.015562705203923999
3475.0,0.015607721475734415
3474.0,0.015607721475734415
3473.0,0.015652742414136167
3472.0,0.015652742414136167
3471.0,0.015697768020096703
3470.0,0.015742798294583915
3469.0,0.015832872853011715
3468.0,0.015922966097169144
3467.0,0.016013078034810446
3466.0,0.016058141016111804
3465.0,0.016103208673694303
3464.0,0.016103208673694303
3463.0,0.016058141016111804
3462.0,0.016058141016111804
3461.0,0.016103208673694303
3460.0,0.016148281008528276
3459.0,0.016238439713835096
3458.0,0.01632861713980338
3457.0,0.016418813294209356
3456.0,0.016554142658660398
3455.0,0.016689514205884493
3454.0,0.016824927962187042
3453.0,0.016915227262211507
3452.0,0.016960383953898095
3451.0,0.016960383953898095
3450.0,0.017005545341335804
3449.0,0.017141057687924732
3448.0,0.01727661233145472
3447.0,0.017321806616515723
3446.0,0.017321806616515723
3445.0,0.017321806616515723
3444.0,0.017367005605150476
3443.0,0.017457417697056554
3442.0,0.017547848615010242
3441.0,0.017547848615010242
3440.0,0.01759307113620534
3439.0,0.017638298366853045
3438.0,0.017638298366853045
3437.0,0.01768353030793479
3436.0,0.017774008325325275
3435.0,0.017864505196230507
3434.0,0.018045555530026514
3433.0,0.018136109008649592
3432.0,0.018136109008649592
3431.0,0.01809082990920774
3430.0,0.01800028587012159
3429.0,0.01800028587012159
3428.0,0.01809082990920774
3427.0,0.018181392829336396
3426.0,0.018271974638383703
3425.0,0.018271974638383703
3424.0,0.018136109008649592
3423.0,0.01800028587012159
3422.0,0.017774008325325275
3421.0,0.01768353030793479
3420.0,0.017638298366853045
3419.0,0.01768353030793479
3418.0,0.01768353030793479
3417.0,0.017638298366853045
3416.0,0.01759307113620534
3415.0,0.01759307113620534
3414.0,0.017638298366853045
3413.0,0.01768353030793479
3412.0,0.01759307113620534
3411.0,0.017412209298337533
3410.0,0.017186237868137555
3409.0,0.016960383953898095
3408.0,0.016870075265299933
3407.0,0.016870075265299933
3406.0,0.016915227262211507
3405.0,0.016915227262211507
3404.0,0.016870075265299933
3403.0,0.016734647433454652
3402.0,0.016599261819461697
3401.0,0.016509028184833463
3400.0,0.016418813294209356
3399.0,0.016418813294209356
3398.0,0.016418813294209356
3397.0,0.016373712875465518
3396.0,0.016373712875465518
3395.0,0.016373712875465518
3394.0,0.016373712875465518
3393.0,0.01646391839700767
3392.0,0.01646391839700767
3391.0,0.016509028184833463
3390.0,0.01646391839700767
3389.0,0.01646391839700767
3388.0,0.016509028184833463
3387.0,0.016599261819461697
3386.0,0.016689514205884493
3385.0,0.016824927962187042
3384.0,0.016870075265299933
3383.0,0.016870075265299933
3382.0,0.016824927962187042
3381.0,0.016689514205884493
3380.0,0.016509028184833463
3379.0,0.016373712875465518
3378.0,0.01628352608625061
3377.0,0.01628352608625061
3376.0,0.01632861713980338
3375.0,0.016373712875465518
3374.0,0.01646391839700767
3373.0,0.016554142658660398
3372.0,0.016554142658660398
3371.0,0.016509028184833463
3370.0,0.016418813294209356
3369.0,0.01632861713980338
3368.0,0.01628352608625061
3367.0,0.016238439713835096
3366.0,0.016238439713835096
3365.0,0.016238439713835096
3364.0,0.016238439713835096
3363.0,0.016193358021584725
3362.0,0.016193358021584725
3361.0,0.016238439713835096
3360.0,0.016238439713835096
3359.0,0.01632861713980338
3358.0,0.01646391839700767
3357.0,0.016599261819461697
3356.0,0.016689514205884493
3355.0,0.016734647433454652
3354.0,0.016689514205884493
3353.0,0.016689514205884493
3352.0,0.016644385668211692
3351.0,0.016599261819461697
3350.0,0.016599261819461697
3349.0,0.016554142658660398
3348.0,0.016554142658660398
3347.0,0.016554142658660398
3346.0,0.016554142658660398
3345.0,0.016554142658660398
3344.0,0.016554142658660398
3343.0,0.016599261819461697
3342.0,0.016644385668211692
3341.0,0.016734647433454652
3340.0,0.016689514205884493
3339.0,0.016644385668211692
3338.0,0.016554142658660398
3337.0,0.01646391839700767
3336.0,0.016418813294209356
3335.0,0.016373712875465518
3334.0,0.016373712875465518
3333.0,0.01646391839700767
3332.0,0.016599261819461697
3331.0,0.016689514205884493
3330.0,0.016734647433454652
3329.0,0.016689514205884493
3328.0,0.016599261819461697
3327.0,0.016509028184833463
3326.0,0.01646391839700767
3325.0,0.016373712875465518
3324.0,0.016238439713835096
3323.0,0.016193358021584725
3322.0,0.016238439713835096
3321.0,0.01628352608625061
3320.0,0.016418813294209356
3319.0,0.01646391839700767
3318.0,0.016554142658660398
3317.0,0.016644385668211692
3316.0,0.016689514205884493
3315.0,0.016689514205884493
3314.0,0.016644385668211692
3313.0,0.016599261819461697
3312.0,0.016509028184833463
3311.0,0.016509028184833463
3310.0,0.016509028184833463
3309.0,0.016509028184833463
3308.0,0.016599261819461697
3307.0,0.016644385668211692
3306.0,0.016689514205884493
3305.0,0.016734647433454652
3304.0,0.016689514205884493
3303.0,0.016599261819461697
3302.0,0.016509028184833463
3301.0,0.016418813294209356
3300.0,0.016373712875465518
3299.0,0.016418813294209356
3298.0,0.01646391839700767
3297.0,0.016554142658660398
3296.0,0.016599261819461697
3295.0,0.016599261819461697
3294.0,0.016599261819461697
3293.0,0.016599261819461697
3292.0,0.016599261819461697
3291.0,0.016644385668211692
3290.0,0.016599261819461697
3289.0,0.016599261819461697
3288.0,0.016554142658660398
3287.0,0.016599261819461697
3286.0,0.016644385668211692
3285.0,0.016734647433454652
3284.0,0.016824927962187042
3283.0,0.016870075265299933
3282.0,0.016870075265299933
3281.0,0.016870075265299933
3280.0,0.016824927962187042
3279.0,0.01677978535189717
3278.0,0.016689514205884493
3277.0,0.016599261819461697
3276.0,0.016599261819461697
3275.0,0.016644385668211692
3274.0,0.016644385668211692
3273.0,0.016689514205884493
3272.0,0.016734647433454652
3271.0,0.01677978535189717
3270.0,0.01677978535189717
3269.0,0.01677978535189717
3268.0,0.01677978535189717
3267.0,0.01677978535189717
3266.0,0.01677978535189717
3265.0,0.016644385668211692
3264.0,0.016509028184833463
3263.0,0.016418813294209356
3262.0,0.016418813294209356
3261.0,0.016509028184833463
3260.0,0.016644385668211692
3259.0,0.016734647433454652
3258.0,0.016734647433454652
3257.0,0.016689514205884493
3256.0,0.016644385668211692
3255.0,0.016599261819461697
3254.0,0.016599261819461697
3253.0,0.016644385668211692
3252.0,0.016599261819461697
3251.0,0.016554142658660398
3250.0,0.016509028184833463
3249.0,0.01646391839700767
3248.0,0.01646391839700767
3247.0,0.016554142658660398
3246.0,0.016644385668211692
3245.0,0.016734647433454652
3244.0,0.01677978535189717
3243.0,0.01677978535189717
3242.0,0.016734647433454652
3241.0,0.016689514205884493
3240.0,0.016644385668211692
3239.0,0.016689514205884493
3238.0,0.016734647433454652
3237.0,0.01677978535189717
3236.0,0.01677978535189717
3235.0,0.01677978535189717
3234.0,0.016689514205884493
3233.0,0.016599261819461697
3232.0,0.016599261819461697
3231.0,0.016599261819461697
3230.0,0.016689514205884493
3229.0,0.01677978535189717
3228.0,0.01677978535189717
3227.0,0.016689514205884493
3226.0,0.016599261819461697
3225.0,0.016554142658660398
3224.0,0.016509028184833463
3223.0,0.016509028184833463
3222.0,0.016554142658660398
3221.0,0.016554142658660398
3220.0,0.016509028184833463
3219.0,0.01646391839700767
3218.0,0.016418813294209356
3217.0,0.016418813294209356
3216.0,0.016509028184833463
3215.0,0.016599261819461697
3214.0,0.016689514205884493
3213.0,0.016689514205884493
3212.0,0.016644385668211692
3211.0,0.016599261819461697
3210.0,0.016554142658660398
3209.0,0.016509028184833463
3208.0,0.016509028184833463
3207.0,0.016509028184833463
3206.0,0.016554142658660398
3205.0,0.016599261819461697
3204.0,0.016644385668211692
3203.0,0.016644385668211692
3202.0,0.016599261819461697
3201.0,0.016509028184833463
3200.0,0.016554142658660398
3199.0,0.016599261819461697
3198.0,0.016689514205884493
3197.0,0.016734647433454652
3196.0,0.016734647433454652
3195.0,0.016689514205884493
3194.0,0.016554142658660398
3193.0,0.01646391839700767
3192.0,0.01646391839700767
3191.0,0.016509028184833463
3190.0,0.016554142658660398
3189.0,0.016509028184833463
3188.0,0.01646391839700767
3187.0,0.016418813294209356
3186.0,0.016373712875465518
3185.0,0.01628352608625061
3184.0,0.016238439713835096
3183.0,0.016193358021584725
3182.0,0.016148281008528276
3181.0,0.016103208673694303
3180.0,0.016148281008528276
3179.0,0.016238439713835096
3178.0,0.01632861713980338
3177.0,0.01632861713980338
3176.0,0.01628352608625061
3175.0,0.016238439713835096
3174.0,0.01628352608625061
3173.0,0.01632861713980338
3172.0,0.016418813294209356
3171.0,0.01646391839700767
3170.0,0.016509028184833463
3169.0,0.01646391839700767
3168.0,0.01646391839700767
3167.0,0.01646391839700767
3166.0,0.01646391839700767
3165.0,0.01646391839700767
3164.0,0.01646391839700767
3163.0,0.016373712875465518
3162.0,0.016238439713835096
3161.0,0.016148281008528276
3160.0,0.016058141016111804
3159.0,0.016058141016111804
3158.0,0.016103208673694303
3157.0,0.016148281008528276
3156.0,0.016193358021584725
3155.0,0.016193358021584725
3154.0,0.016238439713835096
3153.0,0.016193358021584725
3152.0,0.016103208673694303
3151.0,0.016013078034810446
3150.0,0.01596801972881945
3149.0,0.01596801972881945
3148.0,0.01596801972881945
3147.0,0.016013078034810446
3146.0,0.016058141016111804
3145.0,0.016103208673694303
3144.0,0.016193358021584725
3143.0,0.016238439713835096
3142.0,0.016193358021584725
3141.0,0.016058141016111804
3140.0,0.01596801972881945
3139.0,0.015922966097169144
3138.0,0.01596801972881945
3137.0,0.016013078034810446
3136.0,0.016058141016111804
3135.0,0.016103208673694303
3134.0,0.016148281008528276
3133.0,0.016193358021584725
3132.0,0.016193358021584725
3131.0,0.016238439713835096
3130.0,0.01628352608625061
3129.0,0.016373712875465518
3128.0,0.016509028184833463
3127.0,0.016554142658660398
3126.0,0.016509028184833463
3125.0,0.016418813294209356
3124.0,0.01628352608625061
3123.0,0.016238439713835096
3122.0,0.016193358021584725
3121.0,0.016148281008528276
3120.0,0.016148281008528276
3119.0,0.016148281008528276
3118.0,0.016148281008528276
3117.0,0.016103208673694303
3116.0,0.016148281008528276
3115.0,0.016193358021584725
3114.0,0.01628352608625061
3113.0,0.01632861713980338
3112.0,0.016418813294209356
3111.0,0.016554142658660398
3110.0,0.016734647433454652
3109.0,0.016870075265299933
3108.0,0.016960383953898095
3107.0,0.016915227262211507
3106.0,0.016824927962187042
3105.0,0.01677978535189717
3104.0,0.016734647433454652
3103.0,0.01677978535189717
3102.0,0.016824927962187042
3101.0,0.016824927962187042
3100.0,0.01677978535189717
3099.0,0.016689514205884493
3098.0,0.016599261819461697
3097.0,0.016554142658660398
3096.0,0.01646391839700767
3095.0,0.016418813294209356
3094.0,0.016373712875465518
3093.0,0.016373712875465518
3092.0,0.016373712875465518
3091.0,0.016418813294209356
3090.0,0.016509028184833463
3089.0,0.016644385668211692
3088.0,0.016734647433454652
3087.0,0.01677978535189717
3086.0,0.016870075265299933
3085.0,0.016915227262211507
3084.0,0.017005545341335804
3083.0,0.017095882207371904
3082.0,0.017141057687924732
3081.0,0.017186237868137555
3080.0,0.017186237868137555
3079.0,0.017186237868137555
3078.0,0.017141057687924732
3077.0,0.017141057687924732
3076.0,0.017141057687924732
3075.0,0.017141057687924732
3074.0,0.017095882207371904
3073.0,0.017005545341335804
3072.0,0.016960383953898095
3071.0,0.016960383953898095
3070.0,0.017050711425501408
3069.0,0.017141057687924732
3068.0,0.017141057687924732
3067.0,0.017095882207371904
3066.0,0.017005545341335804
3065.0,0.016870075265299933
3064.0,0.01677978535189717
3063.0,0.016734647433454652
3062.0,0.01677978535189717
3061.0,0.016870075265299933
3060.0,0.017005545341335804
3059.0,0.017050711425501408
3058.0,0.017050711425501408
3057.0,0.017005545341335804
3056.0,0.017005545341335804
3055.0,0.017095882207371904
3054.0,0.017186237868137555
3053.0,0.017186237868137555
3052.0,0.017050711425501408
3051.0,0.016915227262211507
3050.0,0.016734647433454652
3049.0,0.016554142658660398
3048.0,0.01632861713980338
3047.0,0.016013078034810446
3046.0,0.015742798294583915
3045.0,0.01547268665620738
3044.0,0.015292705517326866
3043.0,0.015247721884586563
3042.0,0.015247721884586563
3041.0,0.015247721884586563
3040.0,0.015247721884586563
3039.0,0.015202742910707112
3038.0,0.015112798935672522
3037.0,0.014977917890464765
3036.0,0.014888020460646079
3035.0,0.014798141635428141
3034.0,0.014753209197138295
3033.0,0.014708281407112
3032.0,0.014708281407112
3031.0,0.014708281407112
3030.0,0.014618439768003144
3029.0,0.014573525916998342
3028.0,0.014573525916998342
3027.0,0.014573525916998342
3026.0,0.014573525916998342
3025.0,0.014573525916998342
3024.0,0.014573525916998342
3023.0,0.014618439768003144
3022.0,0.014663358264387139
3021.0,0.014753209197138295
3020.0,0.014798141635428141
3019.0,0.014888020460646079
3018.0,0.014932966849499074
3017.0,0.014977917890464765
3016.0,0.015022873584506602
3015.0,0.015112798935672522
3014.0,0.015202742910707112
3013.0,0.015292705517326866
3012.0,0.01538268676325183
3011.0,0.01547268665620738
3010.0,0.015517693597737248
3009.0,0.015562705203923999
3008.0,0.015607721475734415
3007.0,0.015607721475734415
3006.0,0.015607721475734415
3005.0,0.015562705203923999
3004.0,0.015607721475734415
3003.0,0.015697768020096703
3002.0,0.015832872853011715
3001.0,0.015922966097169144
3000.0,0.016058141016111804
2999.0,0.016148281008528276
2998.0,0.016193358021584725
2997.0,0.016193358021584725
2996.0,0.016238439713835096
2995.0,0.01632861713980338
2994.0,0.016418813294209356
2993.0,0.01646391839700767
2992.0,0.016373712875465518
2991.0,0.016238439713835096
2990.0,0.016103208673694303
2989.0,0.016148281008528276
2988.0,0.016373712875465518
2987.0,0.016689514205884493
2986.0,0.017050711425501408
2985.0,0.017367005605150476
2984.0,0.017728766960431575
2983.0,0.018045555530026514
2982.0,0.018362575344230914
2981.0,0.018725167293411005
2980.0,0.019042683770379876
2979.0,0.019360432556262852
2978.0,0.019723858922159776
2977.0,0.02013307743509718
2976.0,0.020542681902151694
2975.0,0.020907099361673565
2974.0,0.0211806132671577
2973.0,0.02140867317992523
2972.0,0.021636852916117055
2971.0,0.021819483062586187
2970.0,0.02204787879853809
2969.0,0.02227639471115217
2968.0,0.022505030926963654
2967.0,0.022733787572707387
2966.0,0.022871099419317753
2965.0,0.02291687968414724
2964.0,0.022871099419317753
2963.0,0.022733787572707387
2962.0,0.02259651912656535
2961.0,0.02245929405346514
2960.0,0.022322112326006227
2959.0,0.022139270735302752
2958.0,0.021956506090037076
2957.0,0.021728158389364705
2956.0,0.021499930688540836
2955.0,0.0211806132671577
2954.0,0.020907099361673565
2953.0,0.020633757603838898
2952.0,0.02036058777709271
2951.0,0.02004210665933459
2950.0,0.019723858922159776
2949.0,0.01940584422377989
2948.0,0.019133445417920836
2947.0,0.018861217359339655
2946.0,0.01858915983411169
2945.0,0.018271974638383703
2944.0,0.017909760704207134
2943.0,0.01759307113620534
2942.0,0.01727661233145472
2941.0,0.017050711425501408
2940.0,0.016824927962187042
2939.0,0.016644385668211692
2938.0,0.01646391839700767
2937.0,0.01632861713980338
2936.0,0.016148281008528276
2935.0,0.01596801972881945
2934.0,0.015742798294583915
2933.0,0.015607721475734415
2932.0,0.015517693597737248
2931.0,0.015517693597737248
2930.0,0.015517693597737248
2929.0,0.015427684378367834
2928.0,0.015337693809893471
2927.0,0.015247721884586563
2926.0,0.015202742910707112
2925.0,0.015202742910707112
2924.0,0.015247721884586563
2923.0,0.015337693809893471
2922.0,0.015427684378367834
2921.0,0.015517693597737248
2920.0,0.015652742414136167
2919.0,0.01578783323856614
2918.0,0.015922966097169144
2917.0,0.016058141016111804
2916.0,0.016193358021584725
2915.0,0.01632861713980338
2914.0,0.016509028184833463
2913.0,0.016689514205884493
2912.0,0.016870075265299933
2911.0,0.017095882207371904
2910.0,0.01727661233145472
2909.0,0.017321806616515723
2908.0,0.017321806616515723
2907.0,0.01727661233145472
2906.0,0.017141057687924732
2905.0,0.016870075265299933
2904.0,0.016509028184833463
2903.0,0.016103208673694303
2902.0,0.015742798294583915
2901.0,0.015562705203923999
2900.0,0.015517693597737248
2899.0,0.015562705203923999
2898.0,0.015652742414136167
2897.0,0.015697768020096703
2896.0,0.015697768020096703
2895.0,0.015697768020096703
2894.0,0.015697768020096703
2893.0,0.015697768020096703
2892.0,0.015742798294583915
2891.0,0.015742798294583915
2890.0,0.015742798294583915
2889.0,0.015652742414136167
2888.0,0.015607721475734415
2887.0,0.01547268665620738
2886.0,0.01538268676325183
2885.0,0.015292705517326866
2884.0,0.015202742910707112
2883.0,0.015157768594724175
2882.0,0.015112798935672522
2881.0,0.015112798935672522
2880.0,0.015112798935672522
2879.0,0.015112798935672522
2878.0,0.015112798935672522
2877.0,0.015157768594724175
2876.0,0.015202742910707112
2875.0,0.015247721884586563
2874.0,0.015247721884586563
2873.0,0.015157768594724175
2872.0,0.015067833932588037
2871.0,0.014977917890464765
2870.0,0.014888020460646079
2869.0,0.014888020460646079
2868.0,0.014888020460646079
2867.0,0.014932966849499074
2866.0,0.014977917890464765
2865.0,0.015022873584506602
2864.0,0.015112798935672522
2863.0,0.015202742910707112
2862.0,0.015337693809893471
2861.0,0.015427684378367834
2860.0,0.015427684378367834
2859.0,0.015427684378367834
2858.0,0.015427684378367834
2857.0,0.01538268676325183
2856.0,0.015337693809893471
2855.0,0.015292705517326866
2854.0,0.015292705517326866
2853.0,0.015247721884586563
2852.0,0.015202742910707112
2851.0,0.015157768594724175
2850.0,0.015112798935672522
2849.0,0.015022873584506602
2848.0,0.014977917890464765
2847.0,0.014888020460646079
2846.0,0.014753209197138295
2845.0,0.014663358264387139
2844.0,0.014618439768003144
2843.0,0.014573525916998342
2842.0,0.01452861671041239
2841.0,0.014438812226654996
2840.0,0.014393916947563534
2839.0,0.014349026309051105
2838.0,0.014349026309051105
2837.0,0.014393916947563534
2836.0,0.014393916947563534
2835.0,0.014393916947563534
2834.0,0.014304140310157809
2833.0,0.014259258949925524
2832.0,0.014259258949925524
2831.0,0.014259258949925524
2830.0,0.014169510141607944
2829.0,0.013990068146738865
2828.0,0.01385553528947936
2827.0,0.013765869865004277
2826.0,0.013765869865004277
2825.0,0.013765869865004277
2824.0,0.01372104409400876
2823.0,0.013676222949234651
2822.0,0.013631406429727155
2821.0,0.013586594534531482
2820.0,0.013586594534531482
2819.0,0.013631406429727155
2818.0,0.01372104409400876
2817.0,0.013765869865004277
2816.0,0.01385553528947936
2815.0,0.013900374944870508
2814.0,0.013945219230304673
2813.0,0.013945219230304673
2812.0,0.013945219230304673
2811.0,0.013945219230304673
2810.0,0.013945219230304673
2809.0,0.013900374944870508
2808.0,0.013900374944870508
2807.0,0.01385553528947936
2806.0,0.01381070026317599
2805.0,0.01381070026317599
2804.0,0.013765869865004277
2803.0,0.01372104409400876
2802.0,0.01372104409400876
2801.0,0.01372104409400876
2800.0,0.013676222949234651
2799.0,0.013676222949234651
2798.0,0.013631406429727155
2797.0,0.013586594534531482
2796.0,0.013496984613259544
2795.0,0.013407393177789162
2794.0,0.013362604389846044
2793.0,0.013317820220494436
2792.0,0.013317820220494436
2791.0,0.013362604389846044
2790.0,0.013362604389846044
2789.0,0.013317820220494436
2788.0,0.013273040668781544
2787.0,0.013273040668781544
2786.0,0.013317820220494436
2785.0,0.013317820220494436
2784.0,0.013362604389846044
2783.0,0.013317820220494436
2782.0,0.013273040668781544
2781.0,0.01318349541446362
2780.0,0.013049212141483357
2779.0,0.012959713020733288
2778.0,0.012914970375878188
2777.0,0.012914970375878188
2776.0,0.012959713020733288
2775.0,0.013004460275618523
2774.0,0.013049212141483357
2773.0,0.013049212141483357
2772.0,0.013049212141483357
2771.0,0.013049212141483357
2770.0,0.013004460275618523
2769.0,0.013004460275618523
2768.0,0.013004460275618523
2767.0,0.012959713020733288
2766.0,0.012914970375878188
2765.0,0.012914970375878188
2764.0,0.012870232340102872
2763.0,0.012870232340102872
2762.0,0.012870232340102872
2761.0,0.012870232340102872
2760.0,0.012870232340102872
2759.0,0.012870232340102872
2758.0,0.012870232340102872
2757.0,0.012870232340102872
2756.0,0.012870232340102872
2755.0,0.012825498912458322
2754.0,0.012736045877764557
2753.0,0.01264661126420652
2752.0,0.01264661126420652
2751.0,0.012691326268817527
2750.0,0.012691326268817527
2749.0,0.012691326268817527
2748.0,0.012691326268817527
2747.0,0.012736045877764557
2746.0,0.012736045877764557
2745.0,0.012736045877764557
2744.0,0.012736045877764557
2743.0,0.012691326268817527
2742.0,0.01264661126420652
2741.0,0.012557195064198723
2740.0,0.012512493866907004
2739.0,0.012512493866907004
2738.0,0.012512493866907004
2737.0,0.012512493866907004
2736.0,0.012557195064198723
2735.0,0.012557195064198723
2734.0,0.012557195064198723
2733.0,0.012512493866907004
2732.0,0.012512493866907004
2731.0,0.012512493866907004
2730.0,0.012557195064198723
2729.0,0.012557195064198723
2728.0,0.012512493866907004
2727.0,0.012467797270160563
2726.0,0.012423105273012602
2725.0,0.012378417874516323
2724.0,0.012333735073725371
2723.0,0.012289056869694281
2722.0,0.012244383261476699
2721.0,0.012289056869694281
2720.0,0.012378417874516323
2719.0,0.012467797270160563
2718.0,0.012467797270160563
2717.0,0.012423105273012602
2716.0,0.012333735073725371
2715.0,0.012289056869694281
2714.0,0.012244383261476699
2713.0,0.012199714248127602
2712.0,0.01215504982870197
2711.0,0.01215504982870197
2710.0,0.01215504982870197
2709.0,0.012199714248127602
2708.0,0.012199714248127602
2707.0,0.012199714248127602
2706.0,0.01215504982870197
2705.0,0.012110390002254778
2704.0,0.012110390002254778
2703.0,0.012110390002254778
2702.0,0.012110390002254778
2701.0,0.012065734767841452
2700.0,0.012021084124518078
2699.0,0.012021084124518078
2698.0,0.012065734767841452
2697.0,0.012065734767841452
2696.0,0.012065734767841452
2695.0,0.012021084124518078
2694.0,0.011931796607364653
2693.0,0.011887159731648111
2692.0,0.011842527443247208
2691.0,0.011842527443247208
2690.0,0.011842527443247208
2689.0,0.011842527443247208
2688.0,0.011842527443247208
2687.0,0.011753276624621556
2686.0,0.011708658092512314
2685.0,0.011753276624621556
2684.0,0.011842527443247208
2683.0,0.011887159731648111
2682.0,0.011842527443247208
2681.0,0.011753276624621556
2680.0,0.011664044143949504
2679.0,0.011664044143949504
2678.0,0.011664044143949504
2677.0,0.011619434777991433
2676.0,0.011619434777991433
2675.0,0.011619434777991433
2674.0,0.011664044143949504
2673.0,0.011708658092512314
2672.0,0.011753276624621556
2671.0,0.011753276624621556
2670.0,0.011753276624621556
2669.0,0.011708658092512314
2668.0,0.011664044143949504
2667.0,0.011619434777991433
2666.0,0.011574829993696856
2665.0,0.011530229790124524
2664.0,0.011574829993696856
2663.0,0.011619434777991433
2662.0,0.011619434777991433
2661.0,0.011574829993696856
2660.0,0.011485634166333858
2659.0,0.011441043121384498
2658.0,0.011351874764248926
2657.0,0.011307297450183107
2656.0,0.011307297450183107
2655.0,0.011351874764248926
2654.0,0.011485634166333858
2653.0,0.011574829993696856
2652.0,0.011574829993696856
2651.0,0.011574829993696856
2650.0,0.011485634166333858
2649.0,0.011441043121384498
2648.0,0.011396456654336085
2647.0,0.011351874764248926
2646.0,0.011396456654336085
2645.0,0.011441043121384498
2644.0,0.011396456654336085
2643.0,0.011351874764248926
2642.0,0.011351874764248926
2641.0,0.011351874764248926
2640.0,0.011396456654336085
2639.0,0.011441043121384498
2638.0,0.011441043121384498
2637.0,0.011396456654336085
2636.0,0.011396456654336085
2635.0,0.011396456654336085
2634.0,0.011396456654336085
2633.0,0.011441043121384498
2632.0,0.011441043121384498
2631.0,0.011485634166333858
2630.0,0.011441043121384498
2629.0,0.011441043121384498
2628.0,0.011441043121384498
2627.0,0.011485634166333858
2626.0,0.011574829993696856
2625.0,0.011708658092512314
2624.0,0.011753276624621556
2623.0,0.011797899741219142
2622.0,0.011753276624621556
2621.0,0.011708658092512314
2620.0,0.011619434777991433
2619.0,0.011574829993696856
2618.0,0.011530229790124524
2617.0,0.011485634166333858
2616.0,0.011441043121384498
2615.0,0.011441043121384498
2614.0,0.011396456654336085
2613.0,0.011396456654336085
2612.0,0.011351874764248926
2611.0,0.011351874764248926
2610.0,0.011396456654336085
2609.0,0.011441043121384498
2608.0,0.011441043121384498
2607.0,0.011485634166333858
2606.0,0.011441043121384498
2605.0,0.011441043121384498
2604.0,0.011441043121384498
2603.0,0.011396456654336085
2602.0,0.011351874764248926
2601.0,0.011351874764248926
2600.0,0.011396456654336085
2599.0,0.011396456654336085
2598.0,0.011396456654336085
2597.0,0.011351874764248926
2596.0,0.011307297450183107
2595.0,0.011351874764248926
2594.0,0.011441043121384498
2593.0,0.011485634166333858
2592.0,0.011485634166333858
2591.0,0.011485634166333858
2590.0,0.011485634166333858
2589.0,0.011530229790124524
2588.0,0.011619434777991433
2587.0,0.011619434777991433
2586.0,0.011574829993696856
2585.0,0.011530229790124524
2584.0,0.011485634166333858
2583.0,0.011485634166333858
2582.0,0.011530229790124524
2581.0,0.011574829993696856
2580.0,0.011619434777991433
2579.0,0.011619434777991433
2578.0,0.011619434777991433
2577.0,0.011619434777991433
2576.0,0.011619434777991433
2575.0,0.011664044143949504
2574.0,0.011708658092512314
2573.0,0.011708658092512314
2572.0,0.011619434777991433
2571.0,0.011530229790124524
2570.0,0.011441043121384498
2569.0,0.011396456654336085
2568.0,0.011396456654336085
2567.0,0.011441043121384498
2566.0,0.011441043121384498
2565.0,0.011441043121384498
2564.0,0.011396456654336085
2563.0,0.011351874764248926
2562.0,0.011262724711199823
2561.0,0.011218156546359825
2560.0,0.011218156546359825
2559.0,0.011218156546359825
2558.0,0.011218156546359825
2557.0,0.011262724711199823
2556.0,0.011351874764248926
2555.0,0.011396456654336085
2554.0,0.011441043121384498
2553.0,0.011441043121384498
2552.0,0.011441043121384498
2551.0,0.011441043121384498
2550.0,0.011441043121384498
2549.0,0.011441043121384498
2548.0,0.011396456654336085
2547.0,0.011351874764248926
2546.0,0.011307297450183107
2545.0,0.011262724711199823
2544.0,0.011218156546359825
2543.0,0.01117359295472431
2542.0,0.011129033935354915
2541.0,0.011129033935354915
2540.0,0.01117359295472431
2539.0,0.011218156546359825
2538.0,0.01117359295472431
2537.0,0.01117359295472431
2536.0,0.011129033935354915
2535.0,0.01117359295472431
2534.0,0.011218156546359825
2533.0,0.011262724711199823
2532.0,0.011307297450183107
2531.0,0.011307297450183107
2530.0,0.011262724711199823
2529.0,0.011262724711199823
2528.0,0.01117359295472431
2527.0,0.011129033935354915
2526.0,0.011039929609661936
2525.0,0.010995384301463185
2524.0,0.010950843561779777
2523.0,0.010906307389674463
2522.0,0.010906307389674463
2521.0,0.010906307389674463
2520.0,0.010950843561779777
2519.0,0.010995384301463185
2518.0,0.011039929609661936
2517.0,0.011039929609661936
2516.0,0.010995384301463185
2515.0,0.010950843561779777
2514.0,0.010906307389674463
2513.0,0.010906307389674463
2512.0,0.010906307389674463
2511.0,0.01086177578421088
2510.0,0.01077272626946324
2509.0,0.01077272626946324
2508.0,0.01077272626946324
2507.0,0.010728208358306901
2506.0,0.010728208358306901
2505.0,0.010683695010048622
2504.0,0.010639186223752484
2503.0,0.010639186223752484
2502.0,0.010550182333308289
2501.0,0.01046119667949763
2500.0,0.010416710688994968
2499.0,0.010416710688994968
2498.0,0.010416710688994968
2497.0,0.010416710688994968
2496.0,0.01037222925484893
2495.0,0.010327752376126709
2494.0,0.010283280051895272
2493.0,0.010327752376126709
2492.0,0.01037222925484893
2491.0,0.01046119667949763
2490.0,0.010505687227290839
2489.0,0.01046119667949763
2488.0,0.010416710688994968
2487.0,0.01037222925484893
2486.0,0.01037222925484893
2485.0,0.01037222925484893
2484.0,0.01037222925484893
2483.0,0.010327752376126709
2482.0,0.01023881228122181
2481.0,0.010149890396819572
2480.0,0.010105436281226954
2479.0,0.010105436281226954
2478.0,0.010149890396819572
2477.0,0.010149890396819572
2476.0,0.010149890396819572
2475.0,0.010194349063173958
2474.0,0.010283280051895272
2473.0,0.010327752376126709
2472.0,0.010327752376126709
2471.0,0.01023881228122181
2470.0,0.010105436281226954
2469.0,0.010060986715464404
2468.0,0.010060986715464404
2467.0,0.010060986715464404
2466.0,0.010105436281226954
2465.0,0.010060986715464404
2464.0,0.01001654169860089
2463.0,0.009972101229705377
2462.0,0.009927665307847056
2461.0,0.009883233932095559
2460.0,0.009838807101520963
2459.0,0.009838807101520963
2458.0,0.009838807101520963
2457.0,0.009794384815193347
2456.0,0.009794384815193347
2455.0,0.009705553871561357
2454.0,0.00966114521239847
2453.0,0.00966114521239847
2452.0,0.009705553871561357
2451.0,0.00974996707218323
2450.0,0.009838807101520963
2449.0,0.009883233932095559
2448.0,0.009883233932095559
2447.0,0.009794384815193347
2446.0,0.009705553871561357
2445.0,0.00966114521239847
2444.0,0.009616741093766423
2443.0,0.009616741093766423
2442.0,0.009572341514736404
2441.0,0.009616741093766423
2440.0,0.009616741093766423
2439.0,0.00966114521239847
2438.0,0.009705553871561357
2437.0,0.009794384815193347
2436.0,0.009883233932095559
2435.0,0.009927665307847056
2434.0,0.009883233932095559
2433.0,0.009794384815193347
2432.0,0.009705553871561357
2431.0,0.009705553871561357
2430.0,0.00974996707218323
2429.0,0.009794384815193347
2428.0,0.009883233932095559
2427.0,0.009883233932095559
2426.0,0.009883233932095559
2425.0,0.009838807101520963
2424.0,0.009838807101520963
2423.0,0.009838807101520963
2422.0,0.009794384815193347
2421.0,0.00974996707218323
2420.0,0.00966114521239847
2419.0,0.00966114521239847
2418.0,0.009705553871561357
2417.0,0.009794384815193347
2416.0,0.009838807101520963
2415.0,0.009838807101520963
2414.0,0.009838807101520963
2413.0,0.009838807101520963
2412.0,0.009838807101520963
2411.0,0.009883233932095559
2410.0,0.009883233932095559
2409.0,0.009883233932095559
2408.0,0.009838807101520963
2407.0,0.009838807101520963
2406.0,0.009838807101520963
2405.0,0.009838807101520963
2404.0,0.009838807101520963
2403.0,0.009883233932095559
2402.0,0.009883233932095559
2401.0,0.009838807101520963
2400.0,0.009794384815193347
2399.0,0.00974996707218323
2398.0,0.009705553871561357
2397.0,0.009705553871561357
2396.0,0.009705553871561357
2395.0,0.00974996707218323
2394.0,0.009794384815193347
2393.0,0.009883233932095559
2392.0,0.009927665307847056
2391.0,0.01001654169860089
2390.0,0.010060986715464404
2389.0,0.010060986715464404
2388.0,0.010060986715464404
2387.0,0.010060986715464404
2386.0,0.010060986715464404
2385.0,0.010105436281226954
2384.0,0.010105436281226954
2383.0,0.01001654169860089
2382.0,0.009883233932095559
2381.0,0.00966114521239847
2380.0,0.00939478857608056
2379.0,0.009172949432521227
2378.0,0.008995559669244813
2377.0,0.008862564879688284
2376.0,0.008862564879688284
2375.0,0.008995559669244813
2374.0,0.009128595198514056
2373.0,0.009172949432521227
2372.0,0.00908424549391551
2371.0,0.008995559669244813
2370.0,0.008906891951112605
2369.0,0.008862564879688284
2368.0,0.008951223547323472
2367.0,0.009217308196862062
2366.0,0.009527946474380489
2365.0,0.009483555971770974
2364.0,0.008995559669244813
2363.0,0.008198201155356077
2362.0,0.007755855953228474
2361.0,0.008153946355103248
2360.0,0.009172949432521227
2359.0,0.009927665307847056
2358.0,0.009483555971770974
2357.0,0.008242460465651913
2356.0,0.007137328610972382
2355.0,0.006696062080525422
2354.0,0.006607862550997545
2353.0,0.006607862550997545
2352.0,0.006740168563263094
2351.0,0.007093181776687496
2350.0,0.007490664932224611
2349.0,0.00762324020119709
2348.0,0.007490664932224611
2347.0,0.007269796045857202
2346.0,0.007313960837872058
2345.0,0.007667440952535687
2344.0,0.008153946355103248
2343.0,0.008419542825660153
2342.0,0.008109696063975047
2341.0,0.007181479933320523
2340.0,0.005990966876386672
2339.0,0.005155150446602086
2338.0,0.004803708402820517
2337.0,0.004979393875242044
2336.0,0.00541891874010525
2335.0,0.005858888873877532
2334.0,0.005990966876386672
2333.0,0.005814871797682919
2332.0,0.005682847330363394
2331.0,0.00590291041179003
2330.0,0.006431517210272464
2329.0,0.007049039429553483
2328.0,0.007490664932224611
2327.0,0.007667440952535687
2326.0,0.0075790439479759275
2325.0,0.007358130121602358
2324.0,0.007181479933320523
2323.0,0.007137328610972382
2322.0,0.007269796045857202
2321.0,0.007534852191956709
2320.0,0.007888512213050314
2319.0,0.008286724286910463
2318.0,0.008552401996197112
2317.0,0.008640997362049818
2316.0,0.008552401996197112
2315.0,0.008375265465994541
2314.0,0.008153946355103248
2313.0,0.008065450281052211
2312.0,0.008065450281052211
2311.0,0.008153946355103248
2310.0,0.008286724286910463
2309.0,0.008375265465994541
2308.0,0.008463824699968647
2307.0,0.00850811108984062
2306.0,0.00850811108984062
2305.0,0.008463824699968647
2304.0,0.008463824699968647
2303.0,0.008552401996197112
2302.0,0.008685301823389224
2301.0,0.008773924307505121
2300.0,0.008818242332126802
2299.0,0.008862564879688284
2298.0,0.008862564879688284
2297.0,0.008862564879688284
2296.0,0.008862564879688284
2295.0,0.008906891951112605
2294.0,0.008951223547323472
2293.0,0.008995559669244813
2292.0,0.009039900317800775
2291.0,0.009128595198514056
2290.0,0.009172949432521227
2289.0,0.009217308196862062
2288.0,0.009172949432521227
2287.0,0.009039900317800775
2286.0,0.008906891951112605
2285.0,0.008862564879688284
2284.0,0.008862564879688284
2283.0,0.008862564879688284
2282.0,0.008951223547323472
2281.0,0.008995559669244813
2280.0,0.009039900317800775
2279.0,0.009039900317800775
2278.0,0.008995559669244813
2277.0,0.008951223547323472
2276.0,0.008906891951112605
2275.0,0.008862564879688284
2274.0,0.008773924307505121
2273.0,0.008685301823389224
2272.0,0.008640997362049818
2271.0,0.008640997362049818
2270.0,0.008596697419959609
2269.0,0.008596697419959609
2268.0,0.008552401996197112
2267.0,0.00850811108984062
2266.0,0.008463824699968647
2265.0,0.008463824699968647
2264.0,0.008463824699968647
2263.0,0.008552401996197112
2262.0,0.008596697419959609
2261.0,0.008640997362049818
2260.0,0.008640997362049818
2259.0,0.008640997362049818
2258.0,0.008596697419959609
2257.0,0.008596697419959609
2256.0,0.008596697419959609
2255.0,0.008640997362049818
2254.0,0.008596697419959609
2253.0,0.00850811108984062
2252.0,0.008463824699968647
2251.0,0.008419542825660153
2250.0,0.008419542825660153
2249.0,0.008463824699968647
2248.0,0.00850811108984062
2247.0,0.00850811108984062
2246.0,0.008463824699968647
2245.0,0.008419542825660153
2244.0,0.008330992620051436
2243.0,0.008286724286910463
2242.0,0.008198201155356077
2241.0,0.008153946355103248
2240.0,0.008153946355103248
2239.0,0.008198201155356077
2238.0,0.008242460465651913
2237.0,0.008198201155356077
2236.0,0.008109696063975047
2235.0,0.007976972236149349
2234.0,0.007932739972333236
2233.0,0.007932739972333236
2232.0,0.007976972236149349
2231.0,0.008021209005416363
2230.0,0.008065450281052211
2229.0,0.008065450281052211
2228.0,0.008021209005416363
2227.0,0.007976972236149349
2226.0,0.007932739972333236
2225.0,0.007932739972333236
2224.0,0.007888512213050314
2223.0,0.007888512213050314
2222.0,0.007844288957383316
2221.0,0.007755855953228474
2220.0,0.007711646202907652
2219.0,0.007667440952535687
2218.0,0.007667440952535687
2217.0,0.00762324020119709
2216.0,0.00762324020119709
2215.0,0.00762324020119709
2214.0,0.00762324020119709
2213.0,0.007667440952535687
2212.0,0.007667440952535687
2211.0,0.007667440952535687
2210.0,0.00762324020119709
2209.0,0.0075790439479759275
2208.0,0.007534852191956709
2207.0,0.007490664932224611
2206.0,0.0074464821678643656
2205.0,0.007402303897961815
2204.0,0.007269796045857202
2203.0,0.007137328610972382
2202.0,0.007004901568658406
2201.0,0.00696076819309055
2200.0,0.00696076819309055
2199.0,0.007004901568658406
2198.0,0.007004901568658406
2197.0,0.007004901568658406
2196.0,0.007004901568658406
2195.0,0.007049039429553483
2194.0,0.007093181776687496
2193.0,0.007093181776687496
2192.0,0.007049039429553483
2191.0,0.007004901568658406
2190.0,0.006916639301937977
2189.0,0.006872514894289861
2188.0,0.006872514894289861
2187.0,0.006872514894289861
2186.0,0.006872514894289861
2185.0,0.006872514894289861
2184.0,0.006872514894289861
2183.0,0.006916639301937977
2182.0,0.006916639301937977
2181.0,0.006916639301937977
2180.0,0.006916639301937977
2179.0,0.006872514894289861
2178.0,0.006872514894289861
2177.0,0.006872514894289861
2176.0,0.006828394969235152
2175.0,0.006872514894289861
2174.0,0.006872514894289861
2173.0,0.006872514894289861
2172.0,0.006872514894289861
2171.0,0.006872514894289861
2170.0,0.006872514894289861
2169.0,0.006828394969235152
2168.0,0.006872514894289861
2167.0,0.006872514894289861
2166.0,0.006916639301937977
2165.0,0.006916639301937977
2164.0,0.006916639301937977
2163.0,0.006916639301937977
2162.0,0.006916639301937977
2161.0,0.006916639301937977
2160.0,0.006872514894289861
2159.0,0.006872514894289861
2158.0,0.006872514894289861
2157.0,0.006916639301937977
2156.0,0.00696076819309055
2155.0,0.007004901568658406
2154.0,0.007049039429553483
2153.0,0.007049039429553483
2152.0,0.007093181776687496
2151.0,0.007093181776687496
2150.0,0.007093181776687496
2149.0,0.007004901568658406
2148.0,0.00696076819309055
2147.0,0.00696076819309055
2146.0,0.00696076819309055
2145.0,0.007004901568658406
2144.0,0.007049039429553483
2143.0,0.007049039429553483
2142.0,0.007004901568658406
2141.0,0.00696076819309055
2140.0,0.00696076819309055
2139.0,0.00696076819309055
2138.0,0.007004901568658406
2137.0,0.00696076819309055
2136.0,0.006916639301937977
2135.0,0.006916639301937977
2134.0,0.006916639301937977
2133.0,0.006872514894289861
2132.0,0.006916639301937977
2131.0,0.006916639301937977
2130.0,0.00696076819309055
2129.0,0.00696076819309055
2128.0,0.007004901568658406
2127.0,0.007049039429553483
2126.0,0.007049039429553483
2125.0,0.007093181776687496
2124.0,0.007049039429553483
2123.0,0.007049039429553483
2122.0,0.007049039429553483
2121.0,0.007049039429553483
2120.0,0.007049039429553483
2119.0,0.007049039429553483
2118.0,0.007049039429553483
2117.0,0.007004901568658406
2116.0,0.007004901568658406
2115.0,0.007049039429553483
2114.0,0.007137328610972382
2113.0,0.007181479933320523
2112.0,0.007225635744644521
2111.0,0.007269796045857202
2110.0,0.007269796045857202
2109.0,0.007225635744644521
2108.0,0.007137328610972382
2107.0,0.007004901568658406
2106.0,0.00696076819309055
2105.0,0.006872514894289861
2104.0,0.006828394969235152
2103.0,0.006828394969235152
2102.0,0.006828394969235152
2101.0,0.006828394969235152
2100.0,0.006828394969235152
2099.0,0.006872514894289861
2098.0,0.006872514894289861
2097.0,0.006916639301937977
2096.0,0.00696076819309055
2095.0,0.00696076819309055
2094.0,0.006916639301937977
2093.0,0.006828394969235152
2092.0,0.006740168563263094
2091.0,0.006696062080525422
2090.0,0.006696062080525422
2089.0,0.006696062080525422
2088.0,0.006696062080525422
2087.0,0.006651960076740071
2086.0,0.006607862550997545
2085.0,0.006519680930003435
2084.0,0.006475596832934416
2083.0,0.006475596832934416
2082.0,0.006431517210272464
2081.0,0.006387442061109638
2080.0,0.006343371384537999
2079.0,0.006343371384537999
2078.0,0.006299305179649828
2077.0,0.006299305179649828
2076.0,0.00625524344553785
2075.0,0.00625524344553785
2074.0,0.006167133386013823
2073.0,0.006035001804881146
2072.0,0.00590291041179003
2071.0,0.005858888873877532
2070.0,0.005814871797682919
2069.0,0.00577085918230158
2068.0,0.00577085918230158
2067.0,0.005726851026829571
2066.0,0.005638848091999105
2065.0,0.005506877116487674
2064.0,0.00541891874010525
2063.0,0.00537494623139545
2062.0,0.00537494623139545
2061.0,0.00537494623139545
2060.0,0.005330978174470591
2059.0,0.0052870145684298375
2058.0,0.005243055412371911
2057.0,0.005155150446602086
2056.0,0.005111204635089406
2055.0,0.005111204635089406
2054.0,0.005067263269958211
2053.0,0.005067263269958211
2052.0,0.004979393875242044
2051.0,0.00489154225525934
2050.0,0.004803708402820517
2049.0,0.004759798137184523
2048.0,0.004759798137184523
2047.0,0.004715892310740433
2046.0,0.004715892310740433
2045.0,0.004759798137184523
2044.0,0.004759798137184523
2043.0,0.004715892310740433
2042.0,0.004628093971837721
2041.0,0.0044964297349936455
2040.0,0.004408675747646695
2039.0,0.0043648054024501
2038.0,0.004408675747646695
2037.0,0.004408675747646695
2036.0,0.004452550524862486
2035.0,0.004452550524862486
2034.0,0.004408675747646695
2033.0,0.0043648054024501
2032.0,0.004320939488377862
2031.0,0.004320939488377862
2030.0,0.004320939488377862
2029.0,0.004277078004534696
2028.0,0.004277078004534696
2027.0,0.004277078004534696
2026.0,0.004277078004534696
2025.0,0.004277078004534696
2024.0,0.004189368323957332
2023.0,0.004101676353562844
2022.0,0.00401400208620073
2021.0,0.003970171588923321
2020.0,0.003970171588923321
2019.0,0.003970171588923321
2018.0,0.003970171588923321
2017.0,0.003926345514724705
2016.0,0.003926345514724705
2015.0,0.003926345514724705
2014.0,0.003926345514724705
2013.0,0.003970171588923321
2012.0,0.0040578370074493275
2011.0,0.004101676353562844
2010.0,0.004101676353562844
2009.0,0.0040578370074493275
2008.0,0.00401400208620073
2007.0,0.00401400208620073
2006.0,0.00401400208620073
2005.0,0.00401400208620073
2004.0,0.00401400208620073
2003.0,0.0040578370074493275
2002.0,0.004101676353562844
2001.0,0.004145520125434121
2000.0,0.004233220950025984
1999.0,0.004320939488377862
1998.0,0.0043648054024501
1997.0,0.004408675747646695
1996.0,0.004408675747646695
1995.0,0.004452550524862486
1994.0,0.0044964297349936455
1993.0,0.004452550524862486
1992.0,0.004408675747646695
1991.0,0.004320939488377862
1990.0,0.004277078004534696
1989.0,0.004277078004534696
1988.0,0.004320939488377862
1987.0,0.004408675747646695
1986.0,0.004408675747646695
1985.0,0.004452550524862486
1984.0,0.0044964297349936455
1983.0,0.004540313378935901
1982.0,0.004540313378935901
1981.0,0.00458420145758498
1980.0,0.004628093971837721
1979.0,0.004715892310740433
1978.0,0.004759798137184523
1977.0,0.004803708402820517
1976.0,0.004803708402820517
1975.0,0.004803708402820517
1974.0,0.004803708402820517
1973.0,0.004803708402820517
1972.0,0.004803708402820517
1971.0,0.00484762310854614
1970.0,0.00484762310854614
1969.0,0.004935465843858511
1968.0,0.005023326350308999
1967.0,0.005199100705396198
1966.0,0.00537494623139545
1965.0,0.005506877116487674
1964.0,0.005682847330363394
1963.0,0.005858888873877532
1962.0,0.006079041198713275
1961.0,0.00621118618129457
1960.0,0.006299305179649828
1959.0,0.006343371384537999
1958.0,0.006387442061109638
1957.0,0.006431517210272464
1956.0,0.006431517210272464
1955.0,0.006475596832934416
1954.0,0.006475596832934416
1953.0,0.006431517210272464
1952.0,0.006343371384537999
1951.0,0.00625524344553785
1950.0,0.00612308505878878
1949.0,0.006035001804881146
1948.0,0.005990966876386672
1947.0,0.00590291041179003
1946.0,0.005814871797682919
1945.0,0.005638848091999105
1944.0,0.00541891874010525
1943.0,0.005155150446602086
1942.0,0.00489154225525934
1941.0,0.004671990922590297
1940.0,0.004540313378935901
1939.0,0.0044964297349936455
1938.0,0.004452550524862486
1937.0,0.004320939488377862
1936.0,0.004189368323957332
1935.0,0.00401400208620073
1934.0,0.0038825238627120395
1933.0,0.0036634819042162814
1932.0,0.0035321097382827737
1931.0,0.0033570086445275926
1930.0,0.0032257291386954545
1929.0,0.0030944893043338695
1928.0,0.0029632891174733444
1927.0,0.0028758443407954637
1926.0,0.0027884171674950053
1925.0,0.0026573093983774942
1924.0,0.0025262411970197185
1923.0,0.0022642234021015284
1922.0,0.0020023635919956817
1921.0,0.0017842676290416026
1920.0,0.0017406615763013722
1919.0,0.0017842676290416026
1918.0,0.0017406615763013722
1917.0,0.0016534626036355249
1916.0,0.0015226969634936083
1915.0,0.0014791171649619628
1914.0,0.0014791171649619628
1913.0,0.0014791171649619628
1912.0,0.0014355417390583547
1911.0,0.001348404001626502
1910.0,0.0012612837441823288
1909.0,0.0011741809597138886
1908.0,0.0010435595295137379
1907.0,0.0009565003968372565
1906.0,0.0009129773741116676
1905.0,0.000869458712629001
1904.0,0.0007824344698965646
1903.0,0.0007389288868995258
1902.0,0.0006519307932786322
1901.0,0.0005649501236701937
1900.0,0.0004779868710962365
1899.0,0.0003910410285830057
1898.0,0.00030411258916074324
1897.0,0.00017375254558760211
1896.0,0.0
1895.0,-8.685021164911433e-05
1894.0,-0.00017368305846510168
1893.0,-0.0002604985473904087
1892.0,-0.0002604985473904087
1891.0,-0.00021709297223004853
1890.0,-0.0002604985473904087
1889.0,-0.00043407747931878404
1888.0,-0.0005642161653756084
1887.0,-0.0005642161653756084
1886.0,-0.0005208409361854294
1885.0,-0.0004774613744551459
1884.0,-0.0004774613744551459
1883.0,-0.0004774613744551459
1882.0,-0.0005208409361854294
1881.0,-0.0005208409361854294
1880.0,-0.0005642161653756084
1879.0,-0.0006509536295951079
1878.0,-0.0006943158663546001
1877.0,-0.0008243766056055257
1876.0,-0.0008677215312267172
1875.0,-0.0009110621312231615
1874.0,-0.0009543984064577238
1873.0,-0.001041057986093552
1872.0,-0.0010843812922201046
1871.0,-0.0011277002770349043
1870.0,-0.00121432528617893
1869.0,-0.0013875234866409514
1868.0,-0.0016039241497978196
1867.0,-0.001733712809000476
1866.0,-0.0016904542321527494
1865.0,-0.0016039241497978196
1864.0,-0.0015173768235041685
1863.0,-0.0014308122463981832
1862.0,-0.0013875234866409514
1861.0,-0.0014308122463981832
1860.0,-0.0014308122463981832
1859.0,-0.0014308122463981832
1858.0,-0.0013875234866409514
1857.0,-0.0014308122463981832
1856.0,-0.0014308122463981832
1855.0,-0.0013875234866409514
1854.0,-0.001344230411601366
1853.0,-0.0013009330204178937
1852.0,-0.001257631312230778
1851.0,-0.0011277002770349043
1850.0,-0.0010843812922201046
1849.0,-0.0010843812922201046
1848.0,-0.0011710149414008164
1847.0,-0.0011710149414008164
1846.0,-0.0011277002770349043
1845.0,-0.0010843812922201046
1844.0,-0.0011277002770349043
1843.0,-0.0011710149414008164
1842.0,-0.0011710149414008164
1841.0,-0.0009977303577937136
1840.0,-0.0007810273534953893
1839.0,-0.0005642161653756084
1838.0,-0.00043407747931878404
1837.0,-0.0003472966853634851
1836.0,-0.00030389978481260016
1835.0,-0.00017368305846510168
1834.0,-4.3427276862573194e-05
1833.0,4.343161980746579e-05
1832.0,0.00017375254558760211
1831.0,0.00030411258916074324
1830.0,0.0003475746339209884
1829.0,0.00017375254558760211
1828.0,8.686758342868472e-05
1827.0,0.0001303078917322953
1826.0,0.00026065489343207737
1825.0,0.00026065489343207737
1824.0,0.00017375254558760211
1823.0,0.00017375254558760211
1822.0,0.00026065489343207737
1821.0,0.0003910410285830057
1820.0,0.0004779868710962365
1819.0,0.0006084382809090627
1818.0,0.0006954276616513155
1817.0,0.0006084382809090627
1816.0,0.0004779868710962365
1815.0,0.00043451177401765406
1814.0,0.0003910410285830057
1813.0,0.00026065489343207737
1812.0,0.00017375254558760211
1811.0,4.343161980746579e-05
1810.0,-4.3427276862573194e-05
1809.0,-0.00017368305846510168
1808.0,-0.0002604985473904087
1807.0,-0.00017368305846510168
1806.0,-0.00013026880522692963
1805.0,-0.00017368305846510168
1804.0,-0.0002604985473904087
1803.0,-0.0003906892499099257
1802.0,-0.0005642161653756084
1801.0,-0.0007810273534953893
1800.0,-0.0009110621312231615
1799.0,-0.0008677215312267172
1798.0,-0.0007376737740329986
1797.0,-0.0007376737740329986
1796.0,-0.0007376737740329986
1795.0,-0.0007376737740329986
1794.0,-0.0007376737740329986
1793.0,-0.0008243766056055257
1792.0,-0.0009543984064577238
1791.0,-0.0010843812922201046
1790.0,-0.0010843812922201046
1789.0,-0.0009543984064577238
1788.0,-0.0007810273534953893
1787.0,-0.0006509536295951079
1786.0,-0.0006075870628903246
1785.0,-0.0006943158663546001
1784.0,-0.0008243766056055257
1783.0,-0.0007810273534953893
1782.0,-0.0006943158663546001
1781.0,-0.0006943158663546001
1780.0,-0.0007376737740329986
1779.0,-0.0006943158663546001
1778.0,-0.0005642161653756084
1777.0,-0.0005208409361854294
1776.0,-0.00043407747931878404
1775.0,-0.0002604985473904087
1774.0,-8.685021164911433e-05
1773.0,0.0
1772.0,0.0
1771.0,8.686758342868472e-05
1770.0,0.00026065489343207737
1769.0,0.00043451177401765406
1768.0,0.0006954276616513155
1767.0,0.0010870956412141197
1766.0,0.0014791171649619628
1765.0,0.0018714928717336043
1764.0,0.0023078820582733695
1763.0,0.0028758443407954637
1762.0,0.0034007772998332353
1761.0,0.0036634819042162814
1760.0,0.003970171588923321
1759.0,0.004671990922590297
1758.0,0.005682847330363394
1757.0,0.006651960076740071
1756.0,0.00762324020119709
1755.0,0.008685301823389224
1754.0,0.009883233932095559
1753.0,0.01117359295472431
1752.0,0.012870232340102872
1751.0,0.01538268676325183
1750.0,0.01845319495476394
1749.0,0.021865152601710403
1748.0,0.025902996205869
1747.0,0.03058408764601861
1746.0,0.035693217696063595
1745.0,0.041436116778032606
1744.0,0.04817696468408794
1743.0,0.05561604235915585
1742.0,0.06343599486473406
1741.0,0.07237303755504598
1740.0,0.0832303157168639
1739.0,0.09409623378338305
1738.0,0.1022080180607754
1737.0,0.10796107965870849
1736.0,0.1148084593931522
1735.0,0.1281352979118051
1734.0,0.14733705565543076
1733.0,0.16272729749769965
1732.0,0.17282465170130723
1731.0,0.18309616062433975
1730.0,0.19579239491795852
1729.0,0.20950372303289044
1728.0,0.222500680409635
1727.0,0.23492779889720805
1726.0,0.24779784682347894
1725.0,0.26217149410421525
1724.0,0.2781893847874535
1723.0,0.2941362877160807
1722.0,0.3073293008436311
1721.0,0.31650268232018863
1720.0,0.32477174640693596
1719.0,0.3392293564723028
1718.0,0.3638131048012756
1717.0,0.38817052050162637
1716.0,0.40088143494463724
1715.0,0.4047242881979005
1714.0,0.4028535121663046
1713.0,0.39437177799238143
1712.0,0.3801764995427219
1711.0,0.3629107264696696
1710.0,0.34457341225408133
1709.0,0.325414397697086
1708.0,0.30539480106643135
1707.0,0.2846653162076871
1706.0,0.26432127409409545
1705.0,0.24618721643529784
1704.0,0.23091821288178105
1703.0,0.21745571598998992
1702.0,0.20391157131933157
1701.0,0.18943147078358713
1700.0,0.17626501160126873
1699.0,0.16647041824135633
1698.0,0.15864052954514496
1697.0,0.15088783381542248
1696.0,0.14290884532648618
1695.0,0.13584504399797437
1694.0,0.13024040521758962
1693.0,0.12563416426995122
1692.0,0.1213058996038916
1691.0,0.11684980031672243
1690.0,0.11272036546997688
1689.0,0.10924374808178183
1688.0,0.1060718734573931
1687.0,0.1028679566179056
1686.0,0.09985143928065598
1685.0,0.0978882765519955
1684.0,0.09691001300805646
1683.0,0.09496007192378841
1682.0,0.09237369515673355
1681.0,0.08985603893548699
1680.0,0.08740600224789441
1679.0,0.08491689834879956
1678.0,0.08244197917456386
1677.0,0.08018997982980403
1676.0,0.07810552907089763
1675.0,0.0760310351245288
1674.0,0.07396640332115534
1673.0,0.07191154033502922
1672.0,0.07001940948448526
1671.0,0.06823711151882228
1670.0,0.0666645899223488
1669.0,0.06514819703433927
1668.0,0.06348625752110681
1667.0,0.06173051653708872
1666.0,0.05998184499233683
1665.0,0.05824018618530458
1664.0,0.05650548409389744
1663.0,0.054876229877880656
1662.0,0.05340037498486727
1661.0,0.05207638016827354
1660.0,0.05075640943173498
1659.0,0.04948910701400333
1658.0,0.04817696468408794
1657.0,0.04677202844014605
1656.0,0.04527520902093718
1655.0,0.043735497301724546
1654.0,0.043063586155803746
1653.0,0.0431115453499229
1652.0,0.042201225070002124
1651.0,0.041006334969674096
1650.0,0.04019568349166214
1649.0,0.03957679292217042
1648.0,0.03905380426616856
1647.0,0.038673844065289176
1646.0,0.038199360808321536
1645.0,0.03763066432997886
1644.0,0.0371100126082089
1643.0,0.03658998431977123
1642.0,0.0360705779734416
1641.0,0.03555179208333925
1640.0,0.0349394793888016
1639.0,0.03414006319292828
1638.0,0.03338901331806565
1637.0,0.032873418923587305
1636.0,0.03273290844021437
1635.0,0.03245202378113787
1634.0,0.032031037121307726
1633.0,0.031657169041054534
1632.0,0.03133029827960798
1631.0,0.030957032694186815
1630.0,0.03058408764601861
1629.0,0.03025802323714588
1628.0,0.029885677714903025
1627.0,0.02932775731028059
1626.0,0.028770552723758724
1625.0,0.028353117935693284
1624.0,0.028167720075074953
1623.0,0.028075050815808744
1622.0,0.027889771597169544
1621.0,0.0277045713888604
1620.0,0.027565723042634938
1619.0,0.027658283674251827
1618.0,0.028167720075074953
1617.0,0.029234840219232394
1616.0,0.029978734171634214
1615.0,0.030071810571884017
1614.0,0.029839156962686353
1613.0,0.02960662792039992
1612.0,0.029281296279810798
1611.0,0.02872415126189476
1610.0,0.028075050815808744
1609.0,0.027334407733889066
1608.0,0.02654885597506529
1607.0,0.025764722556973707
1606.0,0.02498200236711723
1605.0,0.024246610963712723
1604.0,0.02351246269481
1603.0,0.02282532397981263
1602.0,0.022139270735302752
1601.0,0.0214542995372613
1600.0,0.020907099361673565
1599.0,0.020406104151069693
1598.0,0.019996628416253603
1597.0,0.019632973815224997
1596.0,0.019315025636685412
1595.0,0.018951941086827073
1594.0,0.018679826740892747
1593.0,0.018543833477873584
1592.0,0.01845319495476394
1591.0,0.01845319495476394
1590.0,0.018498511851753108
1589.0,0.018634490921455527
1588.0,0.018770512579999288
1587.0,0.01899731005860028
1586.0,0.01940584422377989
1585.0,0.02013307743509718
1584.0,0.0211806132671577
1583.0,0.02255077261765881
1582.0,0.02406295751688936
1581.0,0.025488307262671706
1580.0,0.026595025589939425
1579.0,0.027195677663422346
1578.0,0.027334407733889066
1577.0,0.02691835039863255
1576.0,0.025902996205869
1575.0,0.024430342106337877
1574.0,0.023100049017062307
1573.0,0.02204787879853809
1572.0,0.021089422824428272
1571.0,0.02004210665933459
1570.0,0.01899731005860028
1569.0,0.018045555530026514
1568.0,0.017231422748988034
1567.0,0.016644385668211692
1566.0,0.016193358021584725
1565.0,0.015742798294583915
1564.0,0.015292705517326866
1563.0,0.014753209197138295
1562.0,0.014259258949925524
1561.0,0.013765869865004277
1560.0,0.013631406429727155
1559.0,0.013631406429727155
1558.0,0.012825498912458322
1557.0,0.012199714248127602
1556.0,0.01215504982870197
1555.0,0.012110390002254778
1554.0,0.012021084124518078
1553.0,0.011842527443247208
1552.0,0.011619434777991433
1551.0,0.011396456654336085
1550.0,0.01117359295472431
1549.0,0.010950843561779777
1548.0,0.01077272626946324
1547.0,0.010550182333308289
1546.0,0.010283280051895272
1545.0,0.009883233932095559
1544.0,0.009483555971770974
1543.0,0.009039900317800775
1542.0,0.008818242332126802
1541.0,0.008862564879688284
1540.0,0.008906891951112605
1539.0,0.008640997362049818
1538.0,0.008419542825660153
1537.0,0.008552401996197112
1536.0,0.0087296108049002
1535.0,0.008995559669244813
1534.0,0.009261671492462709
1533.0,0.009483555971770974
1532.0,0.009527946474380489
1531.0,0.009572341514736404
1530.0,0.009705553871561357
1529.0,0.009883233932095559
1528.0,0.009927665307847056
1527.0,0.009794384815193347
1526.0,0.009572341514736404
1525.0,0.00939478857608056
1524.0,0.009261671492462709
1523.0,0.009039900317800775
1522.0,0.008640997362049818
1521.0,0.008021209005416363
1520.0,0.007358130121602358
1519.0,0.007137328610972382
1518.0,0.007181479933320523
1517.0,0.007358130121602358
1516.0,0.0074464821678643656
1515.0,0.0075790439479759275
1514.0,0.008065450281052211
1513.0,0.008862564879688284
1512.0,0.009972101229705377
1511.0,0.011262724711199823
1510.0,0.012914970375878188
1509.0,0.015562705203923999
1508.0,0.0211806132671577
1507.0,0.029746130405213123
1506.0,0.03517488211661135
1505.0,0.03555179208333925
1504.0,0.03338901331806565
1503.0,0.029885677714903025
1502.0,0.025810808881832736
1501.0,0.02168250325324883
1500.0,0.017955020928509757
1499.0,0.014753209197138295
1498.0,0.012110390002254778
1497.0,0.010105436281226954
1496.0,0.008685301823389224
1495.0,0.007800070204414977
1494.0,0.007358130121602358
1493.0,0.007269796045857202
1492.0,0.007358130121602358
1491.0,0.007358130121602358
1490.0,0.0074464821678643656
1489.0,0.007844288957383316
1488.0,0.008640997362049818
1487.0,0.009616741093766423
1486.0,0.01077272626946324
1485.0,0.012021084124518078
1484.0,0.013317820220494436
1483.0,0.014663358264387139
1482.0,0.016193358021584725
1481.0,0.017774008325325275
1480.0,0.0192242260373785
1479.0,0.020406104151069693
1478.0,0.021499930688540836
1477.0,0.022642270454698687
1476.0,0.023695883447997224
1475.0,0.024568191490736968
1474.0,0.02539620791296726
1473.0,0.02613355016462182
1472.0,0.026410376572743033
1471.0,0.02613355016462182
1470.0,0.025718641122169483
1469.0,0.02539620791296726
1468.0,0.02512002699306959
1467.0,0.024936003904763915
1466.0,0.02512002699306959
1465.0,0.025810808881832736
1464.0,0.02664120011360227
1463.0,0.027288159452933503
1462.0,0.027843464140506313
1461.0,0.028306761050139073
1460.0,0.028677754757187035
1459.0,0.029095501846216454
1458.0,0.03002526987828502
1457.0,0.031096969696171817
1456.0,0.03142366482450232
1455.0,0.03137697904301118
1454.0,0.03137697904301118
1453.0,0.03137697904301118
1452.0,0.03105031901865729
1451.0,0.030444315779156517
1450.0,0.029653123769906697
1449.0,0.02890978686288448
1448.0,0.028167720075074953
1447.0,0.02751945012352408
1446.0,0.027010773144651168
1445.0,0.02664120011360227
1444.0,0.026318081496016443
1443.0,0.025949097207122573
1442.0,0.02553436426275746
1441.0,0.025028005701930978
1440.0,0.02438440203310499
1439.0,0.023604163388120325
1438.0,0.02259651912656535
1437.0,0.021271822861508305
1436.0,0.019723858922159776
1435.0,0.018226681372252695
1434.0,0.017005545341335804
1433.0,0.015832872853011715
1432.0,0.014573525916998342
1431.0,0.01318349541446362
1430.0,0.011887159731648111
1429.0,0.010817248744452446
1428.0,0.010060986715464404
1427.0,0.009616741093766423
1426.0,0.009350411681145587
1425.0,0.009350411681145587
1424.0,0.00966114521239847
1423.0,0.010194349063173958
1422.0,0.010995384301463185
1421.0,0.012289056869694281
1420.0,0.014753209197138295
1419.0,0.018815862601645694
1418.0,0.023879381700184332
1417.0,0.029885677714903025
1416.0,0.0371100126082089
1415.0,0.04580574818413763
1414.0,0.055961719945581745
1413.0,0.06747550294945781
1412.0,0.07956359344924135
1411.0,0.09028354676565531
1410.0,0.09799710864927058
1409.0,0.10198826120249849
1408.0,0.10193333935836524
1407.0,0.09777947172068524
1406.0,0.09023008526723086
1405.0,0.08102656950704579
1404.0,0.0720140529005715
1403.0,0.06429125215733666
1402.0,0.05794231615860479
1401.0,0.05232126006306337
1400.0,0.04696554274964315
1399.0,0.04200982159316968
1398.0,0.03782014709123227
1397.0,0.03456310022373987
1396.0,0.03184406285002961
1395.0,0.029374223311705583
1394.0,0.02747318213414429
1393.0,0.026271941311972746
1392.0,0.02558042614771394
1391.0,0.025028005701930978
1390.0,0.024476287039668643
1389.0,0.023879381700184332
1388.0,0.02351246269481
1387.0,0.023329119375188556
1386.0,0.023374947949272418
1385.0,0.02365002099672653
1384.0,0.024108863598207186
1383.0,0.024568191490736968
1382.0,0.025028005701930978
1381.0,0.025488307262671706
1380.0,0.026041313893296225
1379.0,0.02664120011360227
1378.0,0.02724191609646076
1377.0,0.027936083991977778
1376.0,0.028677754757187035
1375.0,0.029560137048236124
1374.0,0.030397735151460825
1373.0,0.03105031901865729
1372.0,0.03142366482450232
1371.0,0.03151705144606498
1370.0,0.031143625385307683
1369.0,0.03030458888152676
1368.0,0.029002634427514717
1367.0,0.027288159452933503
1366.0,0.02544225514642018
1365.0,0.023466619608062178
1364.0,0.0214542995372613
1363.0,0.01949668180660491
1362.0,0.017909760704207134
1361.0,0.016960383953898095
1360.0,0.016509028184833463
1359.0,0.016418813294209356
1358.0,0.016554142658660398
1357.0,0.016960383953898095
1356.0,0.01768353030793479
1355.0,0.018634490921455527
1354.0,0.01990568621470623
1353.0,0.02159120737696063
1352.0,0.023833499868024743
1351.0,0.026687379547098322
1350.0,0.03030458888152676
1349.0,0.03489241415094413
1348.0,0.04057697805689475
1347.0,0.04740126547022694
1346.0,0.055566682299785564
1345.0,0.06489597884855036
1344.0,0.07473949048056472
1343.0,0.08433639649422697
1342.0,0.09291125492570451
1341.0,0.09996076451267522
1340.0,0.10457745396059215
1339.0,0.10551778498990938
1338.0,0.10242788617426934
1337.0,0.09593394808549704
1336.0,0.0870343792958963
1335.0,0.07670415934449615
1334.0,0.06580465065211571
1333.0,0.05541863577307371
1332.0,0.046143701775014145
1331.0,0.038531444649213764
1330.0,0.032686081712916426
1329.0,0.02849221828874393
1328.0,0.02562649291857677
1327.0,0.023925268380126097
1326.0,0.02314585342378117
1325.0,0.02296266477531872
1324.0,0.023191662661933732
1323.0,0.023787622882622816
1322.0,0.02461415101053266
1321.0,0.02553436426275746
1320.0,0.02664120011360227
1319.0,0.027843464140506313
1318.0,0.029141943003497595
1317.0,0.030537492025363155
1316.0,0.032031037121307726
1315.0,0.03362357691107709
1314.0,0.03541041251009669
1313.0,0.03739392707587297
1312.0,0.03952922246570112
1311.0,0.0417706858116178
1310.0,0.04402377775167454
1309.0,0.04643358574299339
1308.0,0.048808242065293994
1307.0,0.05119595406718891
1306.0,0.053449489430144714
1305.0,0.05571477931124735
1304.0,0.05814087347462649
1303.0,0.06078036414518184
1302.0,0.06378795567975115
1301.0,0.06727263269847072
1300.0,0.07124579782334672
1299.0,0.07572071393811841
1298.0,0.08045124103115198
1297.0,0.0854453014823664
1296.0,0.09060445403289452
1295.0,0.09571734235437201
1294.0,0.10072681268239614
1293.0,0.10562854614376227
1292.0,0.11047420332880886
1291.0,0.11520463605101905
1290.0,0.11970100857424737
1289.0,0.12424442074194553
1288.0,0.1287190271420271
1287.0,0.13300418688935212
1286.0,0.1370342410222376
1285.0,0.1409217752530305
1284.0,0.1447838052666366
1283.0,0.14855818532794496
1282.0,0.15224231160766877
1281.0,0.1560823619936076
1280.0,0.1600822243213189
1279.0,0.16418264570652719
1278.0,0.16857818293497795
1277.0,0.17340694606595197
1276.0,0.1789452449531117
1275.0,0.1850203162392432
1274.0,0.19178902707577805
1273.0,0.19955787866374353
1272.0,0.20844969497266996
1271.0,0.2181010806488508
1270.0,0.22841251911874472
1269.0,0.2393513804186438
1268.0,0.2508049577803275
1267.0,0.2624098337142784
1266.0,0.27384353382724513
1265.0,0.2850000325879576
1264.0,0.29550630299070124
1263.0,0.30495634117870596
1262.0,0.3130957304318227
1261.0,0.32020882901964565
1260.0,0.3261500226570506
1259.0,0.3307761260691944
1258.0,0.3342314492806202
1257.0,0.3376199799837525
1256.0,0.34141628459293716
1255.0,0.34563090902471405
1254.0,0.3503731131594705
1253.0,0.3561526897002858
1252.0,0.3630108981877709
1251.0,0.3702846673528677
1250.0,0.3776823391661557
1249.0,0.3855246339096048
1248.0,0.3932962586663258
1247.0,0.40033522121158316
1246.0,0.4061603389187287
1245.0,0.4104972037362362
1244.0,0.4133001983759508
1243.0,0.4135252214286034
1242.0,0.410944468947656
1241.0,0.4061603389187287
1240.0,0.39913596369016036
1239.0,0.38965928854784315
1238.0,0.37820077599733226
1237.0,0.365421977146112
1236.0,0.3520305416370282
1235.0,0.33799812061008283
1234.0,0.3238553196437939
1233.0,0.3102473038608433
1232.0,0.2974833025618495
1231.0,0.2852512392749402
1230.0,0.27368038788922466
1229.0,0.263046046216854
1228.0,0.25313237214957063
1227.0,0.24366823267894233
1226.0,0.2347040703019434
1225.0,0.22621355501880647
1224.0,0.21817284706757212
1223.0,0.2102078322693246
1222.0,0.20231706508510094
1221.0,0.19456711186786002
1220.0,0.18695303483989223
1219.0,0.17933886535640453
1218.0,0.17166239994099564
1217.0,0.16424603248061653
1216.0,0.15701652987778258
1215.0,0.15002808767114995
1214.0,0.14345235514325205
1213.0,0.1373320497714121
1212.0,0.13170831198214428
1211.0,0.12644690648638135
1210.0,0.12147820449879343
1209.0,0.11684980031672243
1208.0,0.1125514997500463
1207.0,0.10840679565103484
1206.0,0.10441172433373724
1205.0,0.1005078038618683
1204.0,0.09674718310604158
1203.0,0.09318028453345462
1202.0,0.08980263003399913
1201.0,0.08661005636824437
1200.0,0.08359869639612438
1199.0,0.08066036321258663
1198.0,0.0777417765670334
1197.0,0.07489427319033615
1196.0,0.07216786713341827
1195.0,0.06950943469373039
1194.0,0.06696850489759454
1193.0,0.06459351024765114
1192.0,0.062381820606176586
1191.0,0.06038092104330195
1190.0,0.05858795962645047
1189.0,0.057000406633959555
1188.0,0.05571477931124735
1187.0,0.054679159207724926
1186.0,0.05389176956309405
1185.0,0.053449489430144714
1184.0,0.05340037498486727
1183.0,0.05374429280060267
1182.0,0.05443294655761144
1181.0,0.05541863577307371
1180.0,0.05660442349104544
1179.0,0.05784307153250956
1178.0,0.059035506507200575
1177.0,0.060131455540490375
1176.0,0.060880282351513104
1175.0,0.06118017497378969
1174.0,0.06083032037482261
1173.0,0.05988213325228142
1172.0,0.0582898510583536
1171.0,0.056159373598738904
1170.0,0.05369514500652506
1169.0,0.05114709380028648
1168.0,0.048808242065293994
1167.0,0.04677202844014605
1166.0,0.04513062893352182
1165.0,0.0439276630048171
1164.0,0.04315950984076644
1163.0,0.04272802000705722
1162.0,0.042584285277331047
1161.0,0.042584285277331047
1160.0,0.04282386959515394
1159.0,0.04315950984076644
1158.0,0.04363944632667782
1157.0,0.044312249686494276
1156.0,0.0451788169482068
1155.0,0.04628861957244457
1154.0,0.04774046340917959
1153.0,0.04948910701400333
1152.0,0.05148923116234294
1151.0,0.05374429280060267
1150.0,0.05620880107069848
1149.0,0.05898575629443026
1148.0,0.06203099704854709
1147.0,0.0653500770992892
1146.0,0.0690000580438479
1145.0,0.0729891310243489
1144.0,0.07727454200674
1143.0,0.08186477383364066
1142.0,0.0867160982395816
1141.0,0.09183679994445204
1140.0,0.09729018703012282
1139.0,0.10308815917397474
1138.0,0.10935546370475246
1137.0,0.11611154211151953
1136.0,0.12349349573411894
1135.0,0.1314731132317961
1134.0,0.1400815147992842
1133.0,0.14929251462546267
1132.0,0.1588909155318461
1131.0,0.16870625562299035
1130.0,0.1785519809824696
1129.0,0.18842499412940672
1128.0,0.19832194096410682
1127.0,0.2081690523251638
1126.0,0.21774242633669827
1125.0,0.22709180502872828
1124.0,0.23604817396667577
1123.0,0.24443001937120012
1122.0,0.25188953250501633
1121.0,0.2584544832237907
1120.0,0.2638426247268679
1119.0,0.26736503246080434
1118.0,0.2690563065722642
1117.0,0.2689756201843121
1116.0,0.2675258227188064
1115.0,0.264880365918128
1114.0,0.2619332852225307
1113.0,0.2597952644925503
1112.0,0.2596373105057561
1111.0,0.261774551857495
1110.0,0.26640153903866093
1109.0,0.27368038788922466
1108.0,0.28316227670047556
1107.0,0.2939653392856494
1106.0,0.30548254618884374
1105.0,0.317223353685566
1104.0,0.3286419965565084
1103.0,0.3389449151466213
1102.0,0.34775365899667676
1101.0,0.35536449623184696
1100.0,0.3617104645857432
1099.0,0.3662286539174444
1098.0,0.36896230346325964
1097.0,0.36997914888659
1096.0,0.369470428573176
1095.0,0.36703683183273883
1094.0,0.36271045232182564
1093.0,0.3570411205902093
1092.0,0.35056777675838346
1091.0,0.3432312207339834
1090.0,0.3353580244438745
1089.0,0.3274403722367243
1088.0,0.3195738291418546
1087.0,0.31149119234347866
1086.0,0.3033815407677751
1085.0,0.29542055030370085
1084.0,0.2876028685932852
1083.0,0.2793446434482756
1082.0,0.2705922030369319
1081.0,0.2613779720820575
1080.0,0.25173442733125917
1079.0,0.24161805822532467
1078.0,0.23113999915704286
1077.0,0.22069217241641415
1076.0,0.21063084640851826
1075.0,0.20072839165012724
1074.0,0.1912490276504053
1073.0,0.18250073813224166
1072.0,0.1745089701205691
1071.0,0.16698045292346864
1070.0,0.159956669396506
1069.0,0.15335367142288248
1068.0,0.1472151313194523
1067.0,0.1415831222765116
1066.0,0.13655817138629134
1065.0,0.1322379753497993
1064.0,0.12842706445412122
1063.0,0.1249387366082999
1062.0,0.12159311241900439
1061.0,0.11844417020668851
1060.0,0.11554450392951199
1059.0,0.11288929687511629
1058.0,0.1106422631110684
1057.0,0.10890877353227624
1056.0,0.10773839308446487
1055.0,0.10695988804288215
1054.0,0.10646015643533868
1053.0,0.1062937069352865
1052.0,0.10651565378151395
1051.0,0.10701544928928342
1050.0,0.10762709260156367
1049.0,0.10835105612944096
1048.0,0.10918790104487552
1047.0,0.1098585399354226
1046.0,0.11041819785037621
1045.0,0.11081038795292675
1044.0,0.11097857790477517
1043.0,0.11081038795292675
1042.0,0.11013827874181148
1041.0,0.10907622851098608
1040.0,0.10762709260156367
1039.0,0.10590557267730127
1038.0,0.10413564875270076
1037.0,0.10242788617426934
1036.0,0.10078158214862709
1035.0,0.0990869322623309
1034.0,0.09734452478207412
1033.0,0.09566320779750503
1032.0,0.09415017335768128
1031.0,0.09291125492570451
1030.0,0.0922125568893839
1029.0,0.09264239186882706
1028.0,0.09490603167212863
1027.0,0.09985143928065598
1026.0,0.10801676914803293
1025.0,0.11947222180119477
1024.0,0.13388996015562338
1023.0,0.1503963419175529
1022.0,0.1685141607513425
1021.0,0.18735398376688117
1020.0,0.20565139610391725
1019.0,0.22076436832413648
1018.0,0.22958986848609375
1017.0,0.2299584456803314
1016.0,0.2216316566441261
1015.0,0.20648899420714217
1014.0,0.1879561020697733
1013.0,0.1693471862025755
1012.0,0.15285938258659382
1011.0,0.13912320359670227
1010.0,0.12796033202671375
1009.0,0.11907213473291511
1008.0,0.11198908775497118
1007.0,0.1061827760325369
1006.0,0.10149421446564144
1005.0,0.09777947172068524
1004.0,0.09474395125154866
1003.0,0.09215885741705532
1002.0,0.08974922769985194
1001.0,0.08756536662442538
1000.0,0.08560394787021397
999.0,0.0838620168928248
998.0,0.08228448344050654
997.0,0.08092190762392604
996.0,0.07972010536705154
995.0,0.07862570458152551
994.0,0.07763790321520991
993.0,0.07696333132921396
992.0,0.07644514193245056
991.0,0.07613452481449845
990.0,0.07587584681417514
989.0,0.07577241873988227
988.0,0.07577241873988227
987.0,0.07592757008963713
986.0,0.07618627890881036
985.0,0.07670415934449615
984.0,0.07753405470158659
983.0,0.07857365898473456
982.0,0.07987667370927598
981.0,0.08139308485501817
980.0,0.08312512146131668
979.0,0.08502252755566908
978.0,0.08692825969074924
977.0,0.08878910686244668
976.0,0.0905509530187334
975.0,0.09210516458371698
974.0,0.09323411045927221
973.0,0.09393445524476318
972.0,0.09404230090757282
971.0,0.0935033402006471
970.0,0.09248115389337075
969.0,0.09097914578884403
968.0,0.08916223500731646
967.0,0.08698131625203986
966.0,0.08460016478773014
965.0,0.08217951800630297
964.0,0.07972010536705154
963.0,0.07737832847680104
962.0,0.07515236702446293
961.0,0.07304051161972436
960.0,0.0710411591191702
959.0,0.0692037370166998
958.0,0.06747550294945781
957.0,0.0658551882075229
956.0,0.06439198148213077
955.0,0.06293368798257193
954.0,0.061580354206806964
953.0,0.06028111764589528
952.0,0.05918479134919874
951.0,0.058190526991161784
950.0,0.05724807957018618
949.0,0.05635711724787096
948.0,0.055566682299785564
947.0,0.05477768336465916
946.0,0.05399011523423525
945.0,0.05330216275425803
944.0,0.05266432405126009
943.0,0.05212534510230182
942.0,0.051684859310652254
941.0,0.051244819831730126
940.0,0.05085404758005607
939.0,0.050317309204795935
938.0,0.04973253198641148
937.0,0.049245818406496555
936.0,0.048808242065293994
935.0,0.048468209457651845
934.0,0.04807992647970649
933.0,0.047643522676209304
932.0,0.04725597598510167
931.0,0.04686877481655505
930.0,0.04643358574299339
929.0,0.04599883231842972
928.0,0.045516282844447975
927.0,0.04503426894157925
926.0,0.04455278942230456
925.0,0.044071843103049346
924.0,0.04368746915880539
923.0,0.0433514207947967
922.0,0.043063586155803746
921.0,0.04282386959515394
920.0,0.04263219156847242
919.0,0.04244059810252043
918.0,0.042201225070002124
917.0,0.04200982159316968
916.0,0.04186632432376469
915.0,0.04181850243505214
914.0,0.041914151478914974
913.0,0.04210551278710151
912.0,0.04253638427006878
911.0,0.043063586155803746
910.0,0.043735497301724546
909.0,0.04455278942230456
908.0,0.04541983725624266
907.0,0.04638525830935958
906.0,0.04740126547022694
905.0,0.04851676924770687
904.0,0.04978123335813667
903.0,0.051049389754451946
902.0,0.05212534510230182
901.0,0.05305672930217464
900.0,0.05369514500652506
899.0,0.05403929642243144
898.0,0.05413767551038262
897.0,0.05403929642243144
896.0,0.05374429280060267
895.0,0.053351266093323746
894.0,0.05286048235717078
893.0,0.05237025261564554
892.0,0.05192951848105887
891.0,0.05163594401163074
890.0,0.05173378011970464
889.0,0.05217431555754937
888.0,0.05300765925162776
887.0,0.05433450056786593
886.0,0.05630767289398331
885.0,0.05918479134919874
884.0,0.06298389253518577
883.0,0.0678307540792078
882.0,0.07360609973031784
881.0,0.08029446545087904
880.0,0.08783110394037297
879.0,0.096150661903319
878.0,0.10518567091669917
877.0,0.11526126223036814
876.0,0.12638880300353272
875.0,0.1381073096085541
874.0,0.14874165128092476
873.0,0.15558495952617557
872.0,0.15614457737683884
871.0,0.14990540561329913
870.0,0.1388839558386048
869.0,0.12627261935332057
868.0,0.11446916681190777
867.0,0.10463271122663809
866.0,0.09712721455392082
865.0,0.09167586072382083
864.0,0.08788427092114603
863.0,0.08512818245994969
862.0,0.08312512146131668
861.0,0.08181233864107451
860.0,0.08102656950704579
859.0,0.08071265949561734
858.0,0.08066036321258663
857.0,0.08081727095749947
856.0,0.08113125661901543
855.0,0.08149786036382611
854.0,0.08202211740709164
853.0,0.08286224724355584
852.0,0.08417821237960132
851.0,0.08570974433405087
850.0,0.0872466963286771
849.0,0.0884695376928375
848.0,0.08910891135547172
847.0,0.08905559425002108
846.0,0.08836306687055773
845.0,0.08719360733870762
844.0,0.08560394787021397
843.0,0.08365134772453975
842.0,0.08149786036382611
841.0,0.0794592834975203
840.0,0.07753405470158659
839.0,0.0756173227980268
838.0,0.07360609973031784
837.0,0.0716553647351379
836.0,0.06966236426227002
835.0,0.0676277178520861
834.0,0.06565307326174441
833.0,0.06378795567975115
832.0,0.062131203436140536
831.0,0.06058059667068294
830.0,0.058936011780097886
829.0,0.05729763111133224
828.0,0.05581353871631256
827.0,0.05458065739693696
826.0,0.05354773498692689
825.0,0.05266432405126009
824.0,0.05173378011970464
823.0,0.050805225762017736
822.0,0.05002482217034632
821.0,0.04948910701400333
820.0,0.049148541111453614
819.0,0.048808242065293994
818.0,0.048468209457651845
817.0,0.048225491918274965
816.0,0.04807992647970649
815.0,0.047934409814949674
814.0,0.04774046340917959
813.0,0.04744970610179822
812.0,0.04715914332429838
811.0,0.04686877481655505
810.0,0.04667530361081473
809.0,0.04653025674659861
808.0,0.04633693625290869
807.0,0.04599883231842972
806.0,0.045660991397539874
805.0,0.0451788169482068
804.0,0.04455278942230456
803.0,0.0437835307566099
802.0,0.043063586155803746
801.0,0.04263219156847242
800.0,0.04282386959515394
799.0,0.04383156952463674
798.0,0.04599883231842972
797.0,0.04919717703534143
796.0,0.052762392129333646
795.0,0.055912320584565744
794.0,0.05789269101064454
793.0,0.05843887976392925
792.0,0.05754547365752294
791.0,0.05561604235915585
790.0,0.0531548860393769
789.0,0.0506099933550872
788.0,0.048225491918274965
787.0,0.045902279520810385
786.0,0.04368746915880539
785.0,0.04167506835594681
784.0,0.03995754427315856
783.0,0.03848398855105106
782.0,0.037299268295658994
781.0,0.03625938114211591
780.0,0.03531618502395939
779.0,0.034187046963396917
778.0,0.032920265855503006
777.0,0.03179733185715028
776.0,0.03081714076773867
775.0,0.029978734171634214
774.0,0.029188389127482228
773.0,0.028353117935693284
772.0,0.027426919073445077
771.0,0.026456531467510258
770.0,0.025488307262671706
769.0,0.024522236834125355
768.0,0.023604163388120325
767.0,0.02255077261765881
766.0,0.021499930688540836
765.0,0.02067930261797568
764.0,0.020087589665283012
763.0,0.019632973815224997
762.0,0.019178833355664393
761.0,0.018679826740892747
760.0,0.018136109008649592
759.0,0.017547848615010242
758.0,0.017005545341335804
757.0,0.016689514205884493
756.0,0.01646391839700767
755.0,0.01628352608625061
754.0,0.016058141016111804
753.0,0.01596801972881945
752.0,0.016013078034810446
751.0,0.016103208673694303
750.0,0.016418813294209356
749.0,0.017005545341335804
748.0,0.01781925440359733
747.0,0.018679826740892747
746.0,0.019723858922159776
745.0,0.021317434843055594
744.0,0.024017056287453542
743.0,0.028214062120885508
742.0,0.03414006319292828
741.0,0.04215336629184985
740.0,0.052419250695677544
739.0,0.06514819703433927
738.0,0.08045124103115198
737.0,0.09821485469640057
736.0,0.11798803837334138
735.0,0.1390633792999063
734.0,0.16077342598656452
733.0,0.18283142761894444
732.0,0.20516354218543853
731.0,0.22782503917538577
730.0,0.2516568955124505
729.0,0.27744833799904156
728.0,0.30434324006380975
727.0,0.33003263009149597
726.0,0.35134730486877697
725.0,0.3659259745125316
724.0,0.37232696823338407
723.0,0.37018280398148407
722.0,0.36161059233466397
721.0,0.34988683555642863
720.0,0.3372421683184259
719.0,0.3243132913005988
718.0,0.3114022249188302
717.0,0.29886393390747346
716.0,0.28676153845433827
715.0,0.27466018409026294
714.0,0.26256879948541756
713.0,0.2508049577803275
712.0,0.23957751657678794
711.0,0.22870655737094037
710.0,0.21853185715820178
709.0,0.2093630380682967
708.0,0.2010042655561186
707.0,0.19300648631789286
706.0,0.18521985425419518
705.0,0.1778319206319825
704.0,0.17108243838331405
703.0,0.16462654752999129
702.0,0.15801519540988607
701.0,0.15119529894819617
700.0,0.14417809459397013
699.0,0.13727247168202528
698.0,0.13076828026902376
697.0,0.12476505354983503
696.0,0.11907213473291511
695.0,0.1137349409702435
694.0,0.10902040301031102
693.0,0.10546241500425357
692.0,0.10292299679057959
691.0,0.10094593200182911
690.0,0.09919606518963042
689.0,0.09734452478207412
688.0,0.09528445472131919
687.0,0.09312646527792956
686.0,0.09156860103399356
685.0,0.09092559859909577
684.0,0.0908185240221473
683.0,0.09033701484598189
682.0,0.0892155652071629
681.0,0.08788427092114603
680.0,0.08692825969074924
679.0,0.086239113587677
678.0,0.0854453014823664
677.0,0.08423093401631587
676.0,0.08249449044745338
675.0,0.08024221949810584
674.0,0.07737832847680104
673.0,0.07406940213152868
672.0,0.07042782092345012
671.0,0.0665127121512945
670.0,0.06258241852286206
669.0,0.05953332233647113
668.0,0.05858795962645047
667.0,0.059035506507200575
666.0,0.058936011780097886
665.0,0.05804158346918653
664.0,0.057198533682059516
663.0,0.05680236993107379
662.0,0.05660442349104544
661.0,0.05660442349104544
660.0,0.05665390164340933
659.0,0.0567528748621382
658.0,0.05670338543334519
657.0,0.05620880107069848
656.0,0.055172003656783764
655.0,0.053449489430144714
654.0,0.05144033789103841
653.0,0.04978123335813667
652.0,0.049294465226138895
651.0,0.05026854768429301
650.0,0.05192951848105887
649.0,0.05300765925162776
648.0,0.052762392129333646
647.0,0.0515870342213991
646.0,0.05012229596312534
645.0,0.04871106272232795
644.0,0.04744970610179822
643.0,0.04662694927330402
642.0,0.04638525830935958
641.0,0.04643358574299339
640.0,0.04628861957244457
639.0,0.04595055323640551
638.0,0.045902279520810385
637.0,0.04653025674659861
636.0,0.047643522676209304
635.0,0.04919717703534143
634.0,0.05139145012356372
633.0,0.053842605077627725
632.0,0.05551732784983132
631.0,0.05561604235915585
630.0,0.05433450056786593
629.0,0.052468254304406825
628.0,0.05036607620073763
627.0,0.048468209457651845
626.0,0.04749815213697639
625.0,0.04778894189133087
624.0,0.04875964967565971
623.0,0.04953778109440221
622.0,0.04973253198641148
621.0,0.04934311749548925
620.0,0.04832256265669943
619.0,0.0469171560879138
618.0,0.04585401117045196
617.0,0.045564513671517703
616.0,0.045612749855485024
615.0,0.04527520902093718
614.0,0.04464904263234004
613.0,0.04421607108308856
612.0,0.04397571771932274
611.0,0.0435434165901003
610.0,0.0431115453499229
609.0,0.043063586155803746
608.0,0.04344740808260106
607.0,0.043735497301724546
606.0,0.0435434165901003
605.0,0.04272802000705722
604.0,0.041340572947066834
603.0,0.03952922246570112
602.0,0.03782014709123227
601.0,0.03658998431977123
600.0,0.035693217696063595
