cm-1,A
4000.0,0.008153946355103248
3999.0,0.008153946355103248
3998.0,0.008153946355103248
3997.0,0.008153946355103248
3996.0,0.008153946355103248
3995.0,0.008153946355103248
3994.0,0.008153946355103248
3993.0,0.008109696063975047
3992.0,0.008065450281052211
3991.0,0.008021209005416363
3990.0,0.007976972236149349
3989.0,0.007976972236149349
3988.0,0.008021209005416363
3987.0,0.008021209005416363
3986.0,0.008065450281052211
3985.0,0.008153946355103248
3984.0,0.008198201155356077
3983.0,0.008242460465651913
3982.0,0.008286724286910463
3981.0,0.008286724286910463
3980.0,0.008242460465651913
3979.0,0.008198201155356077
3978.0,0.008153946355103248
3977.0,0.008198201155356077
3976.0,0.008242460465651913
3975.0,0.008330992620051436
3974.0,0.008330992620051436
3973.0,0.008375265465994541
3972.0,0.008375265465994541
3971.0,0.008375265465994541
3970.0,0.008375265465994541
3969.0,0.008330992620051436
3968.0,0.008286724286910463
3967.0,0.008242460465651913
3966.0,0.008286724286910463
3965.0,0.008330992620051436
3964.0,0.008330992620051436
3963.0,0.008330992620051436
3962.0,0.008330992620051436
3961.0,0.008286724286910463
3960.0,0.008286724286910463
3959.0,0.008242460465651913
3958.0,0.008198201155356077
3957.0,0.008153946355103248
3956.0,0.008109696063975047
3955.0,0.008109696063975047
3954.0,0.008109696063975047
3953.0,0.008109696063975047
3952.0,0.008198201155356077
3951.0,0.008242460465651913
3950.0,0.008330992620051436
3949.0,0.008330992620051436
3948.0,0.008375265465994541
3947.0,0.008375265465994541
3946.0,0.008375265465994541
3945.0,0.008375265465994541
3944.0,0.008330992620051436
3943.0,0.008330992620051436
3942.0,0.008375265465994541
3941.0,0.008419542825660153
3940.0,0.008419542825660153
3939.0,0.008419542825660153
3938.0,0.008419542825660153
3937.0,0.008463824699968647
3936.0,0.00850811108984062
3935.0,0.008463824699968647
3934.0,0.008419542825660153
3933.0,0.008330992620051436
3932.0,0.008286724286910463
3931.0,0.008286724286910463
3930.0,0.008375265465994541
3929.0,0.008463824699968647
3928.0,0.00850811108984062
3927.0,0.00850811108984062
3926.0,0.008463824699968647
3925.0,0.00850811108984062
3924.0,0.008596697419959609
3923.0,0.0087296108049002
3922.0,0.008773924307505121
3921.0,0.0087296108049002
3920.0,0.008685301823389224
3919.0,0.008685301823389224
3918.0,0.008685301823389224
3917.0,0.008685301823389224
3916.0,0.0087296108049002
3915.0,0.008773924307505121
3914.0,0.008818242332126802
3913.0,0.008818242332126802
3912.0,0.008818242332126802
3911.0,0.008818242332126802
3910.0,0.008862564879688284
3909.0,0.008862564879688284
3908.0,0.008862564879688284
3907.0,0.008773924307505121
3906.0,0.008685301823389224
3905.0,0.008685301823389224
3904.0,0.008862564879688284
3903.0,0.00908424549391551
3902.0,0.009172949432521227
3901.0,0.00908424549391551
3900.0,0.008906891951112605
3899.0,0.008818242332126802
3898.0,0.008818242332126802
3897.0,0.008862564879688284
3896.0,0.008906891951112605
3895.0,0.008906891951112605
3894.0,0.008862564879688284
3893.0,0.008685301823389224
3892.0,0.008596697419959609
3891.0,0.008596697419959609
3890.0,0.008685301823389224
3889.0,0.008862564879688284
3888.0,0.008818242332126802
3887.0,0.008640997362049818
3886.0,0.008685301823389224
3885.0,0.008995559669244813
3884.0,0.009306039320248427
3883.0,0.00939478857608056
3882.0,0.009128595198514056
3881.0,0.008862564879688284
3880.0,0.008818242332126802
3879.0,0.008906891951112605
3878.0,0.00908424549391551
3877.0,0.009128595198514056
3876.0,0.00908424549391551
3875.0,0.009039900317800775
3874.0,0.009217308196862062
3873.0,0.009439170005980158
3872.0,0.009350411681145587
3871.0,0.00908424549391551
3870.0,0.008906891951112605
3869.0,0.009039900317800775
3868.0,0.009261671492462709
3867.0,0.009217308196862062
3866.0,0.008995559669244813
3865.0,0.008906891951112605
3864.0,0.008995559669244813
3863.0,0.00908424549391551
3862.0,0.009039900317800775
3861.0,0.008862564879688284
3860.0,0.0087296108049002
3859.0,0.008685301823389224
3858.0,0.008773924307505121
3857.0,0.008951223547323472
3856.0,0.008951223547323472
3855.0,0.0087296108049002
3854.0,0.008818242332126802
3853.0,0.009172949432521227
3852.0,0.009261671492462709
3851.0,0.009217308196862062
3850.0,0.009128595198514056
3849.0,0.008995559669244813
3848.0,0.008995559669244813
3847.0,0.008995559669244813
3846.0,0.009039900317800775
3845.0,0.00908424549391551
3844.0,0.009128595198514056
3843.0,0.009217308196862062
3842.0,0.009306039320248427
3841.0,0.009306039320248427
3840.0,0.009172949432521227
3839.0,0.00908424549391551
3838.0,0.008995559669244813
3837.0,0.008951223547323472
3836.0,0.008906891951112605
3835.0,0.008906891951112605
3834.0,0.008906891951112605
3833.0,0.008906891951112605
3832.0,0.008995559669244813
3831.0,0.009128595198514056
3830.0,0.009306039320248427
3829.0,0.009306039320248427
3828.0,0.009172949432521227
3827.0,0.009039900317800775
3826.0,0.009128595198514056
3825.0,0.00939478857608056
3824.0,0.009572341514736404
3823.0,0.009350411681145587
3822.0,0.009128595198514056
3821.0,0.009217308196862062
3820.0,0.009483555971770974
3819.0,0.00966114521239847
3818.0,0.009527946474380489
3817.0,0.009261671492462709
3816.0,0.009217308196862062
3815.0,0.009350411681145587
3814.0,0.00939478857608056
3813.0,0.009261671492462709
3812.0,0.00908424549391551
3811.0,0.009039900317800775
3810.0,0.00908424549391551
3809.0,0.009039900317800775
3808.0,0.008951223547323472
3807.0,0.008995559669244813
3806.0,0.009261671492462709
3805.0,0.009572341514736404
3804.0,0.009527946474380489
3803.0,0.009217308196862062
3802.0,0.009128595198514056
3801.0,0.009306039320248427
3800.0,0.009527946474380489
3799.0,0.009527946474380489
3798.0,0.009350411681145587
3797.0,0.009217308196862062
3796.0,0.009172949432521227
3795.0,0.009261671492462709
3794.0,0.009261671492462709
3793.0,0.009172949432521227
3792.0,0.009128595198514056
3791.0,0.00908424549391551
3790.0,0.009128595198514056
3789.0,0.009172949432521227
3788.0,0.009261671492462709
3787.0,0.009306039320248427
3786.0,0.009261671492462709
3785.0,0.009261671492462709
3784.0,0.009306039320248427
3783.0,0.00939478857608056
3782.0,0.00939478857608056
3781.0,0.009261671492462709
3780.0,0.009172949432521227
3779.0,0.009217308196862062
3778.0,0.009261671492462709
3777.0,0.009217308196862062
3776.0,0.009128595198514056
3775.0,0.00908424549391551
3774.0,0.009128595198514056
3773.0,0.009217308196862062
3772.0,0.009217308196862062
3771.0,0.009172949432521227
3770.0,0.009261671492462709
3769.0,0.009350411681145587
3768.0,0.00939478857608056
3767.0,0.009217308196862062
3766.0,0.00908424549391551
3765.0,0.00908424549391551
3764.0,0.009217308196862062
3763.0,0.00939478857608056
3762.0,0.009483555971770974
3761.0,0.009527946474380489
3760.0,0.00966114521239847
3759.0,0.009794384815193347
3758.0,0.009794384815193347
3757.0,0.009705553871561357
3756.0,0.009705553871561357
3755.0,0.00974996707218323
3754.0,0.009616741093766423
3753.0,0.009439170005980158
3752.0,0.009350411681145587
3751.0,0.009350411681145587
3750.0,0.009350411681145587
3749.0,0.00939478857608056
3748.0,0.00966114521239847
3747.0,0.00974996707218323
3746.0,0.009439170005980158
3745.0,0.009172949432521227
3744.0,0.009172949432521227
3743.0,0.009217308196862062
3742.0,0.009128595198514056
3741.0,0.008906891951112605
3740.0,0.008685301823389224
3739.0,0.008552401996197112
3738.0,0.008375265465994541
3737.0,0.008198201155356077
3736.0,0.008109696063975047
3735.0,0.008065450281052211
3734.0,0.007711646202907652
3733.0,0.007137328610972382
3732.0,0.006607862550997545
3731.0,0.006343371384537999
3730.0,0.006299305179649828
3729.0,0.00625524344553785
3728.0,0.00621118618129457
3727.0,0.00625524344553785
3726.0,0.006475596832934416
3725.0,0.006740168563263094
3724.0,0.00696076819309055
3723.0,0.007137328610972382
3722.0,0.007313960837872058
3721.0,0.007534852191956709
3720.0,0.007888512213050314
3719.0,0.008330992620051436
3718.0,0.008906891951112605
3717.0,0.009527946474380489
3716.0,0.009883233932095559
3715.0,0.009838807101520963
3714.0,0.009261671492462709
3713.0,0.00850811108984062
3712.0,0.008065450281052211
3711.0,0.007976972236149349
3710.0,0.007932739972333236
3709.0,0.007755855953228474
3708.0,0.0075790439479759275
3707.0,0.007402303897961815
3706.0,0.007358130121602358
3705.0,0.007358130121602358
3704.0,0.007358130121602358
3703.0,0.007358130121602358
3702.0,0.0074464821678643656
3701.0,0.007534852191956709
3700.0,0.007711646202907652
3699.0,0.007844288957383316
3698.0,0.007932739972333236
3697.0,0.008065450281052211
3696.0,0.008286724286910463
3695.0,0.008552401996197112
3694.0,0.008862564879688284
3693.0,0.009128595198514056
3692.0,0.00939478857608056
3691.0,0.00966114521239847
3690.0,0.009838807101520963
3689.0,0.009794384815193347
3688.0,0.00974996707218323
3687.0,0.009705553871561357
3686.0,0.00974996707218323
3685.0,0.009794384815193347
3684.0,0.009838807101520963
3683.0,0.009927665307847056
3682.0,0.01001654169860089
3681.0,0.010060986715464404
3680.0,0.010283280051895272
3679.0,0.010594681998483901
3678.0,0.010817248744452446
3677.0,0.01077272626946324
3676.0,0.01086177578421088
3675.0,0.011084479487313281
3674.0,0.011262724711199823
3673.0,0.011351874764248926
3672.0,0.011218156546359825
3671.0,0.011084479487313281
3670.0,0.01117359295472431
3669.0,0.011307297450183107
3668.0,0.011218156546359825
3667.0,0.011084479487313281
3666.0,0.010950843561779777
3665.0,0.010906307389674463
3664.0,0.010950843561779777
3663.0,0.010995384301463185
3662.0,0.011039929609661936
3661.0,0.011084479487313281
3660.0,0.01117359295472431
3659.0,0.011218156546359825
3658.0,0.01117359295472431
3657.0,0.011218156546359825
3656.0,0.011396456654336085
3655.0,0.011664044143949504
3654.0,0.011931796607364653
3653.0,0.012065734767841452
3652.0,0.011931796607364653
3651.0,0.011753276624621556
3650.0,0.011931796607364653
3649.0,0.012289056869694281
3648.0,0.012423105273012602
3647.0,0.012378417874516323
3646.0,0.012289056869694281
3645.0,0.01215504982870197
3644.0,0.012021084124518078
3643.0,0.011887159731648111
3642.0,0.011842527443247208
3641.0,0.011842527443247208
3640.0,0.011797899741219142
3639.0,0.011708658092512314
3638.0,0.011664044143949504
3637.0,0.011574829993696856
3636.0,0.011485634166333858
3635.0,0.011307297450183107
3634.0,0.011218156546359825
3633.0,0.011307297450183107
3632.0,0.011396456654336085
3631.0,0.011307297450183107
3630.0,0.011218156546359825
3629.0,0.011396456654336085
3628.0,0.011485634166333858
3627.0,0.011307297450183107
3626.0,0.011084479487313281
3625.0,0.010906307389674463
3624.0,0.010995384301463185
3623.0,0.011307297450183107
3622.0,0.011708658092512314
3621.0,0.012065734767841452
3620.0,0.012467797270160563
3619.0,0.012825498912458322
3618.0,0.01318349541446362
3617.0,0.013496984613259544
3616.0,0.01385553528947936
3615.0,0.014169510141607944
3614.0,0.014349026309051105
3613.0,0.014438812226654996
3612.0,0.014214382227394795
3611.0,0.01381070026317599
3610.0,0.013273040668781544
3609.0,0.012870232340102872
3608.0,0.012736045877764557
3607.0,0.012780770091995297
3606.0,0.012870232340102872
3605.0,0.012914970375878188
3604.0,0.012914970375878188
3603.0,0.012914970375878188
3602.0,0.012914970375878188
3601.0,0.012914970375878188
3600.0,0.013004460275618523
3599.0,0.013138729709955221
3598.0,0.013317820220494436
3597.0,0.013496984613259544
3596.0,0.01372104409400876
3595.0,0.013990068146738865
3594.0,0.014259258949925524
3593.0,0.014438812226654996
3592.0,0.014663358264387139
3591.0,0.014888020460646079
3590.0,0.015067833932588037
3589.0,0.015157768594724175
3588.0,0.01538268676325183
3587.0,0.015562705203923999
3586.0,0.015697768020096703
3585.0,0.015742798294583915
3584.0,0.01578783323856614
3583.0,0.01596801972881945
3582.0,0.016148281008528276
3581.0,0.016373712875465518
3580.0,0.016554142658660398
3579.0,0.016734647433454652
3578.0,0.016915227262211507
3577.0,0.017095882207371904
3576.0,0.01727661233145472
3575.0,0.017412209298337533
3574.0,0.017502630802287644
3573.0,0.01768353030793479
3572.0,0.017955020928509757
3571.0,0.01831727262871463
3570.0,0.018679826740892747
3569.0,0.0190880622231564
3568.0,0.01949668180660491
3567.0,0.01990568621470623
3566.0,0.02013307743509718
3565.0,0.020178569969774962
3564.0,0.02013307743509718
3563.0,0.02013307743509718
3562.0,0.020178569969774962
3561.0,0.020315076172974234
3560.0,0.02045162529590483
3559.0,0.020633757603838898
3558.0,0.02081596632558158
3557.0,0.021089422824428272
3556.0,0.02140867317992523
3555.0,0.02168250325324883
3554.0,0.021956506090037076
3553.0,0.0221849739168134
3552.0,0.02245929405346514
3551.0,0.022688026603074007
3550.0,0.02282532397981263
3549.0,0.02291687968414724
3548.0,0.02300845469384938
3547.0,0.02314585342378117
3546.0,0.023329119375188556
3545.0,0.02355831062115543
3544.0,0.023695883447997224
3543.0,0.023787622882622816
3542.0,0.023879381700184332
3541.0,0.024017056287453542
3540.0,0.024154774532432866
3539.0,0.024292536462819925
3538.0,0.02438440203310499
3537.0,0.024476287039668643
3536.0,0.02461415101053266
3535.0,0.024706084643793647
3534.0,0.02475205875931885
3533.0,0.024706084643793647
3532.0,0.02475205875931885
3531.0,0.02484402159331056
3530.0,0.025028005701930978
3529.0,0.02521206778644225
3528.0,0.02539620791296726
3527.0,0.02553436426275746
3526.0,0.02553436426275746
3525.0,0.025488307262671706
3524.0,0.02544225514642018
3523.0,0.02544225514642018
3522.0,0.02544225514642018
3521.0,0.02544225514642018
3520.0,0.025350165561278004
3519.0,0.025258095499050004
3518.0,0.02521206778644225
3517.0,0.02512002699306959
3516.0,0.025074013910237447
3515.0,0.025074013910237447
3514.0,0.025074013910237447
3513.0,0.02512002699306959
3512.0,0.025074013910237447
3511.0,0.025028005701930978
3510.0,0.025028005701930978
3509.0,0.025028005701930978
3508.0,0.025028005701930978
3507.0,0.025074013910237447
3506.0,0.025074013910237447
3505.0,0.025028005701930978
3504.0,0.02498200236711723
3503.0,0.024890010313838973
3502.0,0.024798037742147727
3501.0,0.024706084643793647
3500.0,0.024660115394541604
3499.0,0.02461415101053266
3498.0,0.02461415101053266
3497.0,0.024568191490736968
3496.0,0.024522236834125355
3495.0,0.024476287039668643
3494.0,0.024430342106337877
3493.0,0.02438440203310499
3492.0,0.024292536462819925
3491.0,0.024200690320592466
3490.0,0.024154774532432866
3489.0,0.024108863598207186
3488.0,0.024108863598207186
3487.0,0.024154774532432866
3486.0,0.024200690320592466
3485.0,0.024154774532432866
3484.0,0.024108863598207186
3483.0,0.024017056287453542
3482.0,0.023925268380126097
3481.0,0.023833499868024743
3480.0,0.023787622882622816
3479.0,0.023787622882622816
3478.0,0.023787622882622816
3477.0,0.023787622882622816
3476.0,0.023787622882622816
3475.0,0.023741750742954926
3474.0,0.023695883447997224
3473.0,0.02365002099672653
3472.0,0.02351246269481
3471.0,0.02342078135989012
3470.0,0.023283295636617574
3469.0,0.023283295636617574
3468.0,0.023283295636617574
3467.0,0.023374947949272418
3466.0,0.023374947949272418
3465.0,0.023283295636617574
3464.0,0.023191662661933732
3463.0,0.02314585342378117
3462.0,0.02314585342378117
3461.0,0.023237476732539397
3460.0,0.023374947949272418
3459.0,0.023466619608062178
3458.0,0.023466619608062178
3457.0,0.023374947949272418
3456.0,0.023329119375188556
3455.0,0.023329119375188556
3454.0,0.023374947949272418
3453.0,0.02351246269481
3452.0,0.023604163388120325
3451.0,0.023741750742954926
3450.0,0.023787622882622816
3449.0,0.023879381700184332
3448.0,0.023925268380126097
3447.0,0.024017056287453542
3446.0,0.024154774532432866
3445.0,0.024246610963712723
3444.0,0.024338466818941473
3443.0,0.024338466818941473
3442.0,0.024338466818941473
3441.0,0.02438440203310499
3440.0,0.024430342106337877
3439.0,0.024522236834125355
3438.0,0.02461415101053266
3437.0,0.024660115394541604
3436.0,0.02475205875931885
3435.0,0.024890010313838973
3434.0,0.02512002699306959
3433.0,0.02539620791296726
3432.0,0.02562649291857677
3431.0,0.025810808881832736
3430.0,0.025902996205869
3429.0,0.025949097207122573
3428.0,0.025995203102585407
3427.0,0.026087429580295085
3426.0,0.026318081496016443
3425.0,0.026502691267936695
3424.0,0.02664120011360227
3423.0,0.02677975314776626
3422.0,0.02691835039863255
3421.0,0.027056991894431892
3420.0,0.02710321556345563
3419.0,0.027149444152769986
3418.0,0.02710321556345563
3417.0,0.027149444152769986
3416.0,0.02724191609646076
3415.0,0.027334407733889066
3414.0,0.02747318213414429
3413.0,0.027565723042634938
3412.0,0.0277045713888604
3411.0,0.027889771597169544
3410.0,0.028075050815808744
3409.0,0.028214062120885508
3408.0,0.028306761050139073
3407.0,0.028353117935693284
3406.0,0.02839947976994095
3405.0,0.02839947976994095
3404.0,0.028445846553939003
3403.0,0.028445846553939003
3402.0,0.02839947976994095
3401.0,0.02839947976994095
3400.0,0.02839947976994095
3399.0,0.02849221828874393
3398.0,0.028538594975413334
3397.0,0.02858497661500481
3396.0,0.02858497661500481
3395.0,0.02849221828874393
3394.0,0.028353117935693284
3393.0,0.028214062120885508
3392.0,0.02812138297373412
3391.0,0.02798240132598462
3390.0,0.027843464140506313
3389.0,0.027750864037404455
3388.0,0.027658283674251827
3387.0,0.027565723042634938
3386.0,0.027565723042634938
3385.0,0.02751945012352408
3384.0,0.027426919073445077
3383.0,0.02724191609646076
3382.0,0.027010773144651168
3381.0,0.02677975314776626
3380.0,0.02664120011360227
3379.0,0.02654885597506529
3378.0,0.026456531467510258
3377.0,0.02636422658259252
3376.0,0.026271941311972746
3375.0,0.026087429580295085
3374.0,0.025902996205869
3373.0,0.025672564576383117
3372.0,0.02553436426275746
3371.0,0.02539620791296726
3370.0,0.025304128090317013
3369.0,0.02521206778644225
3368.0,0.025074013910237447
3367.0,0.024936003904763915
3366.0,0.02475205875931885
3365.0,0.02461415101053266
3364.0,0.024522236834125355
3363.0,0.024476287039668643
3362.0,0.02438440203310499
3361.0,0.024246610963712723
3360.0,0.024108863598207186
3359.0,0.023971159908874107
3358.0,0.023787622882622816
3357.0,0.02365002099672653
3356.0,0.02355831062115543
3355.0,0.02351246269481
3354.0,0.02351246269481
3353.0,0.02351246269481
3352.0,0.02351246269481
3351.0,0.023466619608062178
3350.0,0.02342078135989012
3349.0,0.023329119375188556
3348.0,0.023191662661933732
3347.0,0.023054249440757957
3346.0,0.02296266477531872
3345.0,0.02291687968414724
3344.0,0.02291687968414724
3343.0,0.022871099419317753
3342.0,0.02282532397981263
3341.0,0.02282532397981263
3340.0,0.02277955336461468
3339.0,0.02282532397981263
3338.0,0.02282532397981263
3337.0,0.022871099419317753
3336.0,0.02291687968414724
3335.0,0.02296266477531872
3334.0,0.02296266477531872
3333.0,0.02291687968414724
3332.0,0.02277955336461468
3331.0,0.022642270454698687
3330.0,0.02255077261765881
3329.0,0.02245929405346514
3328.0,0.022367834754000393
3327.0,0.022322112326006227
3326.0,0.022230681908425698
3325.0,0.0221849739168134
3324.0,0.022093572362881675
3323.0,0.022093572362881675
3322.0,0.022093572362881675
3321.0,0.022093572362881675
3320.0,0.02204787879853809
3319.0,0.02200219004126036
3318.0,0.021910826943857264
3317.0,0.021819483062586187
3316.0,0.021819483062586187
3315.0,0.021773818325474092
3314.0,0.021728158389364705
3313.0,0.021636852916117055
3312.0,0.02159120737696063
3311.0,0.02159120737696063
3310.0,0.021636852916117055
3309.0,0.021636852916117055
3308.0,0.02159120737696063
3307.0,0.021499930688540836
3306.0,0.021363051615525652
3305.0,0.021317434843055594
3304.0,0.02122621566987748
3303.0,0.0211806132671577
3302.0,0.021135015652343103
3301.0,0.021089422824428272
3300.0,0.021043834782408455
3299.0,0.021043834782408455
3298.0,0.021043834782408455
3297.0,0.0209982515252789
3296.0,0.020952673052035298
3295.0,0.020861530453190058
3294.0,0.020724852408976924
3293.0,0.02067930261797568
3292.0,0.02067930261797568
3291.0,0.02067930261797568
3290.0,0.020724852408976924
3289.0,0.02067930261797568
3288.0,0.020633757603838898
3287.0,0.020633757603838898
3286.0,0.020633757603838898
3285.0,0.020542681902151694
3284.0,0.02045162529590483
3283.0,0.02036058777709271
3282.0,0.02022406727031445
3281.0,0.02013307743509718
3280.0,0.020087589665283012
3279.0,0.02004210665933459
3278.0,0.02004210665933459
3277.0,0.02004210665933459
3276.0,0.019996628416253603
3275.0,0.01995115493504329
3274.0,0.01995115493504329
3273.0,0.01990568621470623
3272.0,0.01990568621470623
3271.0,0.019860222254245663
3270.0,0.019814763052665052
3269.0,0.019769308608968306
3268.0,0.019723858922159776
3267.0,0.019769308608968306
3266.0,0.019814763052665052
3265.0,0.01990568621470623
3264.0,0.01990568621470623
3263.0,0.019814763052665052
3262.0,0.019723858922159776
3261.0,0.019632973815224997
3260.0,0.01958753839310856
3259.0,0.01954210772389997
3258.0,0.01949668180660491
3257.0,0.01949668180660491
3256.0,0.01949668180660491
3255.0,0.01954210772389997
3254.0,0.01958753839310856
3253.0,0.019632973815224997
3252.0,0.019632973815224997
3251.0,0.01954210772389997
3250.0,0.019451260640229506
3249.0,0.019360432556262852
3248.0,0.019360432556262852
3247.0,0.01940584422377989
3246.0,0.019451260640229506
3245.0,0.01949668180660491
3244.0,0.01954210772389997
3243.0,0.01958753839310856
3242.0,0.019632973815224997
3241.0,0.019632973815224997
3240.0,0.01958753839310856
3239.0,0.01954210772389997
3238.0,0.01949668180660491
3237.0,0.01949668180660491
3236.0,0.01954210772389997
3235.0,0.01958753839310856
3234.0,0.01958753839310856
3233.0,0.01949668180660491
3232.0,0.019315025636685412
3231.0,0.019133445417920836
3230.0,0.019042683770379876
3229.0,0.01899731005860028
3228.0,0.018951941086827073
3227.0,0.018906576854070378
3226.0,0.018815862601645694
3225.0,0.018770512579999288
3224.0,0.018725167293411005
3223.0,0.018725167293411005
3222.0,0.018679826740892747
3221.0,0.01858915983411169
3220.0,0.018498511851753108
3219.0,0.01840788278591865
3218.0,0.01831727262871463
3217.0,0.018226681372252695
3216.0,0.018181392829336396
3215.0,0.018136109008649592
3214.0,0.018136109008649592
3213.0,0.01809082990920774
3212.0,0.01809082990920774
3211.0,0.01809082990920774
3210.0,0.01809082990920774
3209.0,0.018045555530026514
3208.0,0.018045555530026514
3207.0,0.01800028587012159
3206.0,0.017955020928509757
3205.0,0.017864505196230507
3204.0,0.017774008325325275
3203.0,0.017728766960431575
3202.0,0.017728766960431575
3201.0,0.01768353030793479
3200.0,0.017728766960431575
3199.0,0.017728766960431575
3198.0,0.01768353030793479
3197.0,0.01768353030793479
3196.0,0.017638298366853045
3195.0,0.017638298366853045
3194.0,0.017638298366853045
3193.0,0.017638298366853045
3192.0,0.01759307113620534
3191.0,0.017502630802287644
3190.0,0.017412209298337533
3189.0,0.017321806616515723
3188.0,0.017231422748988034
3187.0,0.017231422748988034
3186.0,0.01727661233145472
3185.0,0.017321806616515723
3184.0,0.017367005605150476
3183.0,0.017412209298337533
3182.0,0.017457417697056554
3181.0,0.017457417697056554
3180.0,0.017412209298337533
3179.0,0.017367005605150476
3178.0,0.01727661233145472
3177.0,0.017186237868137555
3176.0,0.017141057687924732
3175.0,0.017095882207371904
3174.0,0.017050711425501408
3173.0,0.017005545341335804
3172.0,0.016960383953898095
3171.0,0.016870075265299933
3170.0,0.016824927962187042
3169.0,0.01677978535189717
3168.0,0.016734647433454652
3167.0,0.016644385668211692
3166.0,0.016554142658660398
3165.0,0.01646391839700767
3164.0,0.016418813294209356
3163.0,0.01646391839700767
3162.0,0.016509028184833463
3161.0,0.016554142658660398
3160.0,0.016554142658660398
3159.0,0.016554142658660398
3158.0,0.016554142658660398
3157.0,0.016554142658660398
3156.0,0.016554142658660398
3155.0,0.016509028184833463
3154.0,0.016418813294209356
3153.0,0.01632861713980338
3152.0,0.01628352608625061
3151.0,0.01628352608625061
3150.0,0.016373712875465518
3149.0,0.016418813294209356
3148.0,0.01646391839700767
3147.0,0.01646391839700767
3146.0,0.01646391839700767
3145.0,0.01646391839700767
3144.0,0.01646391839700767
3143.0,0.016418813294209356
3142.0,0.016373712875465518
3141.0,0.016373712875465518
3140.0,0.01632861713980338
3139.0,0.01632861713980338
3138.0,0.01632861713980338
3137.0,0.01632861713980338
3136.0,0.01632861713980338
3135.0,0.016373712875465518
3134.0,0.016373712875465518
3133.0,0.016373712875465518
3132.0,0.016418813294209356
3131.0,0.01646391839700767
3130.0,0.016554142658660398
3129.0,0.016599261819461697
3128.0,0.016599261819461697
3127.0,0.016554142658660398
3126.0,0.01646391839700767
3125.0,0.01646391839700767
3124.0,0.016509028184833463
3123.0,0.016554142658660398
3122.0,0.016554142658660398
3121.0,0.016509028184833463
3120.0,0.016418813294209356
3119.0,0.01632861713980338
3118.0,0.016238439713835096
3117.0,0.01628352608625061
3116.0,0.01632861713980338
3115.0,0.01646391839700767
3114.0,0.016554142658660398
3113.0,0.016689514205884493
3112.0,0.016734647433454652
3111.0,0.016824927962187042
3110.0,0.016870075265299933
3109.0,0.016870075265299933
3108.0,0.016870075265299933
3107.0,0.016915227262211507
3106.0,0.016960383953898095
3105.0,0.017005545341335804
3104.0,0.017005545341335804
3103.0,0.017005545341335804
3102.0,0.016915227262211507
3101.0,0.016870075265299933
3100.0,0.016824927962187042
3099.0,0.01677978535189717
3098.0,0.016734647433454652
3097.0,0.016734647433454652
3096.0,0.016734647433454652
3095.0,0.01677978535189717
3094.0,0.01677978535189717
3093.0,0.01677978535189717
3092.0,0.016824927962187042
3091.0,0.016915227262211507
3090.0,0.016960383953898095
3089.0,0.016960383953898095
3088.0,0.016960383953898095
3087.0,0.017005545341335804
3086.0,0.017005545341335804
3085.0,0.017050711425501408
3084.0,0.017095882207371904
3083.0,0.017141057687924732
3082.0,0.017186237868137555
3081.0,0.01727661233145472
3080.0,0.017321806616515723
3079.0,0.017367005605150476
3078.0,0.017412209298337533
3077.0,0.017412209298337533
3076.0,0.017412209298337533
3075.0,0.017412209298337533
3074.0,0.017412209298337533
3073.0,0.017367005605150476
3072.0,0.017367005605150476
3071.0,0.017367005605150476
3070.0,0.017367005605150476
3069.0,0.017367005605150476
3068.0,0.017321806616515723
3067.0,0.017321806616515723
3066.0,0.017367005605150476
3065.0,0.017367005605150476
3064.0,0.017412209298337533
3063.0,0.017367005605150476
3062.0,0.017321806616515723
3061.0,0.01727661233145472
3060.0,0.017321806616515723
3059.0,0.017367005605150476
3058.0,0.017457417697056554
3057.0,0.017547848615010242
3056.0,0.017638298366853045
3055.0,0.017638298366853045
3054.0,0.01759307113620534
3053.0,0.017502630802287644
3052.0,0.017321806616515723
3051.0,0.017141057687924732
3050.0,0.016960383953898095
3049.0,0.01677978535189717
3048.0,0.016689514205884493
3047.0,0.016554142658660398
3046.0,0.016418813294209356
3045.0,0.01628352608625061
3044.0,0.016148281008528276
3043.0,0.016013078034810446
3042.0,0.01596801972881945
3041.0,0.015832872853011715
3040.0,0.015742798294583915
3039.0,0.015607721475734415
3038.0,0.015517693597737248
3037.0,0.01547268665620738
3036.0,0.015517693597737248
3035.0,0.015562705203923999
3034.0,0.015607721475734415
3033.0,0.015652742414136167
3032.0,0.015697768020096703
3031.0,0.015697768020096703
3030.0,0.015742798294583915
3029.0,0.015742798294583915
3028.0,0.01578783323856614
3027.0,0.015832872853011715
3026.0,0.01596801972881945
3025.0,0.016058141016111804
3024.0,0.016148281008528276
3023.0,0.016193358021584725
3022.0,0.016238439713835096
3021.0,0.01628352608625061
3020.0,0.016373712875465518
3019.0,0.016509028184833463
3018.0,0.016644385668211692
3017.0,0.016734647433454652
3016.0,0.01677978535189717
3015.0,0.016870075265299933
3014.0,0.017005545341335804
3013.0,0.017141057687924732
3012.0,0.017321806616515723
3011.0,0.017457417697056554
3010.0,0.017547848615010242
3009.0,0.017638298366853045
3008.0,0.017728766960431575
3007.0,0.01781925440359733
3006.0,0.01800028587012159
3005.0,0.018181392829336396
3004.0,0.018362575344230914
3003.0,0.018498511851753108
3002.0,0.018634490921455527
3001.0,0.018725167293411005
3000.0,0.018815862601645694
2999.0,0.018951941086827073
2998.0,0.0190880622231564
2997.0,0.0192242260373785
2996.0,0.019315025636685412
2995.0,0.01940584422377989
2994.0,0.01949668180660491
2993.0,0.01958753839310856
2992.0,0.019723858922159776
2991.0,0.01995115493504329
2990.0,0.02013307743509718
2989.0,0.02036058777709271
2988.0,0.020542681902151694
2987.0,0.020724852408976924
2986.0,0.020861530453190058
2985.0,0.0209982515252789
2984.0,0.021135015652343103
2983.0,0.021317434843055594
2982.0,0.021499930688540836
2981.0,0.021773818325474092
2980.0,0.022093572362881675
2979.0,0.022367834754000393
2978.0,0.022642270454698687
2977.0,0.02291687968414724
2976.0,0.023191662661933732
2975.0,0.02351246269481
2974.0,0.023879381700184332
2973.0,0.024292536462819925
2972.0,0.024660115394541604
2971.0,0.024936003904763915
2970.0,0.025258095499050004
2969.0,0.025488307262671706
2968.0,0.025764722556973707
2967.0,0.026041313893296225
2966.0,0.026318081496016443
2965.0,0.02664120011360227
2964.0,0.02696455931306696
2963.0,0.027195677663422346
2962.0,0.027334407733889066
2961.0,0.027426919073445077
2960.0,0.027426919073445077
2959.0,0.027426919073445077
2958.0,0.02738066094037661
2957.0,0.027288159452933503
2956.0,0.027195677663422346
2955.0,0.027056991894431892
2954.0,0.02691835039863255
2953.0,0.026687379547098322
2952.0,0.02636422658259252
2951.0,0.026041313893296225
2950.0,0.02562649291857677
2949.0,0.02521206778644225
2948.0,0.02475205875931885
2947.0,0.024246610963712723
2946.0,0.023741750742954926
2945.0,0.023283295636617574
2944.0,0.02282532397981263
2943.0,0.02245929405346514
2942.0,0.022093572362881675
2941.0,0.021773818325474092
2940.0,0.021499930688540836
2939.0,0.02122621566987748
2938.0,0.020952673052035298
2937.0,0.020724852408976924
2936.0,0.020497151212598652
2935.0,0.02026956933771462
2934.0,0.02013307743509718
2933.0,0.01995115493504329
2932.0,0.019814763052665052
2931.0,0.019723858922159776
2930.0,0.019632973815224997
2929.0,0.01954210772389997
2928.0,0.01949668180660491
2927.0,0.019451260640229506
2926.0,0.019360432556262852
2925.0,0.019269623464054586
2924.0,0.019269623464054586
2923.0,0.019269623464054586
2922.0,0.019360432556262852
2921.0,0.019451260640229506
2920.0,0.01949668180660491
2919.0,0.01949668180660491
2918.0,0.019451260640229506
2917.0,0.01940584422377989
2916.0,0.01940584422377989
2915.0,0.01940584422377989
2914.0,0.01940584422377989
2913.0,0.019451260640229506
2912.0,0.019451260640229506
2911.0,0.019451260640229506
2910.0,0.01949668180660491
2909.0,0.01954210772389997
2908.0,0.019632973815224997
2907.0,0.019723858922159776
2906.0,0.019769308608968306
2905.0,0.019769308608968306
2904.0,0.019814763052665052
2903.0,0.019814763052665052
2902.0,0.019860222254245663
2901.0,0.019860222254245663
2900.0,0.01990568621470623
2899.0,0.01995115493504329
2898.0,0.02004210665933459
2897.0,0.02013307743509718
2896.0,0.02022406727031445
2895.0,0.02026956933771462
2894.0,0.020315076172974234
2893.0,0.020315076172974234
2892.0,0.02036058777709271
2891.0,0.02036058777709271
2890.0,0.020315076172974234
2889.0,0.02026956933771462
2888.0,0.020178569969774962
2887.0,0.02013307743509718
2886.0,0.02013307743509718
2885.0,0.020087589665283012
2884.0,0.02004210665933459
2883.0,0.01990568621470623
2882.0,0.019769308608968306
2881.0,0.019632973815224997
2880.0,0.01954210772389997
2879.0,0.019451260640229506
2878.0,0.019360432556262852
2877.0,0.019315025636685412
2876.0,0.019269623464054586
2875.0,0.0192242260373785
2874.0,0.019178833355664393
2873.0,0.0190880622231564
2872.0,0.019042683770379876
2871.0,0.019042683770379876
2870.0,0.018951941086827073
2869.0,0.018861217359339655
2868.0,0.018725167293411005
2867.0,0.018634490921455527
2866.0,0.018543833477873584
2865.0,0.018498511851753108
2864.0,0.018498511851753108
2863.0,0.018498511851753108
2862.0,0.018498511851753108
2861.0,0.01845319495476394
2860.0,0.01840788278591865
2859.0,0.018362575344230914
2858.0,0.018271974638383703
2857.0,0.018181392829336396
2856.0,0.01809082990920774
2855.0,0.017955020928509757
2854.0,0.017909760704207134
2853.0,0.017864505196230507
2852.0,0.01781925440359733
2851.0,0.017774008325325275
2850.0,0.01768353030793479
2849.0,0.01759307113620534
2848.0,0.017502630802287644
2847.0,0.017367005605150476
2846.0,0.01727661233145472
2845.0,0.017141057687924732
2844.0,0.017050711425501408
2843.0,0.016960383953898095
2842.0,0.016960383953898095
2841.0,0.016915227262211507
2840.0,0.016870075265299933
2839.0,0.01677978535189717
2838.0,0.016689514205884493
2837.0,0.016599261819461697
2836.0,0.016509028184833463
2835.0,0.01646391839700767
2834.0,0.016373712875465518
2833.0,0.01632861713980338
2832.0,0.01632861713980338
2831.0,0.01632861713980338
2830.0,0.01632861713980338
2829.0,0.01628352608625061
2828.0,0.016238439713835096
2827.0,0.016193358021584725
2826.0,0.016148281008528276
2825.0,0.016103208673694303
2824.0,0.016103208673694303
2823.0,0.016013078034810446
2822.0,0.015922966097169144
2821.0,0.015877917138889863
2820.0,0.015877917138889863
2819.0,0.015922966097169144
2818.0,0.01596801972881945
2817.0,0.01596801972881945
2816.0,0.01596801972881945
2815.0,0.01596801972881945
2814.0,0.015922966097169144
2813.0,0.015922966097169144
2812.0,0.015877917138889863
2811.0,0.015877917138889863
2810.0,0.015877917138889863
2809.0,0.015922966097169144
2808.0,0.015922966097169144
2807.0,0.01596801972881945
2806.0,0.015922966097169144
2805.0,0.015877917138889863
2804.0,0.01578783323856614
2803.0,0.015742798294583915
2802.0,0.015742798294583915
2801.0,0.015697768020096703
2800.0,0.015697768020096703
2799.0,0.015697768020096703
2798.0,0.015652742414136167
2797.0,0.015652742414136167
2796.0,0.015652742414136167
2795.0,0.015652742414136167
2794.0,0.015652742414136167
2793.0,0.015652742414136167
2792.0,0.015607721475734415
2791.0,0.015607721475734415
2790.0,0.015562705203923999
2789.0,0.01547268665620738
2788.0,0.01538268676325183
2787.0,0.015337693809893471
2786.0,0.015292705517326866
2785.0,0.015292705517326866
2784.0,0.015292705517326866
2783.0,0.015292705517326866
2782.0,0.015247721884586563
2781.0,0.015202742910707112
2780.0,0.015202742910707112
2779.0,0.015157768594724175
2778.0,0.015157768594724175
2777.0,0.015202742910707112
2776.0,0.015202742910707112
2775.0,0.015247721884586563
2774.0,0.015247721884586563
2773.0,0.015202742910707112
2772.0,0.015157768594724175
2771.0,0.015157768594724175
2770.0,0.015112798935672522
2769.0,0.015157768594724175
2768.0,0.015157768594724175
2767.0,0.015157768594724175
2766.0,0.015202742910707112
2765.0,0.015292705517326866
2764.0,0.015292705517326866
2763.0,0.015292705517326866
2762.0,0.015247721884586563
2761.0,0.015157768594724175
2760.0,0.015112798935672522
2759.0,0.015067833932588037
2758.0,0.015067833932588037
2757.0,0.015067833932588037
2756.0,0.015112798935672522
2755.0,0.015112798935672522
2754.0,0.015112798935672522
2753.0,0.015112798935672522
2752.0,0.015112798935672522
2751.0,0.015112798935672522
2750.0,0.015112798935672522
2749.0,0.015067833932588037
2748.0,0.015067833932588037
2747.0,0.015022873584506602
2746.0,0.015022873584506602
2745.0,0.015022873584506602
2744.0,0.015022873584506602
2743.0,0.015022873584506602
2742.0,0.014977917890464765
2741.0,0.014932966849499074
2740.0,0.014932966849499074
2739.0,0.014888020460646079
2738.0,0.014843078722943437
2737.0,0.014843078722943437
2736.0,0.014843078722943437
2735.0,0.014843078722943437
2734.0,0.014843078722943437
2733.0,0.014843078722943437
2732.0,0.014888020460646079
2731.0,0.014932966849499074
2730.0,0.014888020460646079
2729.0,0.014843078722943437
2728.0,0.014798141635428141
2727.0,0.014753209197138295
2726.0,0.014708281407112
2725.0,0.014618439768003144
2724.0,0.014573525916998342
2723.0,0.014573525916998342
2722.0,0.014573525916998342
2721.0,0.014618439768003144
2720.0,0.014573525916998342
2719.0,0.014573525916998342
2718.0,0.014573525916998342
2717.0,0.014573525916998342
2716.0,0.014573525916998342
2715.0,0.014573525916998342
2714.0,0.014573525916998342
2713.0,0.01452861671041239
2712.0,0.01452861671041239
2711.0,0.014573525916998342
2710.0,0.014573525916998342
2709.0,0.014618439768003144
2708.0,0.014663358264387139
2707.0,0.014708281407112
2706.0,0.014708281407112
2705.0,0.014663358264387139
2704.0,0.014573525916998342
2703.0,0.01452861671041239
2702.0,0.0144837121472845
2701.0,0.0144837121472845
2700.0,0.0144837121472845
2699.0,0.0144837121472845
2698.0,0.0144837121472845
2697.0,0.0144837121472845
2696.0,0.0144837121472845
2695.0,0.0144837121472845
2694.0,0.014438812226654996
2693.0,0.014438812226654996
2692.0,0.014393916947563534
2691.0,0.014393916947563534
2690.0,0.014438812226654996
2689.0,0.014393916947563534
2688.0,0.014393916947563534
2687.0,0.014349026309051105
2686.0,0.014304140310157809
2685.0,0.014304140310157809
2684.0,0.014349026309051105
2683.0,0.014393916947563534
2682.0,0.014393916947563534
2681.0,0.014349026309051105
2680.0,0.014304140310157809
2679.0,0.014304140310157809
2678.0,0.014259258949925524
2677.0,0.014259258949925524
2676.0,0.014259258949925524
2675.0,0.014304140310157809
2674.0,0.014304140310157809
2673.0,0.014304140310157809
2672.0,0.014304140310157809
2671.0,0.014304140310157809
2670.0,0.014304140310157809
2669.0,0.014214382227394795
2668.0,0.014124642691606404
2667.0,0.014079779876432497
2666.0,0.014124642691606404
2665.0,0.014169510141607944
2664.0,0.014214382227394795
2663.0,0.014214382227394795
2662.0,0.014214382227394795
2661.0,0.014214382227394795
2660.0,0.014214382227394795
2659.0,0.014259258949925524
2658.0,0.014259258949925524
2657.0,0.014169510141607944
2656.0,0.014079779876432497
2655.0,0.01403492169512921
2654.0,0.01403492169512921
2653.0,0.013990068146738865
2652.0,0.013990068146738865
2651.0,0.013990068146738865
2650.0,0.01403492169512921
2649.0,0.014079779876432497
2648.0,0.014124642691606404
2647.0,0.014169510141607944
2646.0,0.014214382227394795
2645.0,0.014214382227394795
2644.0,0.014214382227394795
2643.0,0.014214382227394795
2642.0,0.014214382227394795
2641.0,0.014214382227394795
2640.0,0.014214382227394795
2639.0,0.014169510141607944
2638.0,0.014214382227394795
2637.0,0.014259258949925524
2636.0,0.014304140310157809
2635.0,0.014349026309051105
2634.0,0.014349026309051105
2633.0,0.014393916947563534
2632.0,0.014393916947563534
2631.0,0.014393916947563534
2630.0,0.014349026309051105
2629.0,0.014349026309051105
2628.0,0.014304140310157809
2627.0,0.014304140310157809
2626.0,0.014304140310157809
2625.0,0.014304140310157809
2624.0,0.014304140310157809
2623.0,0.014259258949925524
2622.0,0.014214382227394795
2621.0,0.014169510141607944
2620.0,0.014124642691606404
2619.0,0.014124642691606404
2618.0,0.014124642691606404
2617.0,0.014124642691606404
2616.0,0.014124642691606404
2615.0,0.014124642691606404
2614.0,0.014124642691606404
2613.0,0.014169510141607944
2612.0,0.014169510141607944
2611.0,0.014214382227394795
2610.0,0.014214382227394795
2609.0,0.014214382227394795
2608.0,0.014169510141607944
2607.0,0.014169510141607944
2606.0,0.014169510141607944
2605.0,0.014124642691606404
2604.0,0.014124642691606404
2603.0,0.014079779876432497
2602.0,0.014079779876432497
2601.0,0.014079779876432497
2600.0,0.014079779876432497
2599.0,0.014079779876432497
2598.0,0.014079779876432497
2597.0,0.014124642691606404
2596.0,0.014214382227394795
2595.0,0.014259258949925524
2594.0,0.014304140310157809
2593.0,0.014349026309051105
2592.0,0.014304140310157809
2591.0,0.014259258949925524
2590.0,0.014259258949925524
2589.0,0.014259258949925524
2588.0,0.014304140310157809
2587.0,0.014349026309051105
2586.0,0.014393916947563534
2585.0,0.014393916947563534
2584.0,0.014438812226654996
2583.0,0.014438812226654996
2582.0,0.014438812226654996
2581.0,0.014438812226654996
2580.0,0.014438812226654996
2579.0,0.014393916947563534
2578.0,0.014393916947563534
2577.0,0.014304140310157809
2576.0,0.014259258949925524
2575.0,0.014259258949925524
2574.0,0.014259258949925524
2573.0,0.014259258949925524
2572.0,0.014259258949925524
2571.0,0.014259258949925524
2570.0,0.014259258949925524
2569.0,0.014259258949925524
2568.0,0.014304140310157809
2567.0,0.014304140310157809
2566.0,0.014304140310157809
2565.0,0.014349026309051105
2564.0,0.014349026309051105
2563.0,0.014349026309051105
2562.0,0.014349026309051105
2561.0,0.014304140310157809
2560.0,0.014304140310157809
2559.0,0.014304140310157809
2558.0,0.014304140310157809
2557.0,0.014259258949925524
2556.0,0.014259258949925524
2555.0,0.014214382227394795
2554.0,0.014214382227394795
2553.0,0.014304140310157809
2552.0,0.014349026309051105
2551.0,0.014438812226654996
2550.0,0.014438812226654996
2549.0,0.014438812226654996
2548.0,0.014438812226654996
2547.0,0.014393916947563534
2546.0,0.014349026309051105
2545.0,0.014304140310157809
2544.0,0.014304140310157809
2543.0,0.014304140310157809
2542.0,0.014259258949925524
2541.0,0.014259258949925524
2540.0,0.014304140310157809
2539.0,0.014304140310157809
2538.0,0.014304140310157809
2537.0,0.014304140310157809
2536.0,0.014259258949925524
2535.0,0.014259258949925524
2534.0,0.014214382227394795
2533.0,0.014214382227394795
2532.0,0.014259258949925524
2531.0,0.014304140310157809
2530.0,0.014349026309051105
2529.0,0.014349026309051105
2528.0,0.014304140310157809
2527.0,0.014259258949925524
2526.0,0.014214382227394795
2525.0,0.014169510141607944
2524.0,0.014169510141607944
2523.0,0.014169510141607944
2522.0,0.014169510141607944
2521.0,0.014169510141607944
2520.0,0.014169510141607944
2519.0,0.014169510141607944
2518.0,0.014169510141607944
2517.0,0.014169510141607944
2516.0,0.014124642691606404
2515.0,0.014079779876432497
2514.0,0.01403492169512921
2513.0,0.014079779876432497
2512.0,0.014124642691606404
2511.0,0.014214382227394795
2510.0,0.014259258949925524
2509.0,0.014259258949925524
2508.0,0.014214382227394795
2507.0,0.014124642691606404
2506.0,0.014079779876432497
2505.0,0.01403492169512921
2504.0,0.01403492169512921
2503.0,0.01403492169512921
2502.0,0.01403492169512921
2501.0,0.01403492169512921
2500.0,0.01403492169512921
2499.0,0.013990068146738865
2498.0,0.013990068146738865
2497.0,0.013945219230304673
2496.0,0.013900374944870508
2495.0,0.01381070026317599
2494.0,0.01381070026317599
2493.0,0.01381070026317599
2492.0,0.01381070026317599
2491.0,0.01385553528947936
2490.0,0.01381070026317599
2489.0,0.013765869865004277
2488.0,0.01372104409400876
2487.0,0.01372104409400876
2486.0,0.013676222949234651
2485.0,0.013676222949234651
2484.0,0.013631406429727155
2483.0,0.013586594534531482
2482.0,0.013586594534531482
2481.0,0.013586594534531482
2480.0,0.013631406429727155
2479.0,0.013676222949234651
2478.0,0.013676222949234651
2477.0,0.013676222949234651
2476.0,0.013631406429727155
2475.0,0.013586594534531482
2474.0,0.013496984613259544
2473.0,0.013452186585275916
2472.0,0.013407393177789162
2471.0,0.013452186585275916
2470.0,0.013541787262693505
2469.0,0.013541787262693505
2468.0,0.013496984613259544
2467.0,0.013452186585275916
2466.0,0.013362604389846044
2465.0,0.013362604389846044
2464.0,0.013362604389846044
2463.0,0.013407393177789162
2462.0,0.013407393177789162
2461.0,0.013407393177789162
2460.0,0.013362604389846044
2459.0,0.013317820220494436
2458.0,0.013317820220494436
2457.0,0.013362604389846044
2456.0,0.013362604389846044
2455.0,0.013362604389846044
2454.0,0.013362604389846044
2453.0,0.013362604389846044
2452.0,0.013317820220494436
2451.0,0.013273040668781544
2450.0,0.01322826573375524
2449.0,0.01322826573375524
2448.0,0.013273040668781544
2447.0,0.013317820220494436
2446.0,0.013362604389846044
2445.0,0.013407393177789162
2444.0,0.013407393177789162
2443.0,0.013362604389846044
2442.0,0.013317820220494436
2441.0,0.013273040668781544
2440.0,0.013273040668781544
2439.0,0.013273040668781544
2438.0,0.01322826573375524
2437.0,0.01322826573375524
2436.0,0.01322826573375524
2435.0,0.013273040668781544
2434.0,0.013273040668781544
2433.0,0.013317820220494436
2432.0,0.013273040668781544
2431.0,0.013317820220494436
2430.0,0.013362604389846044
2429.0,0.013407393177789162
2428.0,0.013407393177789162
2427.0,0.013407393177789162
2426.0,0.013407393177789162
2425.0,0.013407393177789162
2424.0,0.013452186585275916
2423.0,0.013452186585275916
2422.0,0.013496984613259544
2421.0,0.013541787262693505
2420.0,0.013541787262693505
2419.0,0.013496984613259544
2418.0,0.013496984613259544
2417.0,0.013496984613259544
2416.0,0.013496984613259544
2415.0,0.013452186585275916
2414.0,0.013452186585275916
2413.0,0.013407393177789162
2412.0,0.013407393177789162
2411.0,0.013407393177789162
2410.0,0.013452186585275916
2409.0,0.013496984613259544
2408.0,0.013586594534531482
2407.0,0.013631406429727155
2406.0,0.013676222949234651
2405.0,0.01372104409400876
2404.0,0.01372104409400876
2403.0,0.013765869865004277
2402.0,0.01381070026317599
2401.0,0.01381070026317599
2400.0,0.01385553528947936
2399.0,0.01385553528947936
2398.0,0.01385553528947936
2397.0,0.01385553528947936
2396.0,0.01385553528947936
2395.0,0.01385553528947936
2394.0,0.01385553528947936
2393.0,0.013900374944870508
2392.0,0.013945219230304673
2391.0,0.013945219230304673
2390.0,0.01403492169512921
2389.0,0.014079779876432497
2388.0,0.014214382227394795
2387.0,0.014349026309051105
2386.0,0.014438812226654996
2385.0,0.014573525916998342
2384.0,0.014708281407112
2383.0,0.014888020460646079
2382.0,0.015022873584506602
2381.0,0.015247721884586563
2380.0,0.015517693597737248
2379.0,0.015877917138889863
2378.0,0.016058141016111804
2377.0,0.01578783323856614
2376.0,0.015067833932588037
2375.0,0.014079779876432497
2374.0,0.012959713020733288
2373.0,0.011797899741219142
2372.0,0.010995384301463185
2371.0,0.011218156546359825
2370.0,0.012333735073725371
2369.0,0.013093968619278806
2368.0,0.013273040668781544
2367.0,0.014349026309051105
2366.0,0.01628352608625061
2365.0,0.019042683770379876
2364.0,0.024246610963712723
2363.0,0.029839156962686353
2362.0,0.028863370523193765
2361.0,0.02140867317992523
2360.0,0.017774008325325275
2359.0,0.023054249440757957
2358.0,0.029653123769906697
2357.0,0.03030458888152676
2356.0,0.02738066094037661
2355.0,0.02259651912656535
2354.0,0.014618439768003144
2353.0,0.007844288957383316
2352.0,0.008109696063975047
2351.0,0.013765869865004277
2350.0,0.018770512579999288
2349.0,0.018951941086827073
2348.0,0.013990068146738865
2347.0,0.008640997362049818
2346.0,0.008330992620051436
2345.0,0.015247721884586563
2344.0,0.026225806029419818
2343.0,0.03541041251009669
2342.0,0.036117771071222604
2341.0,0.02812138297373412
2340.0,0.020770406977844713
2339.0,0.018362575344230914
2338.0,0.01800028587012159
2337.0,0.016058141016111804
2336.0,0.013317820220494436
2335.0,0.010594681998483901
2334.0,0.007313960837872058
2333.0,0.0036634819042162814
2332.0,0.0019587356365717845
2331.0,0.0018278780605593958
2330.0,0.0016970599014589638
2329.0,0.0020459959305969555
2328.0,0.0037510854308679953
2327.0,0.00656376950238835
2326.0,0.007888512213050314
2325.0,0.0075790439479759275
2324.0,0.007534852191956709
2323.0,0.008463824699968647
2322.0,0.010060986715464404
2321.0,0.011530229790124524
2320.0,0.01318349541446362
2319.0,0.014798141635428141
2318.0,0.01628352608625061
2317.0,0.016870075265299933
2316.0,0.01677978535189717
2315.0,0.016148281008528276
2314.0,0.015427684378367834
2313.0,0.014753209197138295
2312.0,0.014169510141607944
2311.0,0.013676222949234651
2310.0,0.013273040668781544
2309.0,0.012914970375878188
2308.0,0.012825498912458322
2307.0,0.012914970375878188
2306.0,0.013093968619278806
2305.0,0.013093968619278806
2304.0,0.012914970375878188
2303.0,0.01260190086298274
2302.0,0.012289056869694281
2301.0,0.012021084124518078
2300.0,0.011887159731648111
2299.0,0.011842527443247208
2298.0,0.011797899741219142
2297.0,0.011708658092512314
2296.0,0.011574829993696856
2295.0,0.011485634166333858
2294.0,0.011441043121384498
2293.0,0.011574829993696856
2292.0,0.011708658092512314
2291.0,0.011931796607364653
2290.0,0.012110390002254778
2289.0,0.012289056869694281
2288.0,0.012512493866907004
2287.0,0.012780770091995297
2286.0,0.013004460275618523
2285.0,0.01322826573375524
2284.0,0.013273040668781544
2283.0,0.013138729709955221
2282.0,0.012870232340102872
2281.0,0.012557195064198723
2280.0,0.012289056869694281
2279.0,0.012110390002254778
2278.0,0.0119764380713403
2277.0,0.011887159731648111
2276.0,0.011797899741219142
2275.0,0.011753276624621556
2274.0,0.011708658092512314
2273.0,0.011664044143949504
2272.0,0.011619434777991433
2271.0,0.011664044143949504
2270.0,0.011664044143949504
2269.0,0.011708658092512314
2268.0,0.011708658092512314
2267.0,0.011708658092512314
2266.0,0.011753276624621556
2265.0,0.011842527443247208
2264.0,0.0119764380713403
2263.0,0.012110390002254778
2262.0,0.012199714248127602
2261.0,0.012199714248127602
2260.0,0.012244383261476699
2259.0,0.012244383261476699
2258.0,0.012333735073725371
2257.0,0.012423105273012602
2256.0,0.012557195064198723
2255.0,0.01264661126420652
2254.0,0.012736045877764557
2253.0,0.012780770091995297
2252.0,0.012780770091995297
2251.0,0.012825498912458322
2250.0,0.012870232340102872
2249.0,0.012914970375878188
2248.0,0.012959713020733288
2247.0,0.013004460275618523
2246.0,0.013004460275618523
2245.0,0.013004460275618523
2244.0,0.013049212141483357
2243.0,0.013093968619278806
2242.0,0.013138729709955221
2241.0,0.01318349541446362
2240.0,0.01318349541446362
2239.0,0.01318349541446362
2238.0,0.013138729709955221
2237.0,0.013093968619278806
2236.0,0.013093968619278806
2235.0,0.013138729709955221
2234.0,0.013138729709955221
2233.0,0.013138729709955221
2232.0,0.013093968619278806
2231.0,0.013049212141483357
2230.0,0.013004460275618523
2229.0,0.012959713020733288
2228.0,0.012959713020733288
2227.0,0.012959713020733288
2226.0,0.012914970375878188
2225.0,0.012825498912458322
2224.0,0.012780770091995297
2223.0,0.012780770091995297
2222.0,0.012780770091995297
2221.0,0.012825498912458322
2220.0,0.012825498912458322
2219.0,0.012825498912458322
2218.0,0.012825498912458322
2217.0,0.012825498912458322
2216.0,0.012825498912458322
2215.0,0.012825498912458322
2214.0,0.012870232340102872
2213.0,0.012870232340102872
2212.0,0.012870232340102872
2211.0,0.012825498912458322
2210.0,0.012780770091995297
2209.0,0.012736045877764557
2208.0,0.012691326268817527
2207.0,0.012691326268817527
2206.0,0.012691326268817527
2205.0,0.012691326268817527
2204.0,0.012691326268817527
2203.0,0.012691326268817527
2202.0,0.01264661126420652
2201.0,0.01260190086298274
2200.0,0.012557195064198723
2199.0,0.012557195064198723
2198.0,0.012557195064198723
2197.0,0.012557195064198723
2196.0,0.012557195064198723
2195.0,0.012512493866907004
2194.0,0.012512493866907004
2193.0,0.012467797270160563
2192.0,0.012467797270160563
2191.0,0.012423105273012602
2190.0,0.012378417874516323
2189.0,0.012378417874516323
2188.0,0.012333735073725371
2187.0,0.012333735073725371
2186.0,0.012333735073725371
2185.0,0.012289056869694281
2184.0,0.012244383261476699
2183.0,0.012244383261476699
2182.0,0.012199714248127602
2181.0,0.012199714248127602
2180.0,0.01215504982870197
2179.0,0.01215504982870197
2178.0,0.012110390002254778
2177.0,0.012065734767841452
2176.0,0.012065734767841452
2175.0,0.012065734767841452
2174.0,0.012065734767841452
2173.0,0.012065734767841452
2172.0,0.012065734767841452
2171.0,0.012065734767841452
2170.0,0.012110390002254778
2169.0,0.012110390002254778
2168.0,0.01215504982870197
2167.0,0.012199714248127602
2166.0,0.012244383261476699
2165.0,0.012199714248127602
2164.0,0.012199714248127602
2163.0,0.012199714248127602
2162.0,0.01215504982870197
2161.0,0.01215504982870197
2160.0,0.01215504982870197
2159.0,0.01215504982870197
2158.0,0.012199714248127602
2157.0,0.012199714248127602
2156.0,0.012199714248127602
2155.0,0.012199714248127602
2154.0,0.012199714248127602
2153.0,0.01215504982870197
2152.0,0.012110390002254778
2151.0,0.012110390002254778
2150.0,0.01215504982870197
2149.0,0.012244383261476699
2148.0,0.012289056869694281
2147.0,0.012289056869694281
2146.0,0.012289056869694281
2145.0,0.012244383261476699
2144.0,0.012244383261476699
2143.0,0.012244383261476699
2142.0,0.012244383261476699
2141.0,0.012289056869694281
2140.0,0.012289056869694281
2139.0,0.012378417874516323
2138.0,0.012378417874516323
2137.0,0.012333735073725371
2136.0,0.012289056869694281
2135.0,0.012244383261476699
2134.0,0.012244383261476699
2133.0,0.012244383261476699
2132.0,0.012244383261476699
2131.0,0.012244383261476699
2130.0,0.012244383261476699
2129.0,0.012199714248127602
2128.0,0.012199714248127602
2127.0,0.012199714248127602
2126.0,0.012289056869694281
2125.0,0.012333735073725371
2124.0,0.012333735073725371
2123.0,0.012333735073725371
2122.0,0.012333735073725371
2121.0,0.012333735073725371
2120.0,0.012333735073725371
2119.0,0.012333735073725371
2118.0,0.012378417874516323
2117.0,0.012333735073725371
2116.0,0.012333735073725371
2115.0,0.012378417874516323
2114.0,0.012378417874516323
2113.0,0.012333735073725371
2112.0,0.012289056869694281
2111.0,0.012244383261476699
2110.0,0.012244383261476699
2109.0,0.012199714248127602
2108.0,0.01215504982870197
2107.0,0.012110390002254778
2106.0,0.012065734767841452
2105.0,0.0119764380713403
2104.0,0.011931796607364653
2103.0,0.011842527443247208
2102.0,0.011797899741219142
2101.0,0.011753276624621556
2100.0,0.011753276624621556
2099.0,0.011797899741219142
2098.0,0.011797899741219142
2097.0,0.011753276624621556
2096.0,0.011708658092512314
2095.0,0.011664044143949504
2094.0,0.011619434777991433
2093.0,0.011530229790124524
2092.0,0.011485634166333858
2091.0,0.011441043121384498
2090.0,0.011396456654336085
2089.0,0.011351874764248926
2088.0,0.011307297450183107
2087.0,0.011307297450183107
2086.0,0.011262724711199823
2085.0,0.011262724711199823
2084.0,0.011218156546359825
2083.0,0.011218156546359825
2082.0,0.011218156546359825
2081.0,0.01117359295472431
2080.0,0.011084479487313281
2079.0,0.010995384301463185
2078.0,0.010950843561779777
2077.0,0.010906307389674463
2076.0,0.010950843561779777
2075.0,0.010950843561779777
2074.0,0.010906307389674463
2073.0,0.010817248744452446
2072.0,0.010728208358306901
2071.0,0.010683695010048622
2070.0,0.010639186223752484
2069.0,0.010594681998483901
2068.0,0.010550182333308289
2067.0,0.010505687227290839
2066.0,0.010505687227290839
2065.0,0.010505687227290839
2064.0,0.010416710688994968
2063.0,0.01037222925484893
2062.0,0.010283280051895272
2061.0,0.01023881228122181
2060.0,0.01023881228122181
2059.0,0.01023881228122181
2058.0,0.010194349063173958
2057.0,0.010105436281226954
2056.0,0.01001654169860089
2055.0,0.009972101229705377
2054.0,0.009972101229705377
2053.0,0.009972101229705377
2052.0,0.009972101229705377
2051.0,0.009972101229705377
2050.0,0.009927665307847056
2049.0,0.009883233932095559
2048.0,0.009838807101520963
2047.0,0.009794384815193347
2046.0,0.009705553871561357
2045.0,0.00966114521239847
2044.0,0.009616741093766423
2043.0,0.00966114521239847
2042.0,0.009705553871561357
2041.0,0.009705553871561357
2040.0,0.009705553871561357
2039.0,0.009705553871561357
2038.0,0.00966114521239847
2037.0,0.009616741093766423
2036.0,0.009572341514736404
2035.0,0.009527946474380489
2034.0,0.009483555971770974
2033.0,0.009439170005980158
2032.0,0.009439170005980158
2031.0,0.009439170005980158
2030.0,0.009439170005980158
2029.0,0.009439170005980158
2028.0,0.009439170005980158
2027.0,0.009439170005980158
2026.0,0.009439170005980158
2025.0,0.009350411681145587
2024.0,0.009350411681145587
2023.0,0.009350411681145587
2022.0,0.009350411681145587
2021.0,0.00939478857608056
2020.0,0.00939478857608056
2019.0,0.009350411681145587
2018.0,0.009350411681145587
2017.0,0.009306039320248427
2016.0,0.009261671492462709
2015.0,0.009306039320248427
2014.0,0.009306039320248427
2013.0,0.009306039320248427
2012.0,0.009350411681145587
2011.0,0.009350411681145587
2010.0,0.00939478857608056
2009.0,0.009350411681145587
2008.0,0.009350411681145587
2007.0,0.009350411681145587
2006.0,0.009350411681145587
2005.0,0.009350411681145587
2004.0,0.009350411681145587
2003.0,0.00939478857608056
2002.0,0.00939478857608056
2001.0,0.00939478857608056
2000.0,0.009439170005980158
1999.0,0.009439170005980158
1998.0,0.009483555971770974
1997.0,0.009527946474380489
1996.0,0.009572341514736404
1995.0,0.009572341514736404
1994.0,0.009616741093766423
1993.0,0.009616741093766423
1992.0,0.009616741093766423
1991.0,0.009616741093766423
1990.0,0.009616741093766423
1989.0,0.009572341514736404
1988.0,0.009572341514736404
1987.0,0.009572341514736404
1986.0,0.009616741093766423
1985.0,0.009616741093766423
1984.0,0.00966114521239847
1983.0,0.00966114521239847
1982.0,0.00966114521239847
1981.0,0.00966114521239847
1980.0,0.009705553871561357
1979.0,0.00974996707218323
1978.0,0.009794384815193347
1977.0,0.00974996707218323
1976.0,0.00974996707218323
1975.0,0.009794384815193347
1974.0,0.009838807101520963
1973.0,0.009883233932095559
1972.0,0.009927665307847056
1971.0,0.009972101229705377
1970.0,0.01001654169860089
1969.0,0.01001654169860089
1968.0,0.01001654169860089
1967.0,0.010060986715464404
1966.0,0.010149890396819572
1965.0,0.010149890396819572
1964.0,0.010194349063173958
1963.0,0.010283280051895272
1962.0,0.01037222925484893
1961.0,0.01046119667949763
1960.0,0.010550182333308289
1959.0,0.010639186223752484
1958.0,0.010683695010048622
1957.0,0.010728208358306901
1956.0,0.010728208358306901
1955.0,0.01077272626946324
1954.0,0.01077272626946324
1953.0,0.01077272626946324
1952.0,0.01077272626946324
1951.0,0.010817248744452446
1950.0,0.010817248744452446
1949.0,0.010817248744452446
1948.0,0.010817248744452446
1947.0,0.010817248744452446
1946.0,0.01086177578421088
1945.0,0.01086177578421088
1944.0,0.01077272626946324
1943.0,0.010639186223752484
1942.0,0.010505687227290839
1941.0,0.01037222925484893
1940.0,0.010194349063173958
1939.0,0.010060986715464404
1938.0,0.009927665307847056
1937.0,0.009794384815193347
1936.0,0.00966114521239847
1935.0,0.009527946474380489
1934.0,0.00939478857608056
1933.0,0.009261671492462709
1932.0,0.009128595198514056
1931.0,0.009039900317800775
1930.0,0.008951223547323472
1929.0,0.008818242332126802
1928.0,0.008773924307505121
1927.0,0.0087296108049002
1926.0,0.008685301823389224
1925.0,0.008596697419959609
1924.0,0.00850811108984062
1923.0,0.008419542825660153
1922.0,0.008330992620051436
1921.0,0.008242460465651913
1920.0,0.008109696063975047
1919.0,0.007932739972333236
1918.0,0.007844288957383316
1917.0,0.007711646202907652
1916.0,0.00762324020119709
1915.0,0.0075790439479759275
1914.0,0.007534852191956709
1913.0,0.007490664932224611
1912.0,0.0074464821678643656
1911.0,0.007402303897961815
1910.0,0.007313960837872058
1909.0,0.007137328610972382
1908.0,0.00696076819309055
1907.0,0.006828394969235152
1906.0,0.006740168563263094
1905.0,0.006607862550997545
1904.0,0.006475596832934416
1903.0,0.006387442061109638
1902.0,0.006343371384537999
1901.0,0.006299305179649828
1900.0,0.00625524344553785
1899.0,0.00621118618129457
1898.0,0.00621118618129457
1897.0,0.00612308505878878
1896.0,0.005990966876386672
1895.0,0.005858888873877532
1894.0,0.00577085918230158
1893.0,0.005682847330363394
1892.0,0.005594853310833647
1891.0,0.005506877116487674
1890.0,0.00541891874010525
1889.0,0.0052870145684298375
1888.0,0.005155150446602086
1887.0,0.005111204635089406
1886.0,0.005023326350308999
1885.0,0.004935465843858511
1884.0,0.00484762310854614
1883.0,0.004803708402820517
1882.0,0.004759798137184523
1881.0,0.004671990922590297
1880.0,0.00458420145758498
1879.0,0.004540313378935901
1878.0,0.0044964297349936455
1877.0,0.004452550524862486
1876.0,0.0043648054024501
1875.0,0.004277078004534696
1874.0,0.004233220950025984
1873.0,0.004189368323957332
1872.0,0.004145520125434121
1871.0,0.004189368323957332
1870.0,0.004189368323957332
1869.0,0.004101676353562844
1868.0,0.0040578370074493275
1867.0,0.00401400208620073
1866.0,0.003970171588923321
1865.0,0.0038825238627120395
1864.0,0.003794893821675638
1863.0,0.003707281458678491
1862.0,0.003619686766589858
1861.0,0.003488327845821315
1860.0,0.0034445503666347133
1859.0,0.0034007772998332353
1858.0,0.0034007772998332353
1857.0,0.0033132443998284966
1856.0,0.0032694845648473247
1855.0,0.0032694845648473247
1854.0,0.0032694845648473247
1853.0,0.0032694845648473247
1852.0,0.0032694845648473247
1851.0,0.0032694845648473247
1850.0,0.0033132443998284966
1849.0,0.0033132443998284966
1848.0,0.0033132443998284966
1847.0,0.0033132443998284966
1846.0,0.0032694845648473247
1845.0,0.0031382315093266833
1844.0,0.0030944893043338695
1843.0,0.0031819781204844855
1842.0,0.0033132443998284966
1841.0,0.0033570086445275926
1840.0,0.0033570086445275926
1839.0,0.0034007772998332353
1838.0,0.0033570086445275926
1837.0,0.0033132443998284966
1836.0,0.0032694845648473247
1835.0,0.0033570086445275926
1834.0,0.003488327845821315
1833.0,0.0036634819042162814
1832.0,0.003794893821675638
1831.0,0.0038387066319929275
1830.0,0.003794893821675638
1829.0,0.003707281458678491
1828.0,0.0036634819042162814
1827.0,0.0036634819042162814
1826.0,0.003619686766589858
1825.0,0.0034007772998332353
1824.0,0.0031819781204844855
1823.0,0.0030944893043338695
1822.0,0.0030070181092942683
1821.0,0.0029195645282691363
1820.0,0.0028321285541661467
1819.0,0.0027884171674950053
1818.0,0.002701007590486082
1817.0,0.002569926202528716
1816.0,0.0024388843664115978
1815.0,0.002395212539545666
1814.0,0.002351545103793873
1813.0,0.0022205691343961664
1812.0,0.0020023635919956817
1811.0,0.0018278780605593958
1810.0,0.001609869681952425
1809.0,0.0014355417390583547
1808.0,0.0012612837441823288
1807.0,0.0012177301682640973
1806.0,0.0012177301682640973
1805.0,0.0011741809597138886
1804.0,0.0010870956412141197
1803.0,0.0010000277816797354
1802.0,0.0009129773741116676
1801.0,0.0006954276616513155
1800.0,0.00043451177401765406
1799.0,0.00026065489343207737
1798.0,0.0001303078917322953
1797.0,-4.3427276862573194e-05
1796.0,-0.00017368305846510168
1795.0,-0.0002604985473904087
1794.0,-0.0003906892499099257
1793.0,-0.0007810273534953893
1792.0,-0.0011710149414008164
1791.0,-0.0013009330204178937
1790.0,-0.001344230411601366
1789.0,-0.0014308122463981832
1788.0,-0.0015606526425728795
1787.0,-0.0016039241497978196
1786.0,-0.0016904542321527494
1785.0,-0.0018634626925240205
1784.0,-0.0019931738235303698
1783.0,-0.0019499410842680476
1782.0,-0.0019499410842680476
1781.0,-0.0021660617565077978
1780.0,-0.0024684501283323
1779.0,-0.0025548081484823015
1778.0,-0.0025548081484823015
1777.0,-0.002597980719908577
1776.0,-0.0026411490000399773
1775.0,-0.0026411490000399773
1774.0,-0.0026411490000399773
1773.0,-0.0029863408567849525
1772.0,-0.0032881588260753603
1771.0,-0.0033312585613267665
1770.0,-0.0032881588260753603
1769.0,-0.0034174452021935586
1768.0,-0.003503614742536687
1767.0,-0.0032881588260753603
1766.0,-0.0029863408567849525
1765.0,-0.0027274726898296464
1764.0,-0.0025548081484823015
1763.0,-0.0022092729880145434
1762.0,-0.0018634626925240205
1761.0,-0.001474096691732818
1760.0,-0.0009977303577937136
1759.0,-0.00021709297223004853
1758.0,0.0006084382809090627
1757.0,0.0014355417390583547
1756.0,0.002351545103793873
1755.0,0.0035321097382827737
1754.0,0.00484762310854614
1753.0,0.00621118618129457
1752.0,0.008153946355103248
1751.0,0.010995384301463185
1750.0,0.014393916947563534
1749.0,0.017909760704207134
1748.0,0.021773818325474092
1747.0,0.02613355016462182
1746.0,0.031003673351687855
1745.0,0.036542739883292485
1744.0,0.043063586155803746
1743.0,0.050317309204795935
1742.0,0.05799194697768684
1741.0,0.06681652082538614
1740.0,0.0777417765670334
1739.0,0.08905559425002108
1738.0,0.09777947172068524
1737.0,0.10408045468998406
1736.0,0.11125903931710734
1735.0,0.1249387366082999
1734.0,0.1446020033459312
1733.0,0.16077342598656452
1732.0,0.17153345264732156
1731.0,0.18203819546800593
1730.0,0.1940236492824372
1729.0,0.2065588670223364
1728.0,0.2181010806488508
1727.0,0.22892721677880523
1726.0,0.23987921473543228
1725.0,0.25181197299379954
1724.0,0.26464066699828925
1723.0,0.27695500835655484
1722.0,0.28676153845433827
1721.0,0.2933675491267054
1720.0,0.298518364379073
1719.0,0.30636097383845184
1718.0,0.31921138849331765
1717.0,0.3308691526266674
1716.0,0.3356401254488588
1715.0,0.33611070137733856
1714.0,0.3337629041041956
1713.0,0.3279945549770482
1712.0,0.31893975636818817
1711.0,0.3078583906332164
1710.0,0.29550630299070124
1709.0,0.2819968317329824
1708.0,0.2670436304243753
1707.0,0.2503409679051003
1706.0,0.23225063265442003
1705.0,0.21566805197785177
1704.0,0.20238626984692432
1703.0,0.191383964573008
1702.0,0.180127178049454
1701.0,0.16698045292346864
1700.0,0.15428198203334142
1699.0,0.14551177495556966
1698.0,0.13924287691845794
1697.0,0.13282724882135022
1696.0,0.12586622117202761
1695.0,0.1199871616332282
1694.0,0.11582793047608719
1693.0,0.11260778102815316
1692.0,0.10941133229451272
1691.0,0.10612732120491852
1690.0,0.10308815917397474
1689.0,0.10067205012234592
1688.0,0.09848719087006019
1687.0,0.0960964733098364
1686.0,0.09371884422784693
1685.0,0.09205147838772776
1684.0,0.09130056764777605
1683.0,0.09017663034908807
1682.0,0.08836306687055773
1681.0,0.08634506491338012
1680.0,0.08423093401631587
1679.0,0.08191721535781271
1678.0,0.07951143534170213
1677.0,0.07717078033335123
1676.0,0.07489427319033615
1675.0,0.07283502570063005
1674.0,0.07109230975604719
1673.0,0.06961138175567827
1672.0,0.0680846829187538
1671.0,0.0663102910421054
1670.0,0.06449273417528723
1669.0,0.06293368798257193
1668.0,0.06148027482350815
1667.0,0.06003170944866376
1666.0,0.05863766428823891
1665.0,0.05724807957018618
1664.0,0.05586292684190197
1663.0,0.05453141486818014
1662.0,0.053351266093323746
1661.0,0.05227227303668425
1660.0,0.05129369109514803
1659.0,0.05021979163799939
1658.0,0.04919717703534143
1657.0,0.048128442871635535
1656.0,0.0469171560879138
1655.0,0.045564513671517703
1654.0,0.04455278942230456
1653.0,0.044456557540257124
1652.0,0.04450467081587295
1651.0,0.044360346976747955
1650.0,0.044071843103049346
1649.0,0.04344740808260106
1648.0,0.04272802000705722
1647.0,0.04210551278710151
1646.0,0.041627267521392675
1645.0,0.041197296600497646
1644.0,0.04086316882962593
1643.0,0.04043395336207234
1642.0,0.0400527842915015
1641.0,0.03981472339538916
1640.0,0.03957679292217042
1639.0,0.03919637508823026
1638.0,0.038721320914956836
1637.0,0.038436537637930535
1636.0,0.03848398855105106
1635.0,0.03838909190871931
1634.0,0.038151940981675736
1633.0,0.03796231343498735
1632.0,0.03777276864991497
1631.0,0.037583306554248797
1630.0,0.037583306554248797
1629.0,0.03786753070176463
1628.0,0.03824678581321739
1627.0,0.038531444649213764
1626.0,0.038673844065289176
1625.0,0.038958783046687984
1624.0,0.03962436858984186
1623.0,0.04057697805689475
1622.0,0.041340572947066834
1621.0,0.04181850243505214
1620.0,0.042057664554595586
1619.0,0.04215336629184985
1618.0,0.042392712939904875
1617.0,0.042967683653061695
1616.0,0.04344740808260106
1615.0,0.04339941178682327
1614.0,0.04282386959515394
1613.0,0.041914151478914974
1612.0,0.04081545726880842
1611.0,0.03962436858984186
1610.0,0.03838909190871931
1609.0,0.03720463014276687
1608.0,0.0360705779734416
1607.0,0.03498654972775217
1606.0,0.033952178923546183
1605.0,0.03301397488206215
1604.0,0.03217132066984485
1603.0,0.03128362253321426
1602.0,0.030444315779156517
1601.0,0.02969962459782227
1600.0,0.02904906565457588
1599.0,0.028445846553939003
1598.0,0.027889771597169544
1597.0,0.02747318213414429
1596.0,0.027056991894431892
1595.0,0.026687379547098322
1594.0,0.02636422658259252
1593.0,0.02617967564731627
1592.0,0.026041313893296225
1591.0,0.025902996205869
1590.0,0.025856900097785074
1589.0,0.025995203102585407
1588.0,0.026271941311972746
1587.0,0.02677975314776626
1586.0,0.027658283674251827
1585.0,0.029002634427514717
1584.0,0.03081714076773867
1583.0,0.033060836978886954
1582.0,0.03541041251009669
1581.0,0.037583306554248797
1580.0,0.03914884628031379
1579.0,0.03986232513620536
1578.0,0.03967194946985697
1577.0,0.03848398855105106
1576.0,0.036731748473764814
1575.0,0.03503362516890207
1574.0,0.03371743783253667
1573.0,0.032592443402527316
1572.0,0.03142366482450232
1571.0,0.030164906924202484
1570.0,0.02890978686288448
1569.0,0.027797161620935595
1568.0,0.02696455931306696
1567.0,0.026318081496016443
1566.0,0.025718641122169483
1565.0,0.025074013910237447
1564.0,0.024476287039668643
1563.0,0.023833499868024743
1562.0,0.023237476732539397
1561.0,0.02296266477531872
1560.0,0.02291687968414724
1559.0,0.02291687968414724
1558.0,0.02245929405346514
1557.0,0.021956506090037076
1556.0,0.02159120737696063
1555.0,0.021271822861508305
1554.0,0.021043834782408455
1553.0,0.020952673052035298
1552.0,0.020861530453190058
1551.0,0.02067930261797568
1550.0,0.020406104151069693
1549.0,0.02013307743509718
1548.0,0.019860222254245663
1547.0,0.01958753839310856
1546.0,0.01940584422377989
1545.0,0.019269623464054586
1544.0,0.019178833355664393
1543.0,0.01899731005860028
1542.0,0.018770512579999288
1541.0,0.018634490921455527
1540.0,0.018543833477873584
1539.0,0.018271974638383703
1538.0,0.018181392829336396
1537.0,0.018271974638383703
1536.0,0.018362575344230914
1535.0,0.01840788278591865
1534.0,0.018543833477873584
1533.0,0.018770512579999288
1532.0,0.018861217359339655
1531.0,0.018815862601645694
1530.0,0.018815862601645694
1529.0,0.018815862601645694
1528.0,0.018679826740892747
1527.0,0.018498511851753108
1526.0,0.018362575344230914
1525.0,0.01831727262871463
1524.0,0.018181392829336396
1523.0,0.017864505196230507
1522.0,0.017547848615010242
1521.0,0.017321806616515723
1520.0,0.01727661233145472
1519.0,0.017321806616515723
1518.0,0.01727661233145472
1517.0,0.017186237868137555
1516.0,0.017095882207371904
1515.0,0.017050711425501408
1514.0,0.017141057687924732
1513.0,0.01759307113620534
1512.0,0.01845319495476394
1511.0,0.01958753839310856
1510.0,0.021043834782408455
1509.0,0.023100049017062307
1508.0,0.027565723042634938
1507.0,0.03479829897408804
1506.0,0.03924390909822728
1505.0,0.03952922246570112
1504.0,0.03791491948264003
1503.0,0.03522197797762394
1502.0,0.03184406285002961
1501.0,0.02826040911222183
1500.0,0.024890010313838973
1499.0,0.021819483062586187
1498.0,0.019178833355664393
1497.0,0.017050711425501408
1496.0,0.015607721475734415
1495.0,0.014708281407112
1494.0,0.014169510141607944
1493.0,0.01381070026317599
1492.0,0.013586594534531482
1491.0,0.013317820220494436
1490.0,0.013049212141483357
1489.0,0.012914970375878188
1488.0,0.012825498912458322
1487.0,0.01264661126420652
1486.0,0.012467797270160563
1485.0,0.012467797270160563
1484.0,0.012557195064198723
1483.0,0.012691326268817527
1482.0,0.012870232340102872
1481.0,0.013138729709955221
1480.0,0.013452186585275916
1479.0,0.01372104409400876
1478.0,0.013945219230304673
1477.0,0.014259258949925524
1476.0,0.014573525916998342
1475.0,0.014708281407112
1474.0,0.014888020460646079
1473.0,0.01538268676325183
1472.0,0.016058141016111804
1471.0,0.016554142658660398
1470.0,0.017050711425501408
1469.0,0.01768353030793479
1468.0,0.018498511851753108
1467.0,0.01954210772389997
1466.0,0.021043834782408455
1465.0,0.023237476732539397
1464.0,0.02558042614771394
1463.0,0.02751945012352408
1462.0,0.029188389127482228
1461.0,0.03081714076773867
1460.0,0.03240522732811035
1459.0,0.03414006319292828
1458.0,0.036779013477011624
1457.0,0.040243327009005014
1456.0,0.04253638427006878
1455.0,0.0435434165901003
1454.0,0.044071843103049346
1453.0,0.044360346976747955
1452.0,0.04450467081587295
1451.0,0.04440844959427559
1450.0,0.04421607108308856
1449.0,0.044071843103049346
1448.0,0.04387961360698034
1447.0,0.04368746915880539
1446.0,0.0435434165901003
1445.0,0.04344740808260106
1444.0,0.04325545471730896
1443.0,0.04301563225723992
1442.0,0.04263219156847242
1441.0,0.04215336629184985
1440.0,0.041436116778032606
1439.0,0.040338629726504704
1438.0,0.03876880295533702
1437.0,0.036731748473764814
1436.0,0.034516075754861264
1435.0,0.032545631817259224
1434.0,0.03063068826647264
1433.0,0.028677754757187035
1432.0,0.026456531467510258
1431.0,0.024154774532432866
1430.0,0.021865152601710403
1429.0,0.019860222254245663
1428.0,0.01840788278591865
1427.0,0.017367005605150476
1426.0,0.016599261819461697
1425.0,0.01596801972881945
1424.0,0.015562705203923999
1423.0,0.01538268676325183
1422.0,0.01547268665620738
1421.0,0.016103208673694303
1420.0,0.01800028587012159
1419.0,0.02168250325324883
1418.0,0.026733563891471412
1417.0,0.03263926003405038
1416.0,0.039767126871487646
1415.0,0.048565334467987054
1414.0,0.05923456436878238
1413.0,0.0716553647351379
1412.0,0.08481129482684358
1411.0,0.09620485725896466
1410.0,0.1038045895457893
1409.0,0.10695988804288215
1408.0,0.10596099919539115
1407.0,0.10116516193172598
1406.0,0.09366495819490939
1405.0,0.08523386307414738
1404.0,0.07753405470158659
1403.0,0.0713481533463054
1402.0,0.06646209802829528
1401.0,0.062281556382736136
1400.0,0.05824018618530458
1399.0,0.05448217792216048
1398.0,0.05129369109514803
1397.0,0.04875964967565971
1396.0,0.04633693625290869
1395.0,0.04383156952463674
1394.0,0.04138834223512067
1393.0,0.039338992729018196
1392.0,0.03763066432997886
1391.0,0.0360705779734416
1390.0,0.034516075754861264
1389.0,0.03310770413286357
1388.0,0.03184406285002961
1387.0,0.030863766403287585
1386.0,0.03030458888152676
1385.0,0.030071810571884017
1384.0,0.030118356253500123
1383.0,0.030444315779156517
1382.0,0.031143625385307683
1381.0,0.03226486821611996
1380.0,0.03376437590141812
1379.0,0.03555179208333925
1378.0,0.037488606492403154
1377.0,0.03952922246570112
1376.0,0.0417706858116178
1375.0,0.044312249686494276
1374.0,0.04686877481655505
1373.0,0.048808242065293994
1372.0,0.04997609347667353
1371.0,0.050463626623857394
1370.0,0.050171041064686284
1369.0,0.048954051864180226
1368.0,0.04682039893436585
1367.0,0.04387961360698034
1366.0,0.04057697805689475
1365.0,0.036873558918095295
1364.0,0.03273290844021437
1363.0,0.028214062120885508
1362.0,0.024154774532432866
1361.0,0.021043834782408455
1360.0,0.018815862601645694
1359.0,0.017050711425501408
1358.0,0.015607721475734415
1357.0,0.01452861671041239
1356.0,0.013676222949234651
1355.0,0.013093968619278806
1354.0,0.012691326268817527
1353.0,0.01260190086298274
1352.0,0.012780770091995297
1351.0,0.01318349541446362
1350.0,0.013900374944870508
1349.0,0.015022873584506602
1348.0,0.016418813294209356
1347.0,0.01809082990920774
1346.0,0.019996628416253603
1345.0,0.02204787879853809
1344.0,0.02406295751688936
1343.0,0.025856900097785074
1342.0,0.027334407733889066
1341.0,0.028353117935693284
1340.0,0.02858497661500481
1339.0,0.027889771597169544
1338.0,0.026318081496016443
1337.0,0.024154774532432866
1336.0,0.021773818325474092
1335.0,0.019360432556262852
1334.0,0.017231422748988034
1333.0,0.015517693597737248
1332.0,0.014349026309051105
1331.0,0.013676222949234651
1330.0,0.013541787262693505
1329.0,0.013900374944870508
1328.0,0.014618439768003144
1327.0,0.015652742414136167
1326.0,0.016960383953898095
1325.0,0.018543833477873584
1324.0,0.020315076172974234
1323.0,0.022139270735302752
1322.0,0.023971159908874107
1321.0,0.025856900097785074
1320.0,0.027797161620935595
1319.0,0.029746130405213123
1318.0,0.031657169041054534
1317.0,0.03352973627071565
1316.0,0.03550466044490741
1315.0,0.037583306554248797
1314.0,0.03986232513620536
1313.0,0.04244059810252043
1312.0,0.0451788169482068
1311.0,0.047982909952573705
1310.0,0.050902874887084115
1309.0,0.05399011523423525
1308.0,0.057198533682059516
1307.0,0.06033101647767336
1306.0,0.06338573802478864
1305.0,0.06646209802829528
1304.0,0.06986635415888243
1303.0,0.07370901311513656
1302.0,0.0781575185941421
1301.0,0.08344078069888616
1300.0,0.08948231448273347
1299.0,0.096150661903319
1298.0,0.10314322726279568
1297.0,0.11053021603049262
1296.0,0.11804502866039956
1295.0,0.12551818230053358
1294.0,0.13276828548110586
1293.0,0.1399616101928065
1292.0,0.14697138528701026
1291.0,0.15360102696532518
1290.0,0.15989390554324223
1289.0,0.16596098184053343
1288.0,0.17179138553205453
1287.0,0.17704775945251838
1286.0,0.18177410638604452
1285.0,0.1859522790044006
1284.0,0.189767482004916
1283.0,0.1930742231162681
1282.0,0.19586056766464965
1281.0,0.1983905119726812
1280.0,0.20065945054641832
1279.0,0.20273245916928362
1278.0,0.2046066650687106
1277.0,0.20683847075444928
1276.0,0.20971483596675822
1275.0,0.2133195468033513
1274.0,0.21774242633669827
1273.0,0.2235167441663184
1272.0,0.23077041826340627
1271.0,0.23920068836928232
1270.0,0.24848994972995864
1269.0,0.258612007520731
1268.0,0.26937920211271726
1267.0,0.28025450747042324
1266.0,0.29098458302788277
1265.0,0.301377570297902
1264.0,0.3112243447271552
1263.0,0.3199365725180514
1262.0,0.3273480771599975
1261.0,0.3336692556980314
1260.0,0.33875539104066643
1259.0,0.34227504579489176
1258.0,0.34438141645877796
1257.0,0.34591976469342933
1256.0,0.34746358140697464
1255.0,0.34901290561655496
1254.0,0.3508599358557811
1253.0,0.3534982499683881
1252.0,0.3571399474155086
1251.0,0.36131111330987653
1250.0,0.3659259745125316
1249.0,0.3712025144332898
1248.0,0.3769575657536184
1247.0,0.3825802532628235
1246.0,0.3878521616735131
1245.0,0.39297412156521405
1244.0,0.39783144862100284
1243.0,0.40153779952584956
1242.0,0.40373287360448473
1241.0,0.40450377817442584
1240.0,0.4035128662634557
1239.0,0.4002260608536117
1238.0,0.39426410612325324
1237.0,0.3861581781239307
1236.0,0.37582107425197764
1235.0,0.3634118162701576
1234.0,0.3491099221436875
1233.0,0.33395026151948404
1232.0,0.3186682940308343
1231.0,0.3032069149182557
1230.0,0.2880241456482442
1229.0,0.2735988378970775
1228.0,0.26003230324049054
1227.0,0.24703013497091586
1226.0,0.23462951970835144
1225.0,0.22300841514359493
1224.0,0.212185432936977
1223.0,0.20204035626280392
1222.0,0.19253262431572216
1221.0,0.18369240056806024
1220.0,0.1755487299633871
1219.0,0.16793838540927308
1218.0,0.16096212661169407
1217.0,0.15465386258859137
1216.0,0.148864004988426
1215.0,0.14357322752975565
1214.0,0.13858508136400327
1213.0,0.13394907599072514
1212.0,0.12971317100740865
1211.0,0.12569216687196105
1210.0,0.12193801870998744
1209.0,0.11850122038501709
1208.0,0.11526126223036814
1207.0,0.11221396516162851
1206.0,0.10924374808178183
1205.0,0.10646015643533868
1204.0,0.10385974855798041
1203.0,0.10138450258381404
1202.0,0.0989778267519208
1201.0,0.09669292003582619
1200.0,0.09452793807529569
1199.0,0.09237369515673355
1198.0,0.09023008526723086
1197.0,0.0881502035005799
1196.0,0.08618614761628329
1195.0,0.08428366205400617
1194.0,0.08238947425013277
1193.0,0.08066036321258663
1192.0,0.079094395835976
1191.0,0.07768983678560404
1190.0,0.07644514193245056
1189.0,0.07535895258283709
1188.0,0.07453319930846214
1187.0,0.07391491307485598
1186.0,0.07360609973031784
1185.0,0.07370901311513656
1184.0,0.07422394616325367
1183.0,0.07520400420208784
1182.0,0.07649693305789551
1181.0,0.07810552907089763
1180.0,0.07992887570247587
1179.0,0.08170748724464438
1178.0,0.0833881548906541
1177.0,0.08491689834879956
1176.0,0.0862920860195171
1175.0,0.0872466963286771
1174.0,0.08761850108119962
1173.0,0.08735289378168276
1172.0,0.08639805027084257
1171.0,0.08481129482684358
1170.0,0.08270459905431071
1169.0,0.08034671768963575
1168.0,0.07789763319239285
1167.0,0.0756173227980268
1166.0,0.07360609973031784
1165.0,0.0720140529005715
1164.0,0.07073438174693436
1163.0,0.06981534770138009
1162.0,0.0692037370166998
1161.0,0.06884736147670667
1160.0,0.06879647454924775
1159.0,0.0690000580438479
1158.0,0.06950943469373039
1157.0,0.07037674848475972
1156.0,0.0716553647351379
1155.0,0.07334892291111106
1154.0,0.07551395626608493
1153.0,0.07820951434181311
1152.0,0.08149786036382611
1151.0,0.08539243222891946
1150.0,0.08974922769985194
1149.0,0.09468993788391455
1148.0,0.10012480397898926
1147.0,0.1060718734573931
1146.0,0.11238269966426384
1145.0,0.1190150095132465
1144.0,0.12575017722159698
1143.0,0.1325325121409484
1142.0,0.1390633792999063
1141.0,0.14545106418704923
1140.0,0.15168769637271562
1139.0,0.15757799664235028
1138.0,0.16310648362356628
1137.0,0.1683221508085333
1136.0,0.17327747983100794
1135.0,0.1778973313530796
1134.0,0.18236853280948462
1133.0,0.18688624599210146
1132.0,0.19165396425960513
1131.0,0.196747788569543
1130.0,0.20224787134928923
1129.0,0.2085198839799991
1128.0,0.21552535623748348
1127.0,0.22329881601158919
1126.0,0.23173198354845193
1125.0,0.24093681183951277
1124.0,0.2506502394025234
1123.0,0.26034855629062315
1122.0,0.26937920211271726
1121.0,0.27769521312567225
1120.0,0.28483264215154214
1119.0,0.2902213981517747
1118.0,0.29362364416030995
1117.0,0.29507770877659834
1116.0,0.29473513768259596
1115.0,0.29268536641129206
1114.0,0.2896287357392373
1113.0,0.28667749501297246
1112.0,0.28483264215154214
1111.0,0.28483264215154214
1110.0,0.2870978749527773
1109.0,0.292089334286894
1108.0,0.29972906264356314
1107.0,0.30953810675382165
1106.0,0.32093568187868726
1105.0,0.3338565727084417
1104.0,0.34804393046692583
1103.0,0.36271045232182564
1102.0,0.3773715738706751
1101.0,0.3920091414528253
1100.0,0.40627100129208915
1099.0,0.4191890273390537
1098.0,0.4301581005962385
1097.0,0.4393761254500701
1096.0,0.4464810598510305
1095.0,0.45111943736248517
1094.0,0.45308735681875745
1093.0,0.4528408786725824
1092.0,0.45062884766682276
1091.0,0.44611697335612566
1090.0,0.43949558480494333
1089.0,0.43168091490488836
1088.0,0.4227380464141852
1087.0,0.41273815030746586
1086.0,0.4017568083463774
1085.0,0.3904055907747799
1084.0,0.3787198324495853
1083.0,0.36632959394855624
1082.0,0.3532043112215306
1081.0,0.33979879861931805
1080.0,0.3261500226570506
1079.0,0.31220358861870556
1078.0,0.2981730696028606
1077.0,0.2844980547067162
1076.0,0.2714838952402334
1075.0,0.2590849235187176
1074.0,0.24733705687902807
1073.0,0.23649713453240295
1072.0,0.22657927670938993
1071.0,0.21745571598998992
1070.0,0.20915209603456808
1069.0,0.2016256233184388
1068.0,0.19490712165732704
1067.0,0.18869315991866387
1066.0,0.18289759574307696
1065.0,0.17763574755845046
1064.0,0.17295398299526576
1063.0,0.16870625562299035
1062.0,0.16500739626697003
1061.0,0.16203298163134527
1060.0,0.15970566838856382
1059.0,0.15807768832054925
1058.0,0.15701652987778258
1057.0,0.15676722190199066
1056.0,0.15726598105173029
1055.0,0.15845283474344662
1054.0,0.160145015398115
1053.0,0.1624115617644888
1052.0,0.16519794595130088
1051.0,0.16825816635436186
1050.0,0.17153345264732156
1049.0,0.17483362774345035
1048.0,0.17822453281653639
1047.0,0.1812464095022832
1046.0,0.1838913292600961
1045.0,0.18615224577114575
1044.0,0.18782222584124608
1043.0,0.18882730493344568
1042.0,0.18916284885951162
1041.0,0.18889439298206967
1040.0,0.18809001957990112
1039.0,0.1867526991023949
1038.0,0.1848873418101875
1037.0,0.18283142761894444
1036.0,0.18065351591954726
1035.0,0.17835548245778288
1034.0,0.17600440884403223
1033.0,0.17379557650074728
1032.0,0.17159792150840691
1031.0,0.16941133131485575
1030.0,0.1673633724032968
1029.0,0.16557929631846746
1028.0,0.16405589990615188
1027.0,0.16298005145909156
1026.0,0.16291684917681404
1025.0,0.1646899991309374
1024.0,0.16921892439363884
1023.0,0.17737432122585917
1022.0,0.18970025895983111
1021.0,0.20641913263184408
1020.0,0.22628667472297836
1019.0,0.24664678735850387
1018.0,0.2636831920958911
1017.0,0.2735173032151703
1016.0,0.2732727909734278
1015.0,0.26288690569403883
1014.0,0.2453459307445678
1013.0,0.2252641174482466
1012.0,0.20641913263184408
1011.0,0.19050762306265812
1010.0,0.17770112873763355
1009.0,0.1675549588258891
1008.0,0.159517512786558
1007.0,0.15292113793428452
1006.0,0.14752000636314366
1005.0,0.14302956651750764
1004.0,0.13924287691845794
1003.0,0.13578566953867033
1002.0,0.13265038281120756
1001.0,0.12977172098820566
1000.0,0.12720296001040166
999.0,0.12482294018529605
998.0,0.12262865413022594
997.0,0.1207320431753871
996.0,0.11907213473291511
995.0,0.1175323851046286
994.0,0.11622503864474187
993.0,0.11503480179926728
992.0,0.11401718864502697
991.0,0.11305829401658474
990.0,0.11221396516162851
989.0,0.1114835389250548
988.0,0.11092250734993603
987.0,0.11041819785037621
986.0,0.10997041383658313
985.0,0.10969078310005154
984.0,0.10941133229451272
983.0,0.10924374808178183
982.0,0.10902040301031102
981.0,0.10885296955122903
980.0,0.10879717273970457
979.0,0.10868560061785693
978.0,0.10857405715200596
977.0,0.10846254232743546
976.0,0.1082953237608173
975.0,0.10807246577932506
974.0,0.10773839308446487
973.0,0.10729336219433439
972.0,0.10679324694015202
971.0,0.10612732120491852
970.0,0.10529634739076998
969.0,0.10435649517592083
968.0,0.10330847343711591
967.0,0.10215306842042837
966.0,0.10083635852278117
965.0,0.09952362861074304
964.0,0.09816040794877057
963.0,0.09680145295702158
962.0,0.0955549589230904
961.0,0.09436599867304518
960.0,0.09339562827501968
959.0,0.09242742120144909
958.0,0.09151498112135026
957.0,0.09065796163869155
956.0,0.08974922769985194
955.0,0.08889568219596411
954.0,0.0880970039559672
953.0,0.08740600224789441
952.0,0.08682216600953208
951.0,0.0862920860195171
950.0,0.08576265223225898
949.0,0.08528671302637614
948.0,0.08486409337798806
947.0,0.08438913733853282
946.0,0.0838620168928248
945.0,0.08333553545860273
944.0,0.08291480935943274
943.0,0.08244197917456386
942.0,0.08207457793525874
941.0,0.08170748724464438
940.0,0.08144546944972642
939.0,0.08113125661901543
938.0,0.08076496207674921
937.0,0.08039897621588898
936.0,0.08008551934056851
935.0,0.07977228854307139
934.0,0.0794071379151915
933.0,0.079094395835976
932.0,0.07872981449018734
931.0,0.07841755960658348
930.0,0.07800156869172903
929.0,0.07758597585436577
928.0,0.07706704344478843
927.0,0.07649693305789551
926.0,0.07592757008963713
925.0,0.07541061433058172
924.0,0.07494587968815725
923.0,0.07453319930846214
922.0,0.07412091069849924
921.0,0.07381195089279391
920.0,0.07360609973031784
919.0,0.07340034609297241
918.0,0.07329750581735506
917.0,0.07334892291111106
916.0,0.07340034609297241
915.0,0.07350321072677968
914.0,0.07376047895413773
913.0,0.07427547306393745
912.0,0.07520400420208784
911.0,0.07644514193245056
910.0,0.07794959783282618
909.0,0.07987667370927598
908.0,0.08207457793525874
907.0,0.08460016478773014
906.0,0.08735289378168276
905.0,0.09023008526723086
904.0,0.09307265269104414
903.0,0.09571734235437201
902.0,0.09805153492691598
901.0,0.10007011727213588
900.0,0.10182351650232357
899.0,0.10330847343711591
898.0,0.10435649517592083
897.0,0.10507502264045665
896.0,0.10557316203581202
895.0,0.10579474085791629
894.0,0.10585015323207791
893.0,0.10601643278815298
892.0,0.10623823794205656
891.0,0.10651565378151395
890.0,0.10684878687013422
889.0,0.10729336219433439
888.0,0.10812816955441629
887.0,0.10924374808178183
886.0,0.11075433910702048
885.0,0.11266406960083297
884.0,0.11509140583739286
883.0,0.11798803837334138
882.0,0.12136332697348307
881.0,0.12546020292898974
880.0,0.1302990263261221
879.0,0.13584504399797437
878.0,0.14176366457048695
877.0,0.1478861391502384
876.0,0.15397232463562127
875.0,0.15932943866659088
874.0,0.16342272515935097
873.0,0.16557929631846746
872.0,0.16545214231905137
871.0,0.1627904721987936
870.0,0.15795271149036205
869.0,0.15168769637271562
868.0,0.1447838052666366
867.0,0.13780896894840278
866.0,0.13123804178794973
865.0,0.12540223129680017
864.0,0.12044539906102569
863.0,0.11633856484638239
862.0,0.112945621949043
861.0,0.11036219959333216
860.0,0.10851829616048003
859.0,0.1071265931112344
858.0,0.1061827760325369
857.0,0.10557316203581202
856.0,0.1052410056281079
855.0,0.10496440254767725
854.0,0.10468797552421272
853.0,0.10446696051592963
852.0,0.10435649517592083
851.0,0.10435649517592083
850.0,0.10424605792627206
849.0,0.10408045468998406
848.0,0.10397008760377302
847.0,0.10391491457671487
846.0,0.10391491457671487
845.0,0.10397008760377302
844.0,0.10408045468998406
843.0,0.10408045468998406
842.0,0.10408045468998406
841.0,0.10413564875270076
840.0,0.10408045468998406
839.0,0.1038045895457893
838.0,0.10325338439259446
837.0,0.10242788617426934
836.0,0.10149421446564144
835.0,0.10045306890913297
834.0,0.09930522554760213
833.0,0.09821485469640057
832.0,0.09712721455392082
831.0,0.09604229147682952
830.0,0.09490603167212863
829.0,0.09393445524476318
828.0,0.09318028453345462
827.0,0.09248115389337075
826.0,0.0917831469106074
825.0,0.09113982698272349
824.0,0.09065796163869155
823.0,0.09023008526723086
822.0,0.08974922769985194
821.0,0.08937559511079884
820.0,0.08905559425002108
819.0,0.08878910686244668
818.0,0.08857603462370545
817.0,0.0885227828938977
816.0,0.08868255767596933
815.0,0.08884239126002336
814.0,0.08889568219596411
813.0,0.08884239126002336
812.0,0.08878910686244668
811.0,0.08873582900163002
810.0,0.08857603462370545
809.0,0.0884695376928375
808.0,0.08830984124613894
807.0,0.0881502035005799
806.0,0.08783110394037297
805.0,0.08745911720936239
804.0,0.08708744882390307
803.0,0.08655704514060414
802.0,0.08592141461088798
801.0,0.08533956941077814
800.0,0.08518101955252688
799.0,0.08576265223225898
798.0,0.08761850108119962
797.0,0.09076499663169257
796.0,0.09485199814398393
795.0,0.09875969792669093
794.0,0.10160395406999112
793.0,0.10281292341984649
792.0,0.10226297465457268
791.0,0.10012480397898926
790.0,0.09691001300805646
789.0,0.09334178232840018
788.0,0.08985603893548699
787.0,0.08650404038287651
786.0,0.08328292240118751
785.0,0.08029446545087904
784.0,0.07768983678560404
783.0,0.07535895258283709
782.0,0.07334892291111106
781.0,0.0716553647351379
780.0,0.07022356719509815
779.0,0.06894915322260897
778.0,0.06777998612288094
777.0,0.06671522765130522
776.0,0.06560255921901192
775.0,0.06444235490698613
774.0,0.06318476880236723
773.0,0.06193081377661436
772.0,0.06068046892176193
771.0,0.05948351506743288
770.0,0.0583395216116076
769.0,0.05729763111133224
768.0,0.05620880107069848
767.0,0.05502409158795207
766.0,0.05374429280060267
765.0,0.05256627811294923
764.0,0.05148923116234294
763.0,0.050414848673348
762.0,0.04934311749548925
761.0,0.048225491918274965
760.0,0.047062332249019345
759.0,0.04580574818413763
758.0,0.04450467081587295
757.0,0.04325545471730896
756.0,0.042057664554595586
755.0,0.04076775094900409
754.0,0.03938654235209116
753.0,0.038057116858612794
752.0,0.03682628362474838
751.0,0.03559892883726867
750.0,0.03442204208947208
749.0,0.033482823553208085
748.0,0.032920265855503006
747.0,0.03282657704446046
746.0,0.03338901331806565
745.0,0.03517488211661135
744.0,0.03848398855105106
743.0,0.043735497301724546
742.0,0.05144033789103841
741.0,0.062281556382736136
740.0,0.07634157820669385
739.0,0.09318028453345462
738.0,0.11221396516162851
737.0,0.13306318226836056
736.0,0.15521228117215347
735.0,0.17796275192741495
734.0,0.20121128604875071
733.0,0.22548303427145044
732.0,0.2512694439015055
731.0,0.2788491562503159
730.0,0.3086532358651781
729.0,0.341606973720876
728.0,0.3774751375964318
727.0,0.41408828968056577
726.0,0.4470885497834911
725.0,0.47056964563301396
724.0,0.478992747591396
723.0,0.46967221022191374
722.0,0.4433357378774314
721.0,0.4035128662634557
720.0,0.35902194264166787
719.0,0.3199365725180514
718.0,0.28945955206670293
717.0,0.26520017041115307
716.0,0.2448114143916751
715.0,0.22782503917538577
714.0,0.2145989750076125
713.0,0.20467623567068616
712.0,0.19729467292564795
711.0,0.19145144875959463
710.0,0.18641901143180806
709.0,0.18164212204164532
708.0,0.17711305216584927
707.0,0.1726953589102651
706.0,0.16825816635436186
705.0,0.1637391971415132
704.0,0.15945481236316117
703.0,0.15533647175976073
702.0,0.15113378850522063
701.0,0.1466060225493342
700.0,0.14182386201765573
699.0,0.13715334001706125
698.0,0.13282724882135022
697.0,0.12895273869450063
696.0,0.12546020292898974
695.0,0.12228319913502328
694.0,0.11935787359571504
693.0,0.11667932161702477
692.0,0.11435612816423602
691.0,0.11243895906999102
690.0,0.11069829749368965
689.0,0.10918790104487552
688.0,0.10773839308446487
687.0,0.10657115822045493
686.0,0.10568393731556158
685.0,0.10513034325474746
684.0,0.10501970907203151
683.0,0.10546241500425357
682.0,0.10623823794205656
681.0,0.10718217569042365
680.0,0.1081838804751396
679.0,0.10918790104487552
678.0,0.11019424813191447
677.0,0.11103465569966264
676.0,0.11159583226295333
675.0,0.11182050608167504
674.0,0.1117081546434846
673.0,0.11210151190312767
672.0,0.11379137583250243
671.0,0.11679296664760996
670.0,0.12004441487725082
669.0,0.12412880927263426
668.0,0.12965462891904034
667.0,0.1311205537629121
666.0,0.12586622117202761
665.0,0.11861534322942724
664.0,0.11232644754555254
663.0,0.10723776538418317
662.0,0.10341867249426717
661.0,0.10067205012234592
660.0,0.09870518283443275
659.0,0.09712721455392082
658.0,0.09560907998763835
657.0,0.09398837472858723
656.0,0.09269615116603047
655.0,0.0919441259012328
654.0,0.09146136782804049
653.0,0.09092559859909577
652.0,0.0900163050601559
651.0,0.08889568219596411
650.0,0.08783110394037297
649.0,0.0872466963286771
648.0,0.08735289378168276
647.0,0.08793744441149753
646.0,0.0884695376928375
645.0,0.08857603462370545
644.0,0.0881502035005799
643.0,0.08745911720936239
642.0,0.08687520961044104
641.0,0.0867160982395816
640.0,0.0872466963286771
639.0,0.0884695376928375
638.0,0.09033701484598189
637.0,0.09280368972839836
636.0,0.09582563171583658
635.0,0.0990869322623309
634.0,0.10193333935836524
633.0,0.10358402352687701
632.0,0.10330847343711591
631.0,0.10132965703447017
630.0,0.09843270997155007
629.0,0.0957714836599215
628.0,0.09382663635595145
627.0,0.09248115389337075
626.0,0.09156860103399356
625.0,0.09108625997902897
624.0,0.09108625997902897
623.0,0.09130056764777605
622.0,0.09140776115243066
621.0,0.09113982698272349
620.0,0.09065796163869155
619.0,0.09028354676565531
618.0,0.09023008526723086
617.0,0.09071147583774919
616.0,0.09156860103399356
615.0,0.09253489323414388
614.0,0.09323411045927221
613.0,0.09361107884716913
612.0,0.09361107884716913
611.0,0.09366495819490939
610.0,0.09415017335768128
609.0,0.09539263618455207
608.0,0.09696430321150284
607.0,0.09843270997155007
606.0,0.09968750301627338
605.0,0.10105553313349058
604.0,0.10248287059947447
603.0,0.10347378251044459
602.0,0.10369429253391926
601.0,0.10319830233507843
600.0,0.10231793820358015
599.0,0.10116516193172598
598.0,0.10023419805561384
597.0,0.10007011727213588
596.0,0.10045306890913297
595.0,0.1005078038618683
594.0,0.09979678698310646
593.0,0.09854167860388774
592.0,0.09696430321150284
591.0,0.09468993788391455
590.0,0.0917295005042762
589.0,0.08894897967187343
588.0,0.08756536662442538
587.0,0.0881502035005799
586.0,0.09017663034908807
585.0,0.09248115389337075
584.0,0.09388054245443844
583.0,0.09339562827501968
582.0,0.09130056764777605
581.0,0.08884239126002336
580.0,0.08682216600953208
579.0,0.08528671302637614
578.0,0.08438913733853282
577.0,0.08465293767580806
576.0,0.08507535179485148
575.0,0.0839147001562972
574.0,0.08238947425013277
573.0,0.08428366205400617
572.0,0.09097914578884403
571.0,0.09843270997155007
570.0,0.10182351650232357
569.0,0.1012199867101744
568.0,0.09914149529800831
567.0,0.09636748391576244
566.0,0.09415017335768128
565.0,0.09452793807529569
564.0,0.09680145295702158
563.0,0.09734452478207412
562.0,0.09420411963213149
561.0,0.0892155652071629
560.0,0.08533956941077814
559.0,0.08512818245994969
558.0,0.09060445403289452
557.0,0.1005625457138224
556.0,0.11008231656379408
555.0,0.11418662533951118
554.0,0.1128329791052256
553.0,0.10997041383658313
552.0,0.10707101764479421
551.0,0.10160395406999112
550.0,0.09318028453345462
549.0,0.08533956941077814
548.0,0.08223199755224364
547.0,0.08481129482684358
546.0,0.0910326995816122
545.0,0.09767069414168117
544.0,0.1014393550602879
543.0,0.1005078038618683
542.0,0.09593394808549704
541.0,0.09113982698272349
540.0,0.0884695376928375
539.0,0.08793744441149753
538.0,0.0892155652071629
537.0,0.0922125568893839
536.0,0.09593394808549704
535.0,0.0978882765519955
534.0,0.0972358560759139
533.0,0.09674718310604158
532.0,0.09914149529800831
531.0,0.10264786565568684
530.0,0.10198826120249849
529.0,0.09490603167212863
528.0,0.08428366205400617
527.0,0.07515236702446293
526.0,0.0709900145060387
525.0,0.07283502570063005
524.0,0.07914650387874067
523.0,0.08655704514060414
522.0,0.09135416109288674
521.0,0.09318028453345462
520.0,0.09463593123310776
519.0,0.09669292003582619
518.0,0.09712721455392082
517.0,0.09485199814398393
516.0,0.09183679994445204
515.0,0.09017663034908807
514.0,0.08894897967187343
513.0,0.0862920860195171
512.0,0.08301995267961781
511.0,0.08160266115629988
510.0,0.08286224724355584
509.0,0.08528671302637614
508.0,0.08772478950118767
507.0,0.08974922769985194
506.0,0.09049745859458458
505.0,0.08916223500731646
504.0,0.08714052483764512
503.0,0.08576265223225898
502.0,0.0839147001562972
501.0,0.0794592834975203
500.0,0.07314329105030759
499.0,0.0692037370166998
498.0,0.07088774334533943
497.0,0.07680780957933253
496.0,0.0830725338870073
495.0,0.08592141461088798
494.0,0.08370400543686918
493.0,0.07743023101428781
492.0,0.07124579782334672
491.0,0.06986635415888243
490.0,0.07463633264589853
489.0,0.08249449044745338
488.0,0.08996287644694911
487.0,0.09550084460218011
486.0,0.09865067458435761
485.0,0.09875969792669093
484.0,0.09582563171583658
483.0,0.09076499663169257
482.0,0.08475850269380558
481.0,0.07930286553008004
480.0,0.07665234350217442
479.0,0.07899019850296574
478.0,0.08481129482684358
477.0,0.08900228368935714
476.0,0.08788427092114603
475.0,0.0833881548906541
474.0,0.08029446545087904
473.0,0.08071265949561734
472.0,0.08317771540408803
471.0,0.08639805027084257
470.0,0.09049745859458458
469.0,0.0955549589230904
468.0,0.09990609845660159
467.0,0.10132965703447017
466.0,0.09925064193892053
465.0,0.09528445472131919
464.0,0.0916222275676053
463.0,0.0892155652071629
462.0,0.08740600224789441
461.0,0.0856568428805593
460.0,0.08465293767580806
459.0,0.0856568428805593
458.0,0.08862929288386212
457.0,0.09146136782804049
456.0,0.09215885741705532
455.0,0.09065796163869155
454.0,0.0880970039559672
453.0,0.08555105930144569
452.0,0.08328292240118751
451.0,0.08181233864107451
450.0,0.0809742354126397
