cm-1,A
4000.0,0.10314322726279568
3999.0,0.10314322726279568
3998.0,0.10303309806684524
3997.0,0.10308815917397474
3996.0,0.10314322726279568
3995.0,0.10330847343711591
3994.0,0.10347378251044459
3993.0,0.10358402352687701
3992.0,0.10363915453068362
3991.0,0.10363915453068362
3990.0,0.10352889952072264
3989.0,0.10347378251044459
3988.0,0.10352889952072264
3987.0,0.10363915453068362
3986.0,0.10369429253391926
3985.0,0.10363915453068362
3984.0,0.1033635694704158
3983.0,0.10303309806684524
3982.0,0.10270287794050348
3981.0,0.10264786565568684
3980.0,0.10281292341984649
3979.0,0.10314322726279568
3978.0,0.10347378251044459
3977.0,0.10369429253391926
3976.0,0.10374943753836186
3975.0,0.1038045895457893
3974.0,0.1038045895457893
3973.0,0.10385974855798041
3972.0,0.10397008760377302
3971.0,0.10408045468998406
3970.0,0.10424605792627206
3969.0,0.10441172433373724
3968.0,0.10441172433373724
3967.0,0.10430127304069425
3966.0,0.10402526764093545
3965.0,0.10385974855798041
3964.0,0.10391491457671487
3963.0,0.10424605792627206
3962.0,0.10468797552421272
3961.0,0.10501970907203151
3960.0,0.10513034325474746
3959.0,0.10501970907203151
3958.0,0.1047432468551055
3957.0,0.10441172433373724
3956.0,0.10413564875270076
3955.0,0.10408045468998406
3954.0,0.10408045468998406
3953.0,0.10424605792627206
3952.0,0.10441172433373724
3951.0,0.10468797552421272
3950.0,0.10496440254767725
3949.0,0.1052410056281079
3948.0,0.10540705207704448
3947.0,0.10535169620648288
3946.0,0.10535169620648288
3945.0,0.10546241500425357
3944.0,0.10579474085791629
3943.0,0.1060718734573931
3942.0,0.1061827760325369
3941.0,0.1061827760325369
3940.0,0.1060718734573931
3939.0,0.10579474085791629
3938.0,0.10535169620648288
3937.0,0.10485381062400778
3936.0,0.10468797552421272
3935.0,0.10501970907203151
3934.0,0.10562854614376227
3933.0,0.10612732120491852
3932.0,0.1063491830140364
3931.0,0.10651565378151395
3930.0,0.10662666975397506
3929.0,0.10651565378151395
3928.0,0.1062937069352865
3927.0,0.1060718734573931
3926.0,0.1060718734573931
3925.0,0.10601643278815298
3924.0,0.10585015323207791
3923.0,0.10590557267730127
3922.0,0.1063491830140364
3921.0,0.10679324694015202
3920.0,0.10690433390377163
3919.0,0.10684878687013422
3918.0,0.10690433390377163
3917.0,0.1071265931112344
3916.0,0.1071265931112344
3915.0,0.10690433390377163
3914.0,0.10662666975397506
3913.0,0.1063491830140364
3912.0,0.1060718734573931
3911.0,0.10568393731556158
3910.0,0.10546241500425357
3909.0,0.10551778498990938
3908.0,0.10585015323207791
3907.0,0.10640466618011679
3906.0,0.10707101764479421
3905.0,0.10762709260156367
3904.0,0.10773839308446487
3903.0,0.10779405402422748
3902.0,0.10823959854332843
3901.0,0.10890877353227624
3900.0,0.10935546370475246
3899.0,0.10924374808178183
3898.0,0.10868560061785693
3897.0,0.1081838804751396
3896.0,0.10779405402422748
3895.0,0.10757145305477
3894.0,0.1075158206353124
3893.0,0.10779405402422748
3892.0,0.10823959854332843
3891.0,0.10840679565103484
3890.0,0.10796107965870849
3889.0,0.10729336219433439
3888.0,0.1075158206353124
3887.0,0.10835105612944096
3886.0,0.10840679565103484
3885.0,0.10734896612269962
3884.0,0.10668218838388821
3883.0,0.10746019534136453
3882.0,0.10913206118855912
3881.0,0.11013827874181148
3880.0,0.10980261378997125
3879.0,0.10879717273970457
3878.0,0.10807246577932506
3877.0,0.10801676914803293
3876.0,0.10857405715200596
3875.0,0.10868560061785693
3874.0,0.10784972209863586
3873.0,0.10718217569042365
3872.0,0.10779405402422748
3871.0,0.10929960230112479
3870.0,0.10980261378997125
3869.0,0.10862982530385179
3868.0,0.10757145305477
3867.0,0.10790539730951965
3866.0,0.10907622851098608
3865.0,0.10935546370475246
3864.0,0.10868560061785693
3863.0,0.10862982530385179
3862.0,0.10957898119908571
3861.0,0.11002636159600376
3860.0,0.10952309103982927
3859.0,0.10851829616048003
3858.0,0.10773839308446487
3857.0,0.1075158206353124
3856.0,0.10801676914803293
3855.0,0.10862982530385179
3854.0,0.10790539730951965
3853.0,0.10623823794205656
3852.0,0.10640466618011679
3851.0,0.10779405402422748
3850.0,0.10907622851098608
3849.0,0.10969078310005154
3848.0,0.10957898119908571
3847.0,0.10918790104487552
3846.0,0.10902040301031102
3845.0,0.10907622851098608
3844.0,0.10907622851098608
3843.0,0.10874138309586101
3842.0,0.10823959854332843
3841.0,0.10807246577932506
3840.0,0.1082953237608173
3839.0,0.10851829616048003
3838.0,0.10862982530385179
3837.0,0.10862982530385179
3836.0,0.10862982530385179
3835.0,0.10874138309586101
3834.0,0.10902040301031102
3833.0,0.10946720807225518
3832.0,0.10952309103982927
3831.0,0.10907622851098608
3830.0,0.10857405715200596
3829.0,0.10846254232743546
3828.0,0.10890877353227624
3827.0,0.10929960230112479
3826.0,0.10913206118855912
3825.0,0.10874138309586101
3824.0,0.10896458468468917
3823.0,0.11002636159600376
3822.0,0.11069829749368965
3821.0,0.10974669484546551
3820.0,0.10857405715200596
3819.0,0.10857405715200596
3818.0,0.10957898119908571
3817.0,0.1106422631110684
3816.0,0.11019424813191447
3815.0,0.10851829616048003
3814.0,0.10790539730951965
3813.0,0.10868560061785693
3812.0,0.10957898119908571
3811.0,0.10952309103982927
3810.0,0.10896458468468917
3809.0,0.10885296955122903
3808.0,0.10929960230112479
3807.0,0.10902040301031102
3806.0,0.10779405402422748
3805.0,0.10690433390377163
3804.0,0.1075158206353124
3803.0,0.10929960230112479
3802.0,0.11030620855581463
3801.0,0.1098585399354226
3800.0,0.10963487855187593
3799.0,0.11041819785037621
3798.0,0.11159583226295333
3797.0,0.11221396516162851
3796.0,0.11176432672943282
3795.0,0.11092250734993603
3794.0,0.11053021603049262
3793.0,0.11053021603049262
3792.0,0.11041819785037621
3791.0,0.11008231656379408
3790.0,0.10974669484546551
3789.0,0.10969078310005154
3788.0,0.10980261378997125
3787.0,0.11002636159600376
3786.0,0.11036219959333216
3785.0,0.11058623595729111
3784.0,0.11053021603049262
3783.0,0.11025022473596224
3782.0,0.11025022473596224
3781.0,0.1106422631110684
3780.0,0.11092250734993603
3779.0,0.11086644403327606
3778.0,0.11069829749368965
3777.0,0.11069829749368965
3776.0,0.11081038795292675
3775.0,0.11075433910702048
3774.0,0.11030620855581463
3773.0,0.10991447328367476
3772.0,0.11019424813191447
3771.0,0.11075433910702048
3770.0,0.11092250734993603
3769.0,0.11069829749368965
3768.0,0.11081038795292675
3767.0,0.11125903931710734
3766.0,0.11159583226295333
3765.0,0.11125903931710734
3764.0,0.11058623595729111
3763.0,0.11036219959333216
3762.0,0.11081038795292675
3761.0,0.11125903931710734
3760.0,0.11109074073646874
3759.0,0.11092250734993603
3758.0,0.1114835389250548
3757.0,0.11210151190312767
3756.0,0.11193288659256306
3755.0,0.11153968196461372
3754.0,0.11142740314240007
3753.0,0.11114683301706374
3752.0,0.11019424813191447
3751.0,0.10941133229451272
3750.0,0.1098585399354226
3749.0,0.11041819785037621
3748.0,0.1098585399354226
3747.0,0.10980261378997125
3746.0,0.11137127461477392
3745.0,0.11238269966426384
3744.0,0.11086644403327606
3743.0,0.10896458468468917
3742.0,0.10913206118855912
3741.0,0.1106422631110684
3740.0,0.11198908775497118
3739.0,0.11243895906999102
3738.0,0.11288929687511629
3737.0,0.11367851344052027
3736.0,0.11396072443355765
3735.0,0.11390426756225258
3734.0,0.1145256971708426
3733.0,0.11554450392951199
3732.0,0.11543118508166672
3731.0,0.11401718864502697
3730.0,0.11238269966426384
3729.0,0.11182050608167504
3728.0,0.11221396516162851
3727.0,0.1125514997500463
3726.0,0.11232644754555254
3725.0,0.11238269966426384
3724.0,0.11305829401658474
3723.0,0.11379137583250243
3722.0,0.11390426756225258
3721.0,0.1137349409702435
3720.0,0.1136220932414278
3719.0,0.1136220932414278
3718.0,0.11339648571328764
3717.0,0.11272036546997688
3716.0,0.11187669270209155
3715.0,0.11131515334030118
3714.0,0.11125903931710734
3713.0,0.11114683301706374
3712.0,0.11081038795292675
3711.0,0.11120293254331926
3710.0,0.11272036546997688
3709.0,0.11401718864502697
3708.0,0.11429961987167014
3707.0,0.11367851344052027
3706.0,0.11288929687511629
3705.0,0.11238269966426384
3704.0,0.11238269966426384
3703.0,0.11260778102815316
3702.0,0.11277666863747693
3701.0,0.11272036546997688
3700.0,0.11260778102815316
3699.0,0.11260778102815316
3698.0,0.11272036546997688
3697.0,0.11277666863747693
3696.0,0.1125514997500463
3695.0,0.11238269966426384
3694.0,0.1125514997500463
3693.0,0.11288929687511629
3692.0,0.112945621949043
3691.0,0.1128329791052256
3690.0,0.11311464101399138
3689.0,0.1138478180292033
3688.0,0.11429961987167014
3687.0,0.11390426756225258
3686.0,0.11339648571328764
3685.0,0.11339648571328764
3684.0,0.11345287660889425
3683.0,0.11311464101399138
3682.0,0.11266406960083297
3681.0,0.11249522576462212
3680.0,0.11243895906999102
3679.0,0.11232644754555254
3678.0,0.11277666863747693
3677.0,0.1141301390960936
3676.0,0.11503480179926728
3675.0,0.11463877996848804
3674.0,0.11396072443355765
3673.0,0.11367851344052027
3672.0,0.11424311893073247
3671.0,0.1148084593931522
3670.0,0.11424311893073247
3669.0,0.1137349409702435
3668.0,0.11446916681190777
3667.0,0.11526126223036814
3666.0,0.11537453674376552
3665.0,0.1149782051377024
3664.0,0.11446916681190777
3663.0,0.11424311893073247
3662.0,0.11435612816423602
3661.0,0.1145256971708426
3660.0,0.11458223488906394
3659.0,0.114865033936566
3658.0,0.11531789579397489
3657.0,0.11560117444331386
3656.0,0.11514801725400226
3655.0,0.11435612816423602
3654.0,0.1141301390960936
3653.0,0.114865033936566
3652.0,0.11616828667054757
3651.0,0.11679296664760996
3650.0,0.1165089098110701
3649.0,0.11719095860756013
3648.0,0.11947222180119477
3647.0,0.12084675381575383
3646.0,0.12027350336042275
3645.0,0.11890078161098283
3644.0,0.11787408022996826
3643.0,0.11719095860756013
3642.0,0.116736140415026
3641.0,0.1165089098110701
3640.0,0.1165657063169907
3639.0,0.116736140415026
3638.0,0.116736140415026
3637.0,0.11662251025166115
3636.0,0.11684980031672243
3635.0,0.11724784438692004
3634.0,0.11736163830396129
3633.0,0.1169634899723202
3632.0,0.11684980031672243
3631.0,0.1175323851046286
3630.0,0.11821604440661537
3629.0,0.11770319906234805
3628.0,0.11724784438692004
3627.0,0.11793105556385153
3626.0,0.11872949607064243
3625.0,0.11912926746757657
3624.0,0.11907213473291511
3623.0,0.11867241589944855
3622.0,0.11844417020668851
3621.0,0.11855827805860697
3620.0,0.11855827805860697
3619.0,0.1183871275216517
3618.0,0.11850122038501709
3617.0,0.1190150095132465
3616.0,0.11970100857424737
3615.0,0.12044539906102569
3614.0,0.12084675381575383
3613.0,0.12061736282565727
3612.0,0.1201016756699902
3611.0,0.11970100857424737
3610.0,0.11947222180119477
3609.0,0.11924355548978971
3608.0,0.11907213473291511
3607.0,0.11935787359571504
3606.0,0.1199871616332282
3605.0,0.12027350336042275
3604.0,0.1199871616332282
3603.0,0.11930071078129845
3602.0,0.11878658374498086
3601.0,0.11861534322942724
3600.0,0.11884367892443626
3599.0,0.11935787359571504
3598.0,0.11975822410451964
3597.0,0.11992991593593283
3596.0,0.11981544717356662
3595.0,0.11975822410451964
3594.0,0.11987267778337518
3593.0,0.1201016756699902
3592.0,0.1202162199095842
3591.0,0.12015894401343741
3590.0,0.12004441487725082
3589.0,0.11981544717356662
3588.0,0.11952940719622163
3587.0,0.11970100857424737
3586.0,0.12050271275057156
3585.0,0.12107626603243293
3584.0,0.12096149476276286
3583.0,0.12050271275057156
3582.0,0.12004441487725082
3581.0,0.11975822410451964
3580.0,0.11952940719622163
3579.0,0.11930071078129845
3578.0,0.11907213473291511
3577.0,0.1190150095132465
3576.0,0.11907213473291511
3575.0,0.11924355548978971
3574.0,0.11941504393502012
3573.0,0.11930071078129845
3572.0,0.11907213473291511
3571.0,0.1190150095132465
3570.0,0.11941504393502012
3569.0,0.12015894401343741
3568.0,0.12096149476276286
3567.0,0.12159311241900439
3566.0,0.12239832027072817
3565.0,0.12303203256741524
3564.0,0.12291674334934943
3563.0,0.12234075588839133
3562.0,0.12165057778222454
3561.0,0.1213058996038916
3560.0,0.12124847982699793
3559.0,0.12147820449879343
3558.0,0.12159311241900439
3557.0,0.12153565465853111
3556.0,0.1213058996038916
3555.0,0.12124847982699793
3554.0,0.1213058996038916
3553.0,0.12153565465853111
3552.0,0.12170805075020397
3551.0,0.12170805075020397
3550.0,0.12165057778222454
3549.0,0.12170805075020397
3548.0,0.1219955297319748
3547.0,0.12245589228405596
3546.0,0.12308968865537295
3545.0,0.12378215940835768
3544.0,0.12424442074194553
3543.0,0.12418661116024232
3542.0,0.12372441132212098
3541.0,0.12308968865537295
3540.0,0.12245589228405596
3539.0,0.12205304837081177
3538.0,0.12193801870998744
3537.0,0.12211057462851604
3536.0,0.12234075588839133
3535.0,0.12245589228405596
3534.0,0.12245589228405596
3533.0,0.12228319913502328
3532.0,0.12205304837081177
3531.0,0.12182301950849372
3530.0,0.12182301950849372
3529.0,0.12205304837081177
3528.0,0.12245589228405596
3527.0,0.12297438413275108
3526.0,0.12360893818081231
3525.0,0.12412880927263426
3524.0,0.12441789567211425
3523.0,0.12424442074194553
3522.0,0.12383991517437187
3521.0,0.12337808396572703
3520.0,0.12297438413275108
3519.0,0.12268625668776156
3518.0,0.12251347193039863
3517.0,0.12239832027072817
3516.0,0.12239832027072817
3515.0,0.12245589228405596
3514.0,0.12245589228405596
3513.0,0.12245589228405596
3512.0,0.12257105921178035
3511.0,0.12285911021517903
3510.0,0.12326270285933538
3509.0,0.12360893818081231
3508.0,0.12383991517437187
3507.0,0.12389767862220635
3506.0,0.12383991517437187
3505.0,0.12378215940835768
3504.0,0.12383991517437187
3503.0,0.12401322857151209
3502.0,0.12430223801979201
3501.0,0.1244757360506914
3500.0,0.12436006299583169
3499.0,0.12412880927263426
3498.0,0.12389767862220635
3497.0,0.1236666709136196
3496.0,0.12337808396572703
3495.0,0.12314735239865637
3494.0,0.12291674334934943
3493.0,0.12280148472821018
3492.0,0.12274386688641381
3491.0,0.12262865413022594
3490.0,0.12262865413022594
3489.0,0.12280148472821018
3488.0,0.12320502379929943
3487.0,0.12372441132212098
3486.0,0.12407101507707297
3485.0,0.12424442074194553
3484.0,0.12424442074194553
3483.0,0.12407101507707297
3482.0,0.12395544975390482
3481.0,0.12389767862220635
3480.0,0.12401322857151209
3479.0,0.12407101507707297
3478.0,0.12395544975390482
3477.0,0.12378215940835768
3476.0,0.12360893818081231
3475.0,0.12360893818081231
3474.0,0.12360893818081231
3473.0,0.12360893818081231
3472.0,0.12360893818081231
3471.0,0.12378215940835768
3470.0,0.12407101507707297
3469.0,0.12441789567211425
3468.0,0.12476505354983503
3467.0,0.124996646399959
3466.0,0.1252863112422209
3465.0,0.12557616941349803
3464.0,0.12592425477696523
3463.0,0.12621453918179926
3462.0,0.1263307072932056
3461.0,0.1263307072932056
3460.0,0.12627261935332057
3459.0,0.1260984021355387
3458.0,0.1258081953209289
3457.0,0.12563416426995122
3456.0,0.12563416426995122
3455.0,0.12586622117202761
3454.0,0.12621453918179926
3453.0,0.12650501774383094
3452.0,0.12667939818460128
3451.0,0.1267375405612734
3450.0,0.12685384867174432
3449.0,0.1270865583796048
3448.0,0.12737762097471172
3447.0,0.1277271537757949
3446.0,0.1280769681176266
3445.0,0.1283103343144847
3444.0,0.12842706445412122
3443.0,0.12842706445412122
3442.0,0.1284854412916181
3441.0,0.12866061890013913
3440.0,0.12877744324029283
3439.0,0.1287190271420271
3438.0,0.12842706445412122
3437.0,0.1281352979118051
3436.0,0.1281352979118051
3435.0,0.1284854412916181
3434.0,0.12901118623942476
3433.0,0.12965462891904034
3432.0,0.13024040521758962
3431.0,0.1305922506177981
3430.0,0.1308269726783169
3429.0,0.13094438129809216
3428.0,0.13094438129809216
3427.0,0.1308856730206247
3426.0,0.13070959579060148
3425.0,0.1304749371427727
3424.0,0.13024040521758962
3423.0,0.13012318673323353
3422.0,0.13012318673323353
3421.0,0.1302990263261221
3420.0,0.1304749371427727
3419.0,0.1306509192409071
3418.0,0.13070959579060148
3417.0,0.1305922506177981
3416.0,0.13035765534840538
3415.0,0.12994741830645506
3414.0,0.12965462891904034
3413.0,0.1295960947209729
3412.0,0.1295960947209729
3411.0,0.12965462891904034
3410.0,0.12965462891904034
3409.0,0.12953756841108
3408.0,0.12942053944731513
3407.0,0.12918657608440243
3406.0,0.12901118623942476
3405.0,0.12883586719705065
3404.0,0.12877744324029283
3403.0,0.12889429901441463
3402.0,0.12912810493225724
3401.0,0.12942053944731513
3400.0,0.1295960947209729
3399.0,0.12965462891904034
3398.0,0.1295960947209729
3397.0,0.12936203678919433
3396.0,0.1290696416513042
3395.0,0.12883586719705065
3394.0,0.12877744324029283
3393.0,0.12883586719705065
3392.0,0.12889429901441463
3391.0,0.12895273869450063
3390.0,0.12895273869450063
3389.0,0.12877744324029283
3388.0,0.12854382597704617
3387.0,0.1283103343144847
3386.0,0.12819363554127072
3385.0,0.1283103343144847
3384.0,0.12854382597704617
3383.0,0.12883586719705065
3382.0,0.1290696416513042
3381.0,0.1290696416513042
3380.0,0.12877744324029283
3379.0,0.12842706445412122
3378.0,0.1281352979118051
3377.0,0.1280186461566306
3376.0,0.12790202572577325
3375.0,0.12784372725170723
3374.0,0.1277271537757949
3373.0,0.12761061158217912
3372.0,0.1275523522109867
3371.0,0.1275523522109867
3370.0,0.1277271537757949
3369.0,0.1280769681176266
3368.0,0.1283103343144847
3367.0,0.12836869546244634
3366.0,0.12836869546244634
3365.0,0.12836869546244634
3364.0,0.12854382597704617
3363.0,0.12883586719705065
3362.0,0.12889429901441463
3361.0,0.1287190271420271
3360.0,0.12842706445412122
3359.0,0.12819363554127072
3358.0,0.1280769681176266
3357.0,0.12819363554127072
3356.0,0.12836869546244634
3355.0,0.1284854412916181
3354.0,0.12854382597704617
3353.0,0.1286022185125162
3352.0,0.12883586719705065
3351.0,0.1290696416513042
3350.0,0.12918657608440243
3349.0,0.12901118623942476
3348.0,0.12866061890013913
3347.0,0.12842706445412122
3346.0,0.1284854412916181
3345.0,0.12883586719705065
3344.0,0.12918657608440243
3343.0,0.12942053944731513
3342.0,0.12953756841108
3341.0,0.1295960947209729
3340.0,0.1295960947209729
3339.0,0.1295960947209729
3338.0,0.12971317100740865
3337.0,0.12977172098820566
3336.0,0.12971317100740865
3335.0,0.12953756841108
3334.0,0.12936203678919433
3333.0,0.12924505510985984
3332.0,0.12930354201075
3331.0,0.12936203678919433
3330.0,0.12936203678919433
3329.0,0.12930354201075
3328.0,0.12930354201075
3327.0,0.12936203678919433
3326.0,0.12953756841108
3325.0,0.1295960947209729
3324.0,0.1295960947209729
3323.0,0.1295960947209729
3322.0,0.12965462891904034
3321.0,0.12971317100740865
3320.0,0.12977172098820566
3319.0,0.1295960947209729
3318.0,0.12930354201075
3317.0,0.12895273869450063
3316.0,0.12883586719705065
3315.0,0.12877744324029283
3314.0,0.1287190271420271
3313.0,0.12866061890013913
3312.0,0.1286022185125162
3311.0,0.12877744324029283
3310.0,0.12918657608440243
3309.0,0.12977172098820566
3308.0,0.13024040521758962
3307.0,0.13041629228657614
3306.0,0.13024040521758962
3305.0,0.12988884463559924
3304.0,0.12953756841108
3303.0,0.12924505510985984
3302.0,0.12918657608440243
3301.0,0.12924505510985984
3300.0,0.12942053944731513
3299.0,0.12965462891904034
3298.0,0.12983027886355947
3297.0,0.12994741830645506
3296.0,0.13000599987825812
3295.0,0.13000599987825812
3294.0,0.13000599987825812
3293.0,0.13006458935314003
3292.0,0.13018179202067182
3291.0,0.13024040521758962
3290.0,0.13024040521758962
3289.0,0.13006458935314003
3288.0,0.12994741830645506
3287.0,0.12977172098820566
3286.0,0.1295960947209729
3285.0,0.12936203678919433
3284.0,0.1290696416513042
3283.0,0.12889429901441463
3282.0,0.1287190271420271
3281.0,0.1287190271420271
3280.0,0.12877744324029283
3279.0,0.12895273869450063
3278.0,0.12918657608440243
3277.0,0.12953756841108
3276.0,0.12988884463559924
3275.0,0.13012318673323353
3274.0,0.13018179202067182
3273.0,0.13006458935314003
3272.0,0.12983027886355947
3271.0,0.12971317100740865
3270.0,0.12965462891904034
3269.0,0.1295960947209729
3268.0,0.12953756841108
3267.0,0.1294790499872358
3266.0,0.12936203678919433
3265.0,0.12924505510985984
3264.0,0.12918657608440243
3263.0,0.12924505510985984
3262.0,0.1294790499872358
3261.0,0.12965462891904034
3260.0,0.12983027886355947
3259.0,0.12988884463559924
3258.0,0.12994741830645506
3257.0,0.13006458935314003
3256.0,0.13006458935314003
3255.0,0.13000599987825812
3254.0,0.12983027886355947
3253.0,0.12965462891904034
3252.0,0.1295960947209729
3251.0,0.12965462891904034
3250.0,0.12977172098820566
3249.0,0.13000599987825812
3248.0,0.13024040521758962
3247.0,0.13041629228657614
3246.0,0.13053358991913355
3245.0,0.1304749371427727
3244.0,0.13024040521758962
3243.0,0.12994741830645506
3242.0,0.12971317100740865
3241.0,0.12953756841108
3240.0,0.1295960947209729
3239.0,0.12965462891904034
3238.0,0.12977172098820566
3237.0,0.12988884463559924
3236.0,0.13006458935314003
3235.0,0.13024040521758962
3234.0,0.13053358991913355
3233.0,0.13070959579060148
3232.0,0.13076828026902376
3231.0,0.1306509192409071
3230.0,0.1302990263261221
3229.0,0.12988884463559924
3228.0,0.1294790499872358
3227.0,0.12930354201075
3226.0,0.12936203678919433
3225.0,0.1295960947209729
3224.0,0.12971317100740865
3223.0,0.12971317100740865
3222.0,0.12965462891904034
3221.0,0.1295960947209729
3220.0,0.12965462891904034
3219.0,0.12977172098820566
3218.0,0.12983027886355947
3217.0,0.12977172098820566
3216.0,0.1295960947209729
3215.0,0.12953756841108
3214.0,0.12953756841108
3213.0,0.12965462891904034
3212.0,0.12977172098820566
3211.0,0.12983027886355947
3210.0,0.12988884463559924
3209.0,0.12988884463559924
3208.0,0.12994741830645506
3207.0,0.13006458935314003
3206.0,0.13018179202067182
3205.0,0.13024040521758962
3204.0,0.13035765534840538
3203.0,0.13041629228657614
3202.0,0.13041629228657614
3201.0,0.13035765534840538
3200.0,0.1302990263261221
3199.0,0.13012318673323353
3198.0,0.12983027886355947
3197.0,0.1295960947209729
3196.0,0.12942053944731513
3195.0,0.12942053944731513
3194.0,0.1294790499872358
3193.0,0.12953756841108
3192.0,0.12953756841108
3191.0,0.1294790499872358
3190.0,0.1294790499872358
3189.0,0.12953756841108
3188.0,0.12977172098820566
3187.0,0.13012318673323353
3186.0,0.1302990263261221
3185.0,0.1302990263261221
3184.0,0.13018179202067182
3183.0,0.13012318673323353
3182.0,0.13006458935314003
3181.0,0.12994741830645506
3180.0,0.12971317100740865
3179.0,0.1294790499872358
3178.0,0.12942053944731513
3177.0,0.1294790499872358
3176.0,0.12965462891904034
3175.0,0.12971317100740865
3174.0,0.12977172098820566
3173.0,0.12971317100740865
3172.0,0.1295960947209729
3171.0,0.12953756841108
3170.0,0.12953756841108
3169.0,0.1295960947209729
3168.0,0.12965462891904034
3167.0,0.12965462891904034
3166.0,0.12953756841108
3165.0,0.12942053944731513
3164.0,0.12936203678919433
3163.0,0.12942053944731513
3162.0,0.1295960947209729
3161.0,0.12977172098820566
3160.0,0.13000599987825812
3159.0,0.13024040521758962
3158.0,0.13053358991913355
3157.0,0.13076828026902376
3156.0,0.1308856730206247
3155.0,0.1308856730206247
3154.0,0.13070959579060148
3153.0,0.1305922506177981
3152.0,0.1304749371427727
3151.0,0.13041629228657614
3150.0,0.13041629228657614
3149.0,0.13035765534840538
3148.0,0.13018179202067182
3147.0,0.12988884463559924
3146.0,0.12965462891904034
3145.0,0.12953756841108
3144.0,0.12953756841108
3143.0,0.12965462891904034
3142.0,0.12988884463559924
3141.0,0.13006458935314003
3140.0,0.13024040521758962
3139.0,0.13035765534840538
3138.0,0.13035765534840538
3137.0,0.1302990263261221
3136.0,0.13018179202067182
3135.0,0.13000599987825812
3134.0,0.13000599987825812
3133.0,0.13012318673323353
3132.0,0.13053358991913355
3131.0,0.13094438129809216
3130.0,0.1311792938024825
3129.0,0.1311792938024825
3128.0,0.13100309751286465
3127.0,0.1308856730206247
3126.0,0.1308856730206247
3125.0,0.13094438129809216
3124.0,0.1311205537629121
3123.0,0.1312967977214634
3122.0,0.1314731132317961
3121.0,0.13159069668503998
3120.0,0.1316495003520317
3119.0,0.1316495003520317
3118.0,0.13159069668503998
3117.0,0.13153190097901324
3116.0,0.13153190097901324
3115.0,0.13153190097901324
3114.0,0.13153190097901324
3113.0,0.13153190097901324
3112.0,0.13153190097901324
3111.0,0.13159069668503998
3110.0,0.13170831198214428
3109.0,0.1318847946727828
3108.0,0.13212021654162043
3107.0,0.1322379753497993
3106.0,0.13235576609690147
3105.0,0.13235576609690147
3104.0,0.13235576609690147
3103.0,0.13241467345296387
3102.0,0.1325325121409484
3101.0,0.13265038281120756
3100.0,0.13270933014511588
3099.0,0.13265038281120756
3098.0,0.1325325121409484
3097.0,0.13235576609690147
3096.0,0.132179091954427
3095.0,0.13212021654162043
3094.0,0.132179091954427
3093.0,0.13229686672990226
3092.0,0.13235576609690147
3091.0,0.13229686672990226
3090.0,0.132179091954427
3089.0,0.1320613491092153
3088.0,0.13194363817695853
3087.0,0.13200248965504868
3086.0,0.132179091954427
3085.0,0.13247358880025661
3084.0,0.13276828548110586
3083.0,0.13300418688935212
3082.0,0.13329924395750092
3081.0,0.13359450162194508
3080.0,0.13383085236622927
3079.0,0.1340081998737246
3078.0,0.13406733180681396
3077.0,0.13388996015562338
3076.0,0.13359450162194508
3075.0,0.13329924395750092
3074.0,0.1331221856625011
3073.0,0.13318119707395182
3072.0,0.13347637446715632
3071.0,0.1337717526203528
3070.0,0.1340081998737246
3069.0,0.1341264717921853
3068.0,0.13430394008392943
3067.0,0.13454067733803532
3066.0,0.134659094375416
3065.0,0.134659094375416
3064.0,0.13448148092522594
3063.0,0.13424477592854833
3062.0,0.13406733180681396
3061.0,0.13394907599072514
3060.0,0.13394907599072514
3059.0,0.1340081998737246
3058.0,0.1341264717921853
3057.0,0.13418561983203192
3056.0,0.13424477592854833
3055.0,0.13430394008392943
3054.0,0.13442229258007088
3053.0,0.1345998818206986
3052.0,0.13477754370982087
3051.0,0.13483678049391368
3050.0,0.13477754370982087
3049.0,0.1345998818206986
3048.0,0.13442229258007088
3047.0,0.13424477592854833
3046.0,0.13406733180681396
3045.0,0.1337717526203528
3044.0,0.13347637446715632
3043.0,0.13324021650489182
3042.0,0.13294519952329842
3041.0,0.13270933014511588
3040.0,0.13241467345296387
3039.0,0.1322379753497993
3038.0,0.1320613491092153
3037.0,0.13194363817695853
3036.0,0.13176713157753506
3035.0,0.1316495003520317
3034.0,0.13153190097901324
3033.0,0.13153190097901324
3032.0,0.1314731132317961
3031.0,0.1312967977214634
3030.0,0.1311792938024825
3029.0,0.1311792938024825
3028.0,0.13123804178794973
3027.0,0.1312967977214634
3026.0,0.13135556160517425
3025.0,0.13135556160517425
3024.0,0.13141433344123432
3023.0,0.1314731132317961
3022.0,0.1314731132317961
3021.0,0.1314731132317961
3020.0,0.1314731132317961
3019.0,0.1314731132317961
3018.0,0.13159069668503998
3017.0,0.13170831198214428
3016.0,0.13194363817695853
3015.0,0.13229686672990226
3014.0,0.13270933014511588
3013.0,0.13306318226836056
3012.0,0.13329924395750092
3011.0,0.13347637446715632
3010.0,0.13371266091580503
3009.0,0.13383085236622927
3008.0,0.13383085236622927
3007.0,0.1337717526203528
3006.0,0.13371266091580503
3005.0,0.13371266091580503
3004.0,0.13383085236622927
3003.0,0.13406733180681396
3002.0,0.13436311230037123
3001.0,0.1345998818206986
3000.0,0.13477754370982087
2999.0,0.1349552783069008
2998.0,0.1352516643703412
2997.0,0.13554825284181704
2996.0,0.13590442657575252
2995.0,0.136142038116027
2994.0,0.13626089265478303
2993.0,0.13643923547375736
2992.0,0.13673663634951905
2991.0,0.13721290176465573
2990.0,0.13763006287711765
2989.0,0.1380476250785483
2988.0,0.13822670328130693
2987.0,0.13828641242856565
2986.0,0.13834612978608907
2985.0,0.1384058553561347
2984.0,0.13858508136400327
2983.0,0.1387643813659596
2982.0,0.1390633792999063
2981.0,0.1394224487555844
2980.0,0.1397219002477652
2979.0,0.14002155835797914
2978.0,0.14032142337155173
2977.0,0.1405014418122239
2976.0,0.1407415825326932
2975.0,0.1410419452819942
2974.0,0.1415229581866595
2973.0,0.14206473528057106
2972.0,0.1425468829647336
2971.0,0.14296920172737604
2970.0,0.14345235514325205
2969.0,0.143996546002779
2968.0,0.14466259553045968
2967.0,0.14532966810466452
2966.0,0.1459369881335788
2965.0,0.1466060225493342
2964.0,0.1472760892087941
2963.0,0.1479471913021495
2962.0,0.14861933203440336
2961.0,0.14923127307111983
2960.0,0.1495988520028415
2959.0,0.14990540561329913
2958.0,0.15015080439474215
2957.0,0.1503963419175529
2956.0,0.1507034591652734
2955.0,0.1509493094304879
2954.0,0.15119529894819617
2953.0,0.15131834597604965
2952.0,0.1513798825658661
2951.0,0.15125681810431635
2950.0,0.15101079374883275
2949.0,0.1507034591652734
2948.0,0.15033494452126717
2947.0,0.1499667423102311
2946.0,0.14953756723848333
2945.0,0.1489251947711132
2944.0,0.14813039927023364
2943.0,0.1472151313194523
2942.0,0.14624096692523136
2941.0,0.14520830594601453
2940.0,0.1441175699639643
2939.0,0.14302956651750764
2938.0,0.14182386201765573
2937.0,0.14068153490288382
2936.0,0.13948232253825377
2935.0,0.13834612978608907
2934.0,0.13727247168202528
2933.0,0.13632033212410222
2932.0,0.13566694496660703
2931.0,0.1352516643703412
2930.0,0.13489602535887202
2929.0,0.13448148092522594
2928.0,0.1337717526203528
2927.0,0.13294519952329842
2926.0,0.132179091954427
2925.0,0.13159069668503998
2924.0,0.1311792938024825
2923.0,0.1308269726783169
2922.0,0.1306509192409071
2921.0,0.13070959579060148
2920.0,0.13094438129809216
2919.0,0.13135556160517425
2918.0,0.13176713157753506
2917.0,0.13229686672990226
2916.0,0.13276828548110586
2915.0,0.1331221856625011
2914.0,0.13347637446715632
2913.0,0.13383085236622927
2912.0,0.13430394008392943
2911.0,0.13477754370982087
2910.0,0.13519237097385295
2909.0,0.13560759484941132
2908.0,0.1360826230421397
2907.0,0.1366771398795441
2906.0,0.13715334001706125
2905.0,0.13751083309410284
2904.0,0.13768969004572962
2903.0,0.13780896894840278
2902.0,0.13798794874978348
2901.0,0.13816700234205515
2900.0,0.1384058553561347
2899.0,0.13870460647330418
2898.0,0.13900356324280416
2897.0,0.13924287691845794
2896.0,0.13960209487268727
2895.0,0.1399616101928065
2894.0,0.14026143380285316
2893.0,0.1405014418122239
2892.0,0.14056146454494378
2891.0,0.14062149557439896
2890.0,0.14068153490288382
2889.0,0.1408016384661226
2888.0,0.1410419452819942
2887.0,0.1413425159091921
2886.0,0.14164329470222659
2885.0,0.14176366457048695
2884.0,0.14176366457048695
2883.0,0.14164329470222659
2882.0,0.1414628024303608
2881.0,0.14128238513970826
2880.0,0.14110204276799654
2879.0,0.1410419452819942
2878.0,0.1410419452819942
2877.0,0.14116214857141451
2876.0,0.14122226269455074
2875.0,0.1413425159091921
2874.0,0.14140265500530758
2873.0,0.14140265500530758
2872.0,0.14110204276799654
2871.0,0.14056146454494378
2870.0,0.1399616101928065
2869.0,0.13954220457652888
2868.0,0.13918303613546223
2867.0,0.1390633792999063
2866.0,0.13900356324280416
2865.0,0.13900356324280416
2864.0,0.13900356324280416
2863.0,0.1388839558386048
2862.0,0.1387643813659596
2861.0,0.13846558914096208
2860.0,0.13798794874978348
2859.0,0.13739163603505822
2858.0,0.13673663634951905
2857.0,0.13620146131949973
2856.0,0.13578566953867033
2855.0,0.13542959314656988
2854.0,0.1352516643703412
2853.0,0.1350738084609946
2852.0,0.13501453934020602
2851.0,0.1350738084609946
2850.0,0.1352516643703412
2849.0,0.1354889189416082
2848.0,0.13572630319562085
2847.0,0.1360232160956132
2846.0,0.13626089265478303
2845.0,0.13661765155921235
2844.0,0.1370342410222376
2843.0,0.1374512304752069
2842.0,0.13780896894840278
2841.0,0.13816700234205515
2840.0,0.1385253311428314
2839.0,0.1388839558386048
2838.0,0.1390633792999063
2837.0,0.13894375542312654
2836.0,0.1387643813659596
2835.0,0.1385253311428314
2834.0,0.13834612978608907
2833.0,0.13828641242856565
2832.0,0.13828641242856565
2831.0,0.13834612978608907
2830.0,0.1384058553561347
2829.0,0.13828641242856565
2828.0,0.1381073096085541
2827.0,0.13786862068696282
2826.0,0.13774932540207496
2825.0,0.13786862068696282
2824.0,0.1380476250785483
2823.0,0.13822670328130693
2822.0,0.13828641242856565
2821.0,0.13828641242856565
2820.0,0.13822670328130693
2819.0,0.13822670328130693
2818.0,0.13828641242856565
2817.0,0.13846558914096208
2816.0,0.13858508136400327
2815.0,0.13858508136400327
2814.0,0.1384058553561347
2813.0,0.13828641242856565
2812.0,0.13828641242856565
2811.0,0.13828641242856565
2810.0,0.13834612978608907
2809.0,0.13834612978608907
2808.0,0.13828641242856565
2807.0,0.13816700234205515
2806.0,0.1381073096085541
2805.0,0.1380476250785483
2804.0,0.13798794874978348
2803.0,0.13792828062000573
2802.0,0.13798794874978348
2801.0,0.1381073096085541
2800.0,0.13822670328130693
2799.0,0.13828641242856565
2798.0,0.13828641242856565
2797.0,0.1381073096085541
2796.0,0.13798794874978348
2795.0,0.13798794874978348
2794.0,0.1380476250785483
2793.0,0.13816700234205515
2792.0,0.13828641242856565
2791.0,0.13828641242856565
2790.0,0.13822670328130693
2789.0,0.1381073096085541
2788.0,0.13798794874978348
2787.0,0.13786862068696282
2786.0,0.13774932540207496
2785.0,0.13768969004572962
2784.0,0.13780896894840278
2783.0,0.13798794874978348
2782.0,0.13816700234205515
2781.0,0.13816700234205515
2780.0,0.1380476250785483
2779.0,0.13780896894840278
2778.0,0.13768969004572962
2777.0,0.13763006287711765
2776.0,0.13768969004572962
2775.0,0.13780896894840278
2774.0,0.13786862068696282
2773.0,0.13774932540207496
2772.0,0.13751083309410284
2771.0,0.13721290176465573
2770.0,0.13709378643700187
2769.0,0.1370342410222376
2768.0,0.13709378643700187
2767.0,0.13721290176465573
2766.0,0.1373320497714121
2765.0,0.13768969004572962
2764.0,0.1380476250785483
2763.0,0.13834612978608907
2762.0,0.13846558914096208
2761.0,0.13834612978608907
2760.0,0.13822670328130693
2759.0,0.13816700234205515
2758.0,0.13822670328130693
2757.0,0.13828641242856565
2756.0,0.13828641242856565
2755.0,0.1380476250785483
2754.0,0.13786862068696282
2753.0,0.13774932540207496
2752.0,0.13774932540207496
2751.0,0.13780896894840278
2750.0,0.13786862068696282
2749.0,0.13792828062000573
2748.0,0.1381073096085541
2747.0,0.13828641242856565
2746.0,0.13846558914096208
2745.0,0.13846558914096208
2744.0,0.13822670328130693
2743.0,0.13798794874978348
2742.0,0.13780896894840278
2741.0,0.13774932540207496
2740.0,0.13774932540207496
2739.0,0.13768969004572962
2738.0,0.13763006287711765
2737.0,0.13768969004572962
2736.0,0.13768969004572962
2735.0,0.13768969004572962
2734.0,0.13768969004572962
2733.0,0.1375704438939911
2732.0,0.1374512304752069
2731.0,0.13739163603505822
2730.0,0.13727247168202528
2729.0,0.13715334001706125
2728.0,0.13715334001706125
2727.0,0.13715334001706125
2726.0,0.13727247168202528
2725.0,0.13751083309410284
2724.0,0.13780896894840278
2723.0,0.1381073096085541
2722.0,0.13822670328130693
2721.0,0.13798794874978348
2720.0,0.1375704438939911
2719.0,0.13715334001706125
2718.0,0.1367961409713705
2717.0,0.13673663634951905
2716.0,0.13685565374733244
2715.0,0.13709378643700187
2714.0,0.1373320497714121
2713.0,0.1374512304752069
2712.0,0.1374512304752069
2711.0,0.13739163603505822
2710.0,0.13739163603505822
2709.0,0.13751083309410284
2708.0,0.13763006287711765
2707.0,0.13763006287711765
2706.0,0.1374512304752069
2705.0,0.13727247168202528
2704.0,0.13715334001706125
2703.0,0.13721290176465573
2702.0,0.13739163603505822
2701.0,0.13751083309410284
2700.0,0.1375704438939911
2699.0,0.13763006287711765
2698.0,0.13763006287711765
2697.0,0.13768969004572962
2696.0,0.13768969004572962
2695.0,0.13768969004572962
2694.0,0.13763006287711765
2693.0,0.13751083309410284
2692.0,0.1373320497714121
2691.0,0.13715334001706125
2690.0,0.13709378643700187
2689.0,0.13715334001706125
2688.0,0.13739163603505822
2687.0,0.1374512304752069
2686.0,0.1373320497714121
2685.0,0.13709378643700187
2684.0,0.1369151746796402
2683.0,0.13697470377052956
2682.0,0.13715334001706125
2681.0,0.1373320497714121
2680.0,0.1374512304752069
2679.0,0.13739163603505822
2678.0,0.1373320497714121
2677.0,0.1373320497714121
2676.0,0.1374512304752069
2675.0,0.13763006287711765
2674.0,0.13774932540207496
2673.0,0.13768969004572962
2672.0,0.1375704438939911
2671.0,0.1374512304752069
2670.0,0.13739163603505822
2669.0,0.13739163603505822
2668.0,0.1373320497714121
2667.0,0.13727247168202528
2666.0,0.13721290176465573
2665.0,0.13721290176465573
2664.0,0.1373320497714121
2663.0,0.13739163603505822
2662.0,0.13751083309410284
2661.0,0.13763006287711765
2660.0,0.13768969004572962
2659.0,0.13768969004572962
2658.0,0.1375704438939911
2657.0,0.1373320497714121
2656.0,0.13721290176465573
2655.0,0.13721290176465573
2654.0,0.1373320497714121
2653.0,0.1374512304752069
2652.0,0.13751083309410284
2651.0,0.1374512304752069
2650.0,0.13727247168202528
2649.0,0.13709378643700187
2648.0,0.13697470377052956
2647.0,0.1369151746796402
2646.0,0.1369151746796402
2645.0,0.13685565374733244
2644.0,0.1367961409713705
2643.0,0.1369151746796402
2642.0,0.13715334001706125
2641.0,0.13739163603505822
2640.0,0.13768969004572962
2639.0,0.13792828062000573
2638.0,0.1381073096085541
2637.0,0.13834612978608907
2636.0,0.13846558914096208
2635.0,0.13846558914096208
2634.0,0.1384058553561347
2633.0,0.13822670328130693
2632.0,0.13798794874978348
2631.0,0.13786862068696282
2630.0,0.13780896894840278
2629.0,0.13780896894840278
2628.0,0.13792828062000573
2627.0,0.1380476250785483
2626.0,0.13816700234205515
2625.0,0.13822670328130693
2624.0,0.13828641242856565
2623.0,0.1384058553561347
2622.0,0.13858508136400327
2621.0,0.13870460647330418
2620.0,0.1388241644869712
2619.0,0.1387643813659596
2618.0,0.13870460647330418
2617.0,0.13846558914096208
2616.0,0.13822670328130693
2615.0,0.1380476250785483
2614.0,0.13786862068696282
2613.0,0.13774932540207496
2612.0,0.13780896894840278
2611.0,0.13792828062000573
2610.0,0.1380476250785483
2609.0,0.13822670328130693
2608.0,0.1384058553561347
2607.0,0.1385253311428314
2606.0,0.13864483980673992
2605.0,0.13864483980673992
2604.0,0.13858508136400327
2603.0,0.13846558914096208
2602.0,0.13846558914096208
2601.0,0.1385253311428314
2600.0,0.13858508136400327
2599.0,0.13870460647330418
2598.0,0.1387643813659596
2597.0,0.1388839558386048
2596.0,0.13894375542312654
2595.0,0.13900356324280416
2594.0,0.13894375542312654
2593.0,0.1388241644869712
2592.0,0.13870460647330418
2591.0,0.13864483980673992
2590.0,0.13864483980673992
2589.0,0.13870460647330418
2588.0,0.1388241644869712
2587.0,0.13900356324280416
2586.0,0.13918303613546223
2585.0,0.13924287691845794
2584.0,0.13930272594796111
2583.0,0.13936258322624528
2582.0,0.13954220457652888
2581.0,0.1396619934290062
2580.0,0.1396619934290062
2579.0,0.13954220457652888
2578.0,0.13936258322624528
2577.0,0.13930272594796111
2576.0,0.13930272594796111
2575.0,0.13936258322624528
2574.0,0.13948232253825377
2573.0,0.13954220457652888
2572.0,0.13954220457652888
2571.0,0.13954220457652888
2570.0,0.13960209487268727
2569.0,0.1396619934290062
2568.0,0.1397219002477652
2567.0,0.1397219002477652
2566.0,0.1397219002477652
2565.0,0.1397219002477652
2564.0,0.13978181533124334
2563.0,0.13990167030148193
2562.0,0.1399616101928065
2561.0,0.14002155835797914
2560.0,0.14002155835797914
2559.0,0.14002155835797914
2558.0,0.1400815147992842
2557.0,0.1400815147992842
2556.0,0.14002155835797914
2555.0,0.13990167030148193
2554.0,0.13990167030148193
2553.0,0.14002155835797914
2552.0,0.1402014525194344
2551.0,0.14032142337155173
2550.0,0.14032142337155173
2549.0,0.14032142337155173
2548.0,0.14032142337155173
2547.0,0.14038142122781938
2546.0,0.1404414273739465
2545.0,0.1404414273739465
2544.0,0.1404414273739465
2543.0,0.1405014418122239
2542.0,0.14056146454494378
2541.0,0.1405014418122239
2540.0,0.1404414273739465
2539.0,0.1405014418122239
2538.0,0.14062149557439896
2537.0,0.1407415825326932
2536.0,0.1408016384661226
2535.0,0.1407415825326932
2534.0,0.14062149557439896
2533.0,0.14056146454494378
2532.0,0.14062149557439896
2531.0,0.1407415825326932
2530.0,0.14086170270546927
2529.0,0.1409818561111058
2528.0,0.14116214857141451
2527.0,0.14140265500530758
2526.0,0.1415831222765116
2525.0,0.14170347546611461
2524.0,0.14182386201765573
2523.0,0.141884067809934
2522.0,0.14182386201765573
2521.0,0.14170347546611461
2520.0,0.1415831222765116
2519.0,0.1415229581866595
2518.0,0.14140265500530758
2517.0,0.1413425159091921
2516.0,0.14122226269455074
2515.0,0.14116214857141451
2514.0,0.14122226269455074
2513.0,0.1413425159091921
2512.0,0.14140265500530758
2511.0,0.1414628024303608
2510.0,0.1413425159091921
2509.0,0.14122226269455074
2508.0,0.1410419452819942
2507.0,0.1409217752530305
2506.0,0.1409217752530305
2505.0,0.1410419452819942
2504.0,0.14116214857141451
2503.0,0.14128238513970826
2502.0,0.1413425159091921
2501.0,0.14140265500530758
2500.0,0.1414628024303608
2499.0,0.1415831222765116
2498.0,0.14164329470222659
2497.0,0.14164329470222659
2496.0,0.1415229581866595
2495.0,0.1414628024303608
2494.0,0.1414628024303608
2493.0,0.1414628024303608
2492.0,0.1415229581866595
2491.0,0.1415831222765116
2490.0,0.14170347546611461
2489.0,0.14170347546611461
2488.0,0.14164329470222659
2487.0,0.1415229581866595
2486.0,0.14140265500530758
2485.0,0.1413425159091921
2484.0,0.1413425159091921
2483.0,0.14128238513970826
2482.0,0.14128238513970826
2481.0,0.14122226269455074
2480.0,0.14116214857141451
2479.0,0.1410419452819942
2478.0,0.1409217752530305
2477.0,0.14086170270546927
2476.0,0.14086170270546927
2475.0,0.1409818561111058
2474.0,0.14116214857141451
2473.0,0.14122226269455074
2472.0,0.14122226269455074
2471.0,0.14122226269455074
2470.0,0.14110204276799654
2469.0,0.1409818561111058
2468.0,0.14086170270546927
2467.0,0.1408016384661226
2466.0,0.1408016384661226
2465.0,0.1408016384661226
2464.0,0.1407415825326932
2463.0,0.14068153490288382
2462.0,0.14062149557439896
2461.0,0.14056146454494378
2460.0,0.14056146454494378
2459.0,0.1404414273739465
2458.0,0.14038142122781938
2457.0,0.14026143380285316
2456.0,0.14026143380285316
2455.0,0.14032142337155173
2454.0,0.1404414273739465
2453.0,0.14056146454494378
2452.0,0.14062149557439896
2451.0,0.14062149557439896
2450.0,0.14062149557439896
2449.0,0.14068153490288382
2448.0,0.1407415825326932
2447.0,0.14086170270546927
2446.0,0.1409818561111058
2445.0,0.1410419452819942
2444.0,0.1409217752530305
2443.0,0.1407415825326932
2442.0,0.1404414273739465
2441.0,0.14026143380285316
2440.0,0.1402014525194344
2439.0,0.1402014525194344
2438.0,0.14026143380285316
2437.0,0.14032142337155173
2436.0,0.14032142337155173
2435.0,0.14032142337155173
2434.0,0.14032142337155173
2433.0,0.1404414273739465
2432.0,0.14068153490288382
2431.0,0.14086170270546927
2430.0,0.1410419452819942
2429.0,0.14110204276799654
2428.0,0.1410419452819942
2427.0,0.1409818561111058
2426.0,0.1409818561111058
2425.0,0.1410419452819942
2424.0,0.14110204276799654
2423.0,0.14110204276799654
2422.0,0.14116214857141451
2421.0,0.14128238513970826
2420.0,0.1414628024303608
2419.0,0.1415831222765116
2418.0,0.1415831222765116
2417.0,0.1415229581866595
2416.0,0.1415229581866595
2415.0,0.14164329470222659
2414.0,0.14182386201765573
2413.0,0.1419442819496357
2412.0,0.1419442819496357
2411.0,0.141884067809934
2410.0,0.141884067809934
2409.0,0.14182386201765573
2408.0,0.14176366457048695
2407.0,0.14170347546611461
2406.0,0.14176366457048695
2405.0,0.14182386201765573
2404.0,0.14200450443907608
2403.0,0.14212497447643746
2402.0,0.14218522202899342
2401.0,0.14224547794055775
2400.0,0.14212497447643746
2399.0,0.14200450443907608
2398.0,0.141884067809934
2397.0,0.14182386201765573
2396.0,0.141884067809934
2395.0,0.1419442819496357
2394.0,0.14200450443907608
2393.0,0.1419442819496357
2392.0,0.141884067809934
2391.0,0.141884067809934
2390.0,0.1419442819496357
2389.0,0.14206473528057106
2388.0,0.14212497447643746
2387.0,0.14218522202899342
2386.0,0.14206473528057106
2385.0,0.1419442819496357
2384.0,0.14182386201765573
2383.0,0.14170347546611461
2382.0,0.1414628024303608
2381.0,0.14110204276799654
2380.0,0.14062149557439896
2379.0,0.14002155835797914
2378.0,0.13954220457652888
2377.0,0.13918303613546223
2376.0,0.1388839558386048
2375.0,0.1387643813659596
2374.0,0.1387643813659596
2373.0,0.1388241644869712
2372.0,0.13894375542312654
2371.0,0.13924287691845794
2370.0,0.1400815147992842
2369.0,0.1413425159091921
2368.0,0.14260718907909875
2367.0,0.14333151638846497
2366.0,0.1430899396992138
2365.0,0.14206473528057106
2364.0,0.1407415825326932
2363.0,0.1399616101928065
2362.0,0.14014147951900724
2361.0,0.1413425159091921
2360.0,0.1427881576831076
2359.0,0.1438755557576996
2358.0,0.1438755557576996
2357.0,0.14290884532648618
2356.0,0.14170347546611461
2355.0,0.1409818561111058
2354.0,0.1409818561111058
2353.0,0.1414628024303608
2352.0,0.14200450443907608
2351.0,0.14206473528057106
2350.0,0.14176366457048695
2349.0,0.1415229581866595
2348.0,0.1409818561111058
2347.0,0.13984173868172167
2346.0,0.13816700234205515
2345.0,0.13685565374733244
2344.0,0.13655817138629134
2343.0,0.13709378643700187
2342.0,0.13798794874978348
2341.0,0.13828641242856565
2340.0,0.13763006287711765
2339.0,0.13673663634951905
2338.0,0.13649869935854997
2337.0,0.13709378643700187
2336.0,0.1380476250785483
2335.0,0.13894375542312654
2334.0,0.13954220457652888
2333.0,0.1396619934290062
2332.0,0.13924287691845794
2331.0,0.1384058553561347
2330.0,0.13780896894840278
2329.0,0.1380476250785483
2328.0,0.1390633792999063
2327.0,0.14026143380285316
2326.0,0.1408016384661226
2325.0,0.14062149557439896
2324.0,0.1402014525194344
2323.0,0.1400815147992842
2322.0,0.1400815147992842
2321.0,0.13990167030148193
2320.0,0.13960209487268727
2319.0,0.13948232253825377
2318.0,0.13978181533124334
2317.0,0.1402014525194344
2316.0,0.14056146454494378
2315.0,0.1408016384661226
2314.0,0.1409818561111058
2313.0,0.1410419452819942
2312.0,0.1409818561111058
2311.0,0.1409217752530305
2310.0,0.1409217752530305
2309.0,0.1409217752530305
2308.0,0.1409217752530305
2307.0,0.1409818561111058
2306.0,0.14116214857141451
2305.0,0.14122226269455074
2304.0,0.14122226269455074
2303.0,0.14122226269455074
2302.0,0.14128238513970826
2301.0,0.1414628024303608
2300.0,0.1415229581866595
2299.0,0.1415229581866595
2298.0,0.1414628024303608
2297.0,0.1414628024303608
2296.0,0.1415229581866595
2295.0,0.14164329470222659
2294.0,0.14176366457048695
2293.0,0.14182386201765573
2292.0,0.141884067809934
2291.0,0.14200450443907608
2290.0,0.14224547794055775
2289.0,0.1423660148499919
2288.0,0.14242629585250421
2287.0,0.14230574221345038
2286.0,0.14212497447643746
2285.0,0.1419442819496357
2284.0,0.141884067809934
2283.0,0.1419442819496357
2282.0,0.14218522202899342
2281.0,0.1423660148499919
2280.0,0.1423660148499919
2279.0,0.14224547794055775
2278.0,0.14206473528057106
2277.0,0.1419442819496357
2276.0,0.141884067809934
2275.0,0.1419442819496357
2274.0,0.14200450443907608
2273.0,0.14200450443907608
2272.0,0.141884067809934
2271.0,0.14182386201765573
2270.0,0.14170347546611461
2269.0,0.1415831222765116
2268.0,0.14140265500530758
2267.0,0.1413425159091921
2266.0,0.14140265500530758
2265.0,0.1415831222765116
2264.0,0.14176366457048695
2263.0,0.141884067809934
2262.0,0.1419442819496357
2261.0,0.141884067809934
2260.0,0.14170347546611461
2259.0,0.1415831222765116
2258.0,0.1415831222765116
2257.0,0.14164329470222659
2256.0,0.14164329470222659
2255.0,0.1415831222765116
2254.0,0.1415229581866595
2253.0,0.1415229581866595
2252.0,0.1415229581866595
2251.0,0.1415229581866595
2250.0,0.1415831222765116
2249.0,0.1415229581866595
2248.0,0.1414628024303608
2247.0,0.1413425159091921
2246.0,0.14128238513970826
2245.0,0.14128238513970826
2244.0,0.14128238513970826
2243.0,0.14116214857141451
2242.0,0.14110204276799654
2241.0,0.14116214857141451
2240.0,0.14128238513970826
2239.0,0.14140265500530758
2238.0,0.1414628024303608
2237.0,0.1415831222765116
2236.0,0.14164329470222659
2235.0,0.14164329470222659
2234.0,0.1415831222765116
2233.0,0.14140265500530758
2232.0,0.14128238513970826
2231.0,0.14116214857141451
2230.0,0.14110204276799654
2229.0,0.14110204276799654
2228.0,0.14116214857141451
2227.0,0.14110204276799654
2226.0,0.1410419452819942
2225.0,0.1409217752530305
2224.0,0.1408016384661226
2223.0,0.1407415825326932
2222.0,0.14068153490288382
2221.0,0.14062149557439896
2220.0,0.1405014418122239
2219.0,0.1404414273739465
2218.0,0.14038142122781938
2217.0,0.1404414273739465
2216.0,0.1404414273739465
2215.0,0.1405014418122239
2214.0,0.1405014418122239
2213.0,0.1405014418122239
2212.0,0.1404414273739465
2211.0,0.1404414273739465
2210.0,0.1404414273739465
2209.0,0.1405014418122239
2208.0,0.14056146454494378
2207.0,0.14068153490288382
2206.0,0.14068153490288382
2205.0,0.14062149557439896
2204.0,0.14056146454494378
2203.0,0.1405014418122239
2202.0,0.14056146454494378
2201.0,0.14062149557439896
2200.0,0.14056146454494378
2199.0,0.14038142122781938
2198.0,0.14014147951900724
2197.0,0.1399616101928065
2196.0,0.13984173868172167
2195.0,0.13984173868172167
2194.0,0.13984173868172167
2193.0,0.13984173868172167
2192.0,0.13984173868172167
2191.0,0.13990167030148193
2190.0,0.1399616101928065
2189.0,0.14002155835797914
2188.0,0.1399616101928065
2187.0,0.1397219002477652
2186.0,0.13954220457652888
2185.0,0.13948232253825377
2184.0,0.13954220457652888
2183.0,0.1396619934290062
2182.0,0.13978181533124334
2181.0,0.13978181533124334
2180.0,0.1396619934290062
2179.0,0.13954220457652888
2178.0,0.13954220457652888
2177.0,0.13960209487268727
2176.0,0.1396619934290062
2175.0,0.1397219002477652
2174.0,0.13978181533124334
2173.0,0.1397219002477652
2172.0,0.13954220457652888
2171.0,0.1394224487555844
2170.0,0.13936258322624528
2169.0,0.13948232253825377
2168.0,0.13960209487268727
2167.0,0.1396619934290062
2166.0,0.1396619934290062
2165.0,0.13960209487268727
2164.0,0.13954220457652888
2163.0,0.1394224487555844
2162.0,0.13924287691845794
2161.0,0.13918303613546223
2160.0,0.13912320359670227
2159.0,0.13918303613546223
2158.0,0.13930272594796111
2157.0,0.1394224487555844
2156.0,0.13948232253825377
2155.0,0.13954220457652888
2154.0,0.13960209487268727
2153.0,0.1396619934290062
2152.0,0.1396619934290062
2151.0,0.1396619934290062
2150.0,0.13960209487268727
2149.0,0.13948232253825377
2148.0,0.13936258322624528
2147.0,0.13936258322624528
2146.0,0.13948232253825377
2145.0,0.1397219002477652
2144.0,0.13990167030148193
2143.0,0.1399616101928065
2142.0,0.1399616101928065
2141.0,0.13984173868172167
2140.0,0.1397219002477652
2139.0,0.1396619934290062
2138.0,0.1396619934290062
2137.0,0.1396619934290062
2136.0,0.1396619934290062
2135.0,0.13960209487268727
2134.0,0.13960209487268727
2133.0,0.1396619934290062
2132.0,0.1396619934290062
2131.0,0.1396619934290062
2130.0,0.13960209487268727
2129.0,0.13954220457652888
2128.0,0.1394224487555844
2127.0,0.1394224487555844
2126.0,0.13948232253825377
2125.0,0.13960209487268727
2124.0,0.13978181533124334
2123.0,0.13990167030148193
2122.0,0.1399616101928065
2121.0,0.13990167030148193
2120.0,0.13978181533124334
2119.0,0.1396619934290062
2118.0,0.13954220457652888
2117.0,0.13948232253825377
2116.0,0.1394224487555844
2115.0,0.13948232253825377
2114.0,0.13960209487268727
2113.0,0.1396619934290062
2112.0,0.1396619934290062
2111.0,0.13948232253825377
2110.0,0.13936258322624528
2109.0,0.13924287691845794
2108.0,0.13924287691845794
2107.0,0.13924287691845794
2106.0,0.13936258322624528
2105.0,0.1394224487555844
2104.0,0.1394224487555844
2103.0,0.13936258322624528
2102.0,0.13930272594796111
2101.0,0.13924287691845794
2100.0,0.13912320359670227
2099.0,0.13900356324280416
2098.0,0.13900356324280416
2097.0,0.13900356324280416
2096.0,0.1390633792999063
2095.0,0.1390633792999063
2094.0,0.13900356324280416
2093.0,0.1388839558386048
2092.0,0.1388241644869712
2091.0,0.1387643813659596
2090.0,0.1387643813659596
2089.0,0.1388241644869712
2088.0,0.1388241644869712
2087.0,0.1387643813659596
2086.0,0.13864483980673992
2085.0,0.1384058553561347
2084.0,0.13816700234205515
2083.0,0.13798794874978348
2082.0,0.13786862068696282
2081.0,0.13786862068696282
2080.0,0.13792828062000573
2079.0,0.1380476250785483
2078.0,0.1381073096085541
2077.0,0.1380476250785483
2076.0,0.13798794874978348
2075.0,0.13780896894840278
2074.0,0.13774932540207496
2073.0,0.13763006287711765
2072.0,0.13763006287711765
2071.0,0.1375704438939911
2070.0,0.13751083309410284
2069.0,0.1374512304752069
2068.0,0.1373320497714121
2067.0,0.13721290176465573
2066.0,0.13709378643700187
2065.0,0.1370342410222376
2064.0,0.13697470377052956
2063.0,0.1369151746796402
2062.0,0.13685565374733244
2061.0,0.1366771398795441
2060.0,0.13649869935854997
2059.0,0.1363797797296844
2058.0,0.13626089265478303
2057.0,0.13626089265478303
2056.0,0.13620146131949973
2055.0,0.136142038116027
2054.0,0.136142038116027
2053.0,0.136142038116027
2052.0,0.1360232160956132
2051.0,0.13584504399797437
2050.0,0.13566694496660703
2049.0,0.1354889189416082
2048.0,0.13537027545448765
2047.0,0.1352516643703412
2046.0,0.13519237097385295
2045.0,0.13513308567147386
2044.0,0.1350738084609946
2043.0,0.1349552783069008
2042.0,0.13489602535887202
2041.0,0.13483678049391368
2040.0,0.13483678049391368
2039.0,0.13483678049391368
2038.0,0.13477754370982087
2037.0,0.134659094375416
2036.0,0.13448148092522594
2035.0,0.13436311230037123
2034.0,0.13430394008392943
2033.0,0.1341264717921853
2032.0,0.13388996015562338
2031.0,0.13359450162194508
2030.0,0.13341732293645103
2029.0,0.13335827943396006
2028.0,0.13329924395750092
2027.0,0.13329924395750092
2026.0,0.13335827943396006
2025.0,0.13335827943396006
2024.0,0.13335827943396006
2023.0,0.13329924395750092
2022.0,0.13324021650489182
2021.0,0.13324021650489182
2020.0,0.13318119707395182
2019.0,0.1331221856625011
2018.0,0.1331221856625011
2017.0,0.13306318226836056
2016.0,0.13294519952329842
2015.0,0.13288622016802298
2014.0,0.13276828548110586
2013.0,0.13276828548110586
2012.0,0.13276828548110586
2011.0,0.13282724882135022
2010.0,0.13288622016802298
2009.0,0.13276828548110586
2008.0,0.13265038281120756
2007.0,0.1325325121409484
2006.0,0.1325325121409484
2005.0,0.1325325121409484
2004.0,0.13241467345296387
2003.0,0.1322379753497993
2002.0,0.1320613491092153
2001.0,0.1318847946727828
2000.0,0.13170831198214428
1999.0,0.13170831198214428
1998.0,0.13176713157753506
1997.0,0.13182595914036166
1996.0,0.13182595914036166
1995.0,0.13182595914036166
1994.0,0.13194363817695853
1993.0,0.13200248965504868
1992.0,0.13200248965504868
1991.0,0.13194363817695853
1990.0,0.13182595914036166
1989.0,0.13182595914036166
1988.0,0.1318847946727828
1987.0,0.13200248965504868
1986.0,0.13212021654162043
1985.0,0.1320613491092153
1984.0,0.1318847946727828
1983.0,0.13176713157753506
1982.0,0.1316495003520317
1981.0,0.13159069668503998
1980.0,0.1314731132317961
1979.0,0.1312967977214634
1978.0,0.1311792938024825
1977.0,0.13106182166708868
1976.0,0.13106182166708868
1975.0,0.1311792938024825
1974.0,0.1312967977214634
1973.0,0.1312967977214634
1972.0,0.13123804178794973
1971.0,0.13123804178794973
1970.0,0.1312967977214634
1969.0,0.1312967977214634
1968.0,0.13123804178794973
1967.0,0.1312967977214634
1966.0,0.13141433344123432
1965.0,0.13153190097901324
1964.0,0.13153190097901324
1963.0,0.1314731132317961
1962.0,0.13141433344123432
1961.0,0.1314731132317961
1960.0,0.13153190097901324
1959.0,0.13159069668503998
1958.0,0.13170831198214428
1957.0,0.13182595914036166
1956.0,0.13200248965504868
1955.0,0.132179091954427
1954.0,0.13247358880025661
1953.0,0.13265038281120756
1952.0,0.13265038281120756
1951.0,0.13247358880025661
1950.0,0.13241467345296387
1949.0,0.13235576609690147
1948.0,0.13229686672990226
1947.0,0.13229686672990226
1946.0,0.13241467345296387
1945.0,0.13247358880025661
1944.0,0.13235576609690147
1943.0,0.132179091954427
1942.0,0.1320613491092153
1941.0,0.13200248965504868
1940.0,0.13182595914036166
1939.0,0.13153190097901324
1938.0,0.13123804178794973
1937.0,0.13094438129809216
1936.0,0.1305922506177981
1935.0,0.1302990263261221
1934.0,0.13006458935314003
1933.0,0.12983027886355947
1932.0,0.12965462891904034
1931.0,0.12942053944731513
1930.0,0.12918657608440243
1929.0,0.12883586719705065
1928.0,0.1284854412916181
1927.0,0.1280769681176266
1926.0,0.1277271537757949
1925.0,0.12743585690934855
1924.0,0.12714475529518965
1923.0,0.12697018793895576
1922.0,0.12702836926155658
1921.0,0.12714475529518965
1920.0,0.1270865583796048
1919.0,0.1267375405612734
1918.0,0.12621453918179926
1917.0,0.12592425477696523
1916.0,0.12569216687196105
1915.0,0.12551818230053358
1914.0,0.12522836281570182
1913.0,0.1249387366082999
1912.0,0.12453358413361437
1911.0,0.12424442074194553
1910.0,0.12407101507707297
1909.0,0.12395544975390482
1908.0,0.12389767862220635
1907.0,0.1236666709136196
1906.0,0.12326270285933538
1905.0,0.12291674334934943
1904.0,0.12257105921178035
1903.0,0.12228319913502328
1902.0,0.12211057462851604
1901.0,0.12193801870998744
1900.0,0.12165057778222454
1899.0,0.12124847982699793
1898.0,0.12090412049992727
1897.0,0.12056003400478299
1896.0,0.12027350336042275
1895.0,0.11987267778337518
1894.0,0.11958660012208333
1893.0,0.11930071078129845
1892.0,0.1190150095132465
1891.0,0.11867241589944855
1890.0,0.1183871275216517
1889.0,0.11815903167507247
1888.0,0.11798803837334138
1887.0,0.11770319906234805
1886.0,0.11736163830396129
1885.0,0.11702034596270106
1884.0,0.116736140415026
1883.0,0.1165089098110701
1882.0,0.11622503864474187
1881.0,0.11594135290606156
1880.0,0.11554450392951199
1879.0,0.11520463605101905
1878.0,0.114865033936566
1877.0,0.11463877996848804
1876.0,0.11435612816423602
1875.0,0.11401718864502697
1874.0,0.11367851344052027
1873.0,0.1133401021387972
1872.0,0.11305829401658474
1871.0,0.11266406960083297
1870.0,0.11210151190312767
1869.0,0.11153968196461372
1868.0,0.11125903931710734
1867.0,0.11114683301706374
1866.0,0.11097857790477517
1865.0,0.11081038795292675
1864.0,0.11047420332880886
1863.0,0.11008231656379408
1862.0,0.10974669484546551
1861.0,0.10946720807225518
1860.0,0.10913206118855912
1859.0,0.10868560061785693
1858.0,0.1082953237608173
1857.0,0.10796107965870849
1856.0,0.10768273927751948
1855.0,0.10740457717110186
1854.0,0.1071265931112344
1853.0,0.10679324694015202
1852.0,0.10646015643533868
1851.0,0.1061827760325369
1850.0,0.10585015323207791
1849.0,0.10546241500425357
1848.0,0.10518567091669917
1847.0,0.10507502264045665
1846.0,0.10513034325474746
1845.0,0.1047432468551055
1844.0,0.10391491457671487
1843.0,0.10330847343711591
1842.0,0.10314322726279568
1841.0,0.10314322726279568
1840.0,0.10308815917397474
1839.0,0.10275789719463457
1838.0,0.10242788617426934
1837.0,0.10226297465457268
1836.0,0.10204318999304807
1835.0,0.1017686154869033
1834.0,0.10149421446564144
1833.0,0.10132965703447017
1832.0,0.10116516193172598
1831.0,0.10089114180660053
1830.0,0.1005078038618683
1829.0,0.10023419805561384
1828.0,0.10001543745060903
1827.0,0.09974214156222239
1826.0,0.09935981601739963
1825.0,0.09870518283443275
1824.0,0.09810596802617932
1823.0,0.09777947172068524
1822.0,0.09745322068600859
1821.0,0.09712721455392082
1820.0,0.09669292003582619
1819.0,0.09625905937846135
1818.0,0.0957714836599215
1817.0,0.09523037409340485
1816.0,0.09458193129745807
1815.0,0.09393445524476318
1814.0,0.09334178232840018
1813.0,0.09264239186882706
1812.0,0.0919441259012328
1811.0,0.09119340059432579
1810.0,0.09039048950983108
1809.0,0.08969583193143116
1808.0,0.08900228368935714
1807.0,0.08830984124613894
1806.0,0.08756536662442538
1805.0,0.08692825969074924
1804.0,0.08634506491338012
1803.0,0.08570974433405087
1802.0,0.08502252755566908
1801.0,0.08423093401631587
1800.0,0.0832303157168639
1799.0,0.08223199755224364
1798.0,0.08134070657817682
1797.0,0.08055578953476306
1796.0,0.08003329851661278
1795.0,0.07961575782164254
1794.0,0.07904229404455076
1793.0,0.07789763319239285
1792.0,0.07628980560343712
1791.0,0.0748426728241014
1790.0,0.07391491307485598
1789.0,0.07329750581735506
1788.0,0.07273231918911849
1787.0,0.0720140529005715
1786.0,0.07109230975604719
1785.0,0.06986635415888243
1784.0,0.06859298644342648
1783.0,0.06747550294945781
1782.0,0.06656333217371957
1781.0,0.06545105233385295
1780.0,0.06414020196211956
1779.0,0.06288348923294618
1778.0,0.061880730805688344
1777.0,0.060880282351513104
1776.0,0.05983228596592505
1775.0,0.059035506507200575
1774.0,0.05809122563440061
1773.0,0.05620880107069848
1772.0,0.053449489430144714
1771.0,0.05114709380028648
1770.0,0.04978123335813667
1769.0,0.04871106272232795
1768.0,0.04715914332429838
1767.0,0.04522701031028298
1766.0,0.04363944632667782
1765.0,0.04268010314465909
1764.0,0.04196198390166317
1763.0,0.04072004986906119
1762.0,0.03862637240519895
1761.0,0.03635381351515665
1760.0,0.03484535401307465
1759.0,0.03432802877989327
1758.0,0.03409308450480819
1757.0,0.03310770413286357
1756.0,0.03161045815293173
1755.0,0.030957032694186815
1754.0,0.03147035562516054
1753.0,0.032311649546687526
1752.0,0.03277974021703267
1751.0,0.033154576345083564
1750.0,0.03442204208947208
1749.0,0.03682628362474838
1748.0,0.04010041213405646
1747.0,0.04426415772233416
1746.0,0.04934311749548925
1745.0,0.05531996611868961
1744.0,0.06263258248271053
1743.0,0.07145053299833615
1742.0,0.0812883346176787
1741.0,0.0917295005042762
1740.0,0.10369429253391926
1739.0,0.11804502866039956
1738.0,0.13288622016802298
1737.0,0.14581545616639335
1736.0,0.15745316350498495
1735.0,0.17031035910102887
1734.0,0.18956584407732735
1733.0,0.21367456560992992
1732.0,0.2341080235699846
1731.0,0.25072759170157966
1730.0,0.2676062401770314
1729.0,0.2860057323393561
1728.0,0.3051316720175439
1727.0,0.32403845035783063
1726.0,0.34246611244201386
1725.0,0.3614109167072832
1724.0,0.3819519032879073
1723.0,0.4040630937308265
1722.0,0.4257371702929731
1721.0,0.44490555142168087
1720.0,0.46104943798563847
1719.0,0.4758636234074314
1718.0,0.4928190227397591
1717.0,0.5132862240175144
1716.0,0.5320960534771997
1715.0,0.5446982283429236
1714.0,0.5528419686577808
1713.0,0.5575202309355514
1712.0,0.5586191150834887
1711.0,0.5564241202497424
1710.0,0.5516028965422324
1709.0,0.5445460312213719
1708.0,0.5361070110140926
1707.0,0.5260753065838426
1706.0,0.5132862240175144
1705.0,0.49921482708254405
1704.0,0.48731560378283634
1703.0,0.4787311244016148
1702.0,0.4708263967382771
1701.0,0.45854557125241113
1700.0,0.4418916983694503
1699.0,0.4281747509591709
1698.0,0.4202164033831899
1697.0,0.41318773055662406
1696.0,0.4032929703185537
1695.0,0.39222339625830704
1694.0,0.383839687152417
1693.0,0.37830453767072125
1692.0,0.3735569746687053
1691.0,0.36804917374078294
1690.0,0.36151074304536257
1689.0,0.3551676711743639
1688.0,0.3500812812645808
1687.0,0.34620881261218805
1686.0,0.34227504579489176
1685.0,0.3364875295848444
1684.0,0.33049716589565703
1683.0,0.3270713095572775
1682.0,0.32495526404410735
1681.0,0.32248429520124255
1680.0,0.31948319061874497
1679.0,0.31623273857468837
1678.0,0.3131850454926832
1677.0,0.3099812192113047
1676.0,0.3060093895392233
1675.0,0.3018124301338776
1674.0,0.2983456826742519
1673.0,0.2955920726131591
1672.0,0.29302632382382177
1671.0,0.2901366825596008
1670.0,0.2870978749527773
1669.0,0.28441444810680383
1668.0,0.2819968317329824
1667.0,0.27967528258255836
1666.0,0.27728383251150523
1665.0,0.27474193364003896
1664.0,0.2717274021049829
1663.0,0.2685724129490521
1662.0,0.26600071346161314
1661.0,0.2638426247268679
1660.0,0.2616952069258951
1659.0,0.2594794139463352
1658.0,0.2571963415308345
1657.0,0.25492520841794253
1656.0,0.25313237214957063
1655.0,0.2511145599904834
1654.0,0.24741382125959088
1653.0,0.2439727870265589
1652.0,0.24260397120697563
1651.0,0.2412394560900204
1650.0,0.24025663240227502
1649.0,0.23957751657678794
1648.0,0.23799703062488464
1647.0,0.23627259623430175
1646.0,0.23537560214901854
1645.0,0.2344059446805551
1644.0,0.23291837863667775
1643.0,0.23143589048642665
1642.0,0.23003219867055757
1641.0,0.22855951336008817
1640.0,0.22709180502872828
1639.0,0.2258481410452895
1638.0,0.2246808781705225
1637.0,0.22329881601158919
1636.0,0.22184874961635637
1635.0,0.22112552799726037
1634.0,0.22033137279285198
1633.0,0.2193227255666319
1632.0,0.21846003139405834
1631.0,0.21745571598998992
1630.0,0.21638223480925123
1629.0,0.21531140049857878
1628.0,0.21438547505317596
1627.0,0.21360353862769577
1626.0,0.2128939069634299
1625.0,0.21190236661970263
1624.0,0.21056031543282083
1623.0,0.2092927126723203
1622.0,0.20859008433283988
1621.0,0.20795868928791772
1620.0,0.20718822875185294
1619.0,0.20641913263184408
1618.0,0.20558166912585896
1617.0,0.20530287310800133
1616.0,0.20641913263184408
1615.0,0.20809891999042884
1614.0,0.2092927126723203
1613.0,0.20978522975602076
1612.0,0.20957408260888943
1611.0,0.2089412564081745
1610.0,0.2081690523251638
1609.0,0.20725821416525125
1608.0,0.20613979865733034
1607.0,0.20488501436963658
1606.0,0.20370325994820848
1605.0,0.20238626984692432
1604.0,0.20107326142279858
1603.0,0.19990181982522426
1602.0,0.19880216554085117
1601.0,0.19749993223560658
1600.0,0.19613336571501572
1599.0,0.1946350925335547
1598.0,0.19327749692381868
1597.0,0.19192413190869306
1596.0,0.19057497120296585
1595.0,0.18929713905288326
1594.0,0.188357978546849
1593.0,0.18768839086887623
1592.0,0.18695303483989223
1591.0,0.18615224577114575
1590.0,0.18541948398968144
1589.0,0.1847544080834369
1588.0,0.18402399902801458
1587.0,0.18329481633348466
1586.0,0.18283142761894444
1585.0,0.18283142761894444
1584.0,0.1835598320438614
1583.0,0.18528638730402336
1582.0,0.18809001957990112
1581.0,0.19145144875959463
1580.0,0.19497515557019485
1579.0,0.19832194096410682
1578.0,0.20086630669793704
1577.0,0.20217868863597643
1576.0,0.20238626984692432
1575.0,0.20190206793751408
1574.0,0.20072839165012724
1573.0,0.19928292171761486
1572.0,0.1977052886025361
1571.0,0.19565608152013425
1570.0,0.19334527600813955
1569.0,0.19131649087103075
1568.0,0.18970025895983111
1567.0,0.18829097330380895
1566.0,0.18708664335714453
1565.0,0.18575240426807982
1564.0,0.1842894602110372
1563.0,0.18329481633348466
1562.0,0.18263298371240588
1561.0,0.1818401136028147
1560.0,0.1791420105603001
1559.0,0.17698247655395072
1558.0,0.17796275192741495
1557.0,0.17763574755845046
1556.0,0.17626501160126873
1555.0,0.17567887514922864
1554.0,0.1748985884019969
1553.0,0.17418455501479646
1552.0,0.17353645090719882
1551.0,0.1730833528150797
1550.0,0.1724368887452763
1549.0,0.17179138553205453
1548.0,0.17095366314681737
1547.0,0.17005330405836405
1546.0,0.16896251435997467
1545.0,0.16774662980299215
1544.0,0.16685288808721488
1543.0,0.16634300310712757
1542.0,0.1657700971483227
1541.0,0.16481693015095633
1540.0,0.1644362483309032
1539.0,0.16437283379010226
1538.0,0.16354928627984533
1537.0,0.16272729749769965
1536.0,0.16234844215360744
1535.0,0.16196991701467978
1534.0,0.16121385505340546
1533.0,0.16077342598656452
1532.0,0.16083631708534996
1531.0,0.16077342598656452
1530.0,0.16058480731610647
1529.0,0.16045910703103106
1528.0,0.16020781555467067
1527.0,0.1600194423216572
1526.0,0.15964294079664376
1525.0,0.15920410115290617
1524.0,0.15857795559764076
1523.0,0.1577028656719348
1522.0,0.1565803347950816
1521.0,0.15558495952617557
1520.0,0.15477789357098626
1519.0,0.15397232463562127
1518.0,0.15335367142288248
1517.0,0.15267416921457633
1516.0,0.15187248943212528
1515.0,0.15113378850522063
1514.0,0.1503963419175529
1513.0,0.1497214474819628
1512.0,0.14898639317633
1511.0,0.14861933203440336
1510.0,0.14898639317633
1509.0,0.15033494452126717
1508.0,0.1532918545439932
1507.0,0.1619068615544017
1506.0,0.1752235375244544
1505.0,0.18336105510153855
1504.0,0.18528638730402336
1503.0,0.1849538239353694
1502.0,0.18283142761894444
1501.0,0.17920761891179637
1500.0,0.17444406770964305
1499.0,0.16941133131485575
1498.0,0.16449967213268124
1497.0,0.1600822243213189
1496.0,0.1562690348879079
1495.0,0.15298290206464582
1494.0,0.15051916275601385
1493.0,0.14868048735125483
1492.0,0.14691047014813452
1491.0,0.1447838052666366
1490.0,0.1425468829647336
1489.0,0.14122226269455074
1488.0,0.14056146454494378
1487.0,0.13978181533124334
1486.0,0.1388839558386048
1485.0,0.1381073096085541
1484.0,0.13739163603505822
1483.0,0.1367961409713705
1482.0,0.1360826230421397
1481.0,0.13542959314656988
1480.0,0.13489602535887202
1479.0,0.13454067733803532
1478.0,0.13406733180681396
1477.0,0.13353543402825974
1476.0,0.13294519952329842
1475.0,0.13247358880025661
1474.0,0.13182595914036166
1473.0,0.13106182166708868
1472.0,0.13053358991913355
1471.0,0.12994741830645506
1470.0,0.12942053944731513
1469.0,0.12930354201075
1468.0,0.1294790499872358
1467.0,0.12988884463559924
1466.0,0.13053358991913355
1465.0,0.1318847946727828
1464.0,0.13418561983203192
1463.0,0.13673663634951905
1462.0,0.13900356324280416
1461.0,0.14116214857141451
1460.0,0.14357322752975565
1459.0,0.1461193498754576
1458.0,0.14917004015146906
1457.0,0.1540961611012175
1456.0,0.15964294079664376
1455.0,0.16323295260579473
1454.0,0.16545214231905137
1453.0,0.16729952903943257
1452.0,0.16877030613293664
1451.0,0.16966800654803826
1450.0,0.1701175535565067
1449.0,0.1704389437006073
1448.0,0.17056756638240134
1447.0,0.1705032502798176
1446.0,0.1704389437006073
1445.0,0.17037464664195068
1444.0,0.1704389437006073
1443.0,0.17037464664195068
1442.0,0.17031035910102887
1441.0,0.17024608107502504
1440.0,0.17024608107502504
1439.0,0.1701175535565067
1438.0,0.16915480769138846
1437.0,0.16710805524020933
1436.0,0.16411926818260536
1435.0,0.16096212661169407
1434.0,0.15795271149036205
1433.0,0.1550260618531123
1432.0,0.1515029819096334
1431.0,0.1471541819850033
1430.0,0.14230574221345038
1429.0,0.13751083309410284
1428.0,0.1331221856625011
1427.0,0.12936203678919433
1426.0,0.12598229613781387
1425.0,0.12245589228405596
1424.0,0.11872949607064243
1423.0,0.11560117444331386
1422.0,0.11339648571328764
1421.0,0.11153968196461372
1420.0,0.10957898119908571
1419.0,0.10823959854332843
1418.0,0.10885296955122903
1417.0,0.11187669270209155
1416.0,0.11741854644554883
1415.0,0.12586622117202761
1414.0,0.13751083309410284
1413.0,0.15292113793428452
1412.0,0.1724368887452763
1411.0,0.19490712165732704
1410.0,0.216739767127051
1409.0,0.23455498190985002
1408.0,0.24649354300903004
1407.0,0.2519671058698565
1406.0,0.2511145599904834
1405.0,0.24542234395526963
1404.0,0.23724643506662613
1403.0,0.22900079483605928
1402.0,0.22170400891116615
1401.0,0.21516882187553077
1400.0,0.2087305190897315
1399.0,0.20224787134928923
1398.0,0.19633807676377568
1397.0,0.19158644859963192
1396.0,0.18762148884580565
1395.0,0.18342730397389695
1394.0,0.1788141173911546
1393.0,0.17431429197824166
1392.0,0.1705032502798176
1391.0,0.16704424939540163
1390.0,0.16354928627984533
1389.0,0.159956669396506
1388.0,0.1562068016740874
1387.0,0.1524890347967518
1386.0,0.14929251462546267
1385.0,0.14691047014813452
1384.0,0.14526898278605782
1383.0,0.143996546002779
1382.0,0.1430899396992138
1381.0,0.1427278264359586
1380.0,0.14302956651750764
1379.0,0.14405705376768396
1378.0,0.14575470293388149
1377.0,0.1479471913021495
1376.0,0.15058058620310066
1375.0,0.1538485234711846
1374.0,0.15795271149036205
1373.0,0.16228533171508874
1372.0,0.16596098184053343
1371.0,0.16896251435997467
1370.0,0.17121125181504682
1369.0,0.17263072694617465
1368.0,0.17276000049435458
1367.0,0.17121125181504682
1366.0,0.16813022571949832
1365.0,0.16361258067358908
1364.0,0.1576404266693252
1363.0,0.15027355580367208
1362.0,0.14242629585250421
1361.0,0.13513308567147386
1360.0,0.12901118623942476
1359.0,0.12389767862220635
1358.0,0.11935787359571504
1357.0,0.11531789579397489
1356.0,0.1117081546434846
1355.0,0.10846254232743546
1354.0,0.10562854614376227
1353.0,0.10314322726279568
1352.0,0.10100072911021085
1351.0,0.0990869322623309
1350.0,0.09761631556752848
1349.0,0.09669292003582619
1348.0,0.09636748391576244
1347.0,0.09663866374468144
1346.0,0.0975619438013351
1345.0,0.0989778267519208
1344.0,0.10078158214862709
1343.0,0.1028679566179056
1342.0,0.10496440254767725
1341.0,0.10673771411200872
1340.0,0.10790539730951965
1339.0,0.10790539730951965
1338.0,0.10651565378151395
1337.0,0.10374943753836186
1336.0,0.09979678698310646
1335.0,0.0950141189006366
1334.0,0.08980263003399913
1333.0,0.08465293767580806
1332.0,0.07992887570247587
1331.0,0.07582412969807906
1330.0,0.07247565912497134
1329.0,0.06996838504902692
1328.0,0.06813548650796819
1327.0,0.06701917807680191
1326.0,0.06661395809694559
1325.0,0.06676587128519196
1324.0,0.06732334137759932
1323.0,0.06828793294324442
1322.0,0.06950943469373039
1321.0,0.07093887591523451
1320.0,0.07247565912497134
1319.0,0.07406940213152868
1318.0,0.07566901529132153
1317.0,0.0772226580712021
1316.0,0.07872981449018734
1315.0,0.08029446545087904
1314.0,0.08207457793525874
1313.0,0.08417821237960132
1312.0,0.08655704514060414
1311.0,0.0892689019566193
1310.0,0.0922125568893839
1309.0,0.09539263618455207
1308.0,0.09870518283443275
1307.0,0.10198826120249849
1306.0,0.10513034325474746
1305.0,0.1081838804751396
1304.0,0.11131515334030118
1303.0,0.114865033936566
1302.0,0.1190150095132465
1301.0,0.12407101507707297
1300.0,0.13018179202067182
1299.0,0.13751083309410284
1298.0,0.14587621789883287
1297.0,0.1550260618531123
1296.0,0.16475346000368907
1295.0,0.17476867680009978
1294.0,0.1848873418101875
1293.0,0.19497515557019485
1292.0,0.20509389348319607
1291.0,0.21495504166845603
1290.0,0.22453519065426075
1289.0,0.23373590934800448
1288.0,0.24267990345332757
1287.0,0.2512694439015055
1286.0,0.25924267669222956
1285.0,0.26648174856551243
1284.0,0.2730284163171235
1283.0,0.2789316982028409
1282.0,0.2839966563652008
1281.0,0.2882771081727653
1280.0,0.29191918953176854
1279.0,0.2948207551263238
1278.0,0.2970527538184442
1277.0,0.29886393390747346
1276.0,0.30094314545233236
1275.0,0.30364361126666783
1274.0,0.30715308072277003
1273.0,0.31202537996544444
1272.0,0.3185778442789915
1271.0,0.3268868957617663
1270.0,0.3369590251060257
1269.0,0.3486250560869568
1268.0,0.36211018341920953
1267.0,0.37706103078850983
1266.0,0.3928667956084333
1265.0,0.4089353929735009
1264.0,0.4251588049366153
1263.0,0.4409316659654632
1262.0,0.45543590250395694
1261.0,0.46864883541694025
1260.0,0.48017200622428113
1259.0,0.48985730059742694
1258.0,0.49716336137899697
1257.0,0.5023793502187122
1256.0,0.5064025509994732
1255.0,0.5097605147537128
1254.0,0.5128616245228135
1253.0,0.5161275457773264
1252.0,0.5204246898250116
1251.0,0.5259294967849564
1250.0,0.5319482085457623
1249.0,0.5389519083293421
1248.0,0.5471406642041476
1247.0,0.5564241202497424
1246.0,0.5655907924124999
1245.0,0.5747919488613435
1244.0,0.5843590201038458
1243.0,0.5941416006823634
1242.0,0.6029294500405913
1241.0,0.6104795341536227
1240.0,0.6167233495923496
1239.0,0.6212388246836267
1238.0,0.6230582428532414
1237.0,0.6225116166238673
1236.0,0.6205131862827262
1235.0,0.6169030700509057
1234.0,0.6111885865264763
1233.0,0.6038006529042637
1232.0,0.5956795327782693
1231.0,0.5877074906769535
1230.0,0.5793842293742351
1229.0,0.5710557099644256
1228.0,0.5628839069519214
1227.0,0.5547072305740282
1226.0,0.5462231403095579
1225.0,0.5377517846450026
1224.0,0.5295895090240692
1223.0,0.5218665718994824
1222.0,0.5141366704026653
1221.0,0.5062631977231602
1220.0,0.4988037579729112
1219.0,0.4914702810287135
1218.0,0.484126156288321
1217.0,0.4767739580342989
1216.0,0.46992843116262173
1215.0,0.4630629772953265
1214.0,0.4563043676907552
1213.0,0.4495270428934366
1212.0,0.4433357378774314
1211.0,0.4374692311377386
1210.0,0.431798275933005
1209.0,0.42631630690620215
1208.0,0.42124621557356545
1207.0,0.4161214015013741
1206.0,0.4107207787640328
1205.0,0.405165644416682
1204.0,0.39978969359067196
1203.0,0.39458720184694873
1202.0,0.38933983691012
1201.0,0.38426031138084515
1200.0,0.37944755527056473
1199.0,0.3748934245965323
1198.0,0.3702846673528677
1197.0,0.3655227298392685
1196.0,0.3607127740897633
1195.0,0.3557584141562713
1194.0,0.3508599358557811
1193.0,0.34591976469342933
1192.0,0.3411304077980377
1191.0,0.3362990746103518
1190.0,0.331334584545508
1189.0,0.32633412375429804
1188.0,0.32166375326781993
1187.0,0.317223353685566
1186.0,0.31300643373532155
1185.0,0.3091839420190845
1184.0,0.30583370406680177
1183.0,0.3027706572402824
1182.0,0.3000755972575233
1181.0,0.2977418368379059
1180.0,0.29610704636745555
1179.0,0.29516339378859624
1178.0,0.29473513768259596
1177.0,0.2946495371142881
1176.0,0.29473513768259596
1175.0,0.2946495371142881
1174.0,0.29422178717140235
1173.0,0.2931116050183822
1172.0,0.29140915484965624
1171.0,0.2889523961329661
1170.0,0.2855864077128789
1169.0,0.28133226468378925
1168.0,0.2762160630346706
1167.0,0.2705922030369319
1166.0,0.264480941184829
1165.0,0.2582183038568333
1164.0,0.2519671058698565
1163.0,0.2458811057745871
1162.0,0.2399546720341894
1161.0,0.23433144524098592
1160.0,0.22900079483605928
1159.0,0.22388020094701222
1158.0,0.21889116427053357
1157.0,0.21417208000413446
1156.0,0.20978522975602076
1155.0,0.20600019901552957
1154.0,0.20273245916928362
1153.0,0.20017716900668026
1152.0,0.19832194096410682
1151.0,0.19715788726092565
1150.0,0.196747788569543
1149.0,0.19729467292564795
1148.0,0.19887081242029603
1147.0,0.20155653964981246
1146.0,0.20523320205917894
1145.0,0.20964445358561346
1144.0,0.2148838049780799
1143.0,0.2206199885083442
1142.0,0.22665245801917688
1141.0,0.23284413391781955
1140.0,0.23905004858910273
1139.0,0.24496406623222855
1138.0,0.2503409679051003
1137.0,0.255237762934422
1136.0,0.2596373105057561
1135.0,0.26360349772335767
1134.0,0.2672043017106709
1133.0,0.2705112308204387
1132.0,0.27368038788922466
1131.0,0.27695500835655484
1130.0,0.28042014228627665
1129.0,0.2843308575990098
1128.0,0.2891213823148271
1127.0,0.29507770877659834
1126.0,0.30233483735232536
1125.0,0.3108688027655022
1124.0,0.3205721033878812
1123.0,0.3311483519174814
1122.0,0.3420840631700448
1121.0,0.3532043112215306
1120.0,0.364013888199167
1119.0,0.3737623148530995
1118.0,0.38142897187987024
1117.0,0.38658105496542694
1116.0,0.389233405226729
1115.0,0.38944629468290537
1114.0,0.38721614328026455
1113.0,0.38310457359924
1112.0,0.37820077599733226
1111.0,0.3735569746687053
1110.0,0.36997914888659
1109.0,0.3687592197644909
1108.0,0.3705904008972811
1107.0,0.3759242688543174
1106.0,0.38426031138084515
1105.0,0.3954499674287386
1104.0,0.4089353929735009
1103.0,0.4242350194632807
1102.0,0.44069198909298746
1101.0,0.4581712332186876
1100.0,0.47638358094562916
1099.0,0.49485002168009395
1098.0,0.5121548798885645
1097.0,0.5278288533076367
1096.0,0.5416643740080525
1095.0,0.5536181877775579
1094.0,0.5632014897681965
1093.0,0.5705707356182124
1092.0,0.575935474582512
1091.0,0.5793842293742351
1090.0,0.5807052782465394
1089.0,0.5800442515102422
1088.0,0.578231598793076
1087.0,0.5754450233932868
1086.0,0.57154122648442
1085.0,0.5676722077383958
1084.0,0.5641556340155587
1083.0,0.5608252601565316
1082.0,0.556893543262734
1081.0,0.5523769022397138
1080.0,0.5477534254795628
1079.0,0.5428753736965912
1078.0,0.5371529641683264
1077.0,0.5310621943345386
1076.0,0.5249101966109935
1075.0,0.5188441291719648
1074.0,0.5121548798885645
1073.0,0.5050110263168319
1072.0,0.49798278517285266
1071.0,0.4912010345960949
1070.0,0.48492132492407736
1069.0,0.4787311244016148
1068.0,0.4730149314400043
1067.0,0.4669909775045147
1066.0,0.460672936460625
1065.0,0.45419824284072385
1064.0,0.44830608487277535
1063.0,0.44297427761361674
1062.0,0.43770713554352536
1061.0,0.4320330931768459
1060.0,0.4265481779645146
1059.0,0.4214753947250067
1058.0,0.41668784801692227
1057.0,0.4122890349810886
1056.0,0.4084901910053458
1055.0,0.4054969561799109
1054.0,0.4032929703185537
1053.0,0.4017568083463774
1052.0,0.4011001129361169
1051.0,0.40088143494463724
1050.0,0.4011001129361169
1049.0,0.4018663541867622
1048.0,0.4031830640844094
1047.0,0.4052760535902533
1046.0,0.4076011538844362
1045.0,0.4099387691962575
1044.0,0.41240127027875517
1043.0,0.41476493663422476
1042.0,0.41657449959349324
1041.0,0.4179366370882913
1040.0,0.4189610512278328
1039.0,0.41953121604899835
1038.0,0.41941712318563273
1037.0,0.4187331947263293
1036.0,0.41759570198097196
1035.0,0.4161214015013741
1034.0,0.4144264813772689
1033.0,0.4122890349810886
1032.0,0.41005039867429227
1031.0,0.40771218404786924
1030.0,0.4050552633049167
1029.0,0.4024144982477953
1028.0,0.3994627056355311
1027.0,0.39599006758776967
1026.0,0.3916879573026728
1025.0,0.38689848303308727
1024.0,0.3825802532628235
1023.0,0.3803849942571935
1022.0,0.3819519032879073
1021.0,0.3889142665851273
1020.0,0.4018663541867622
1019.0,0.4202164033831899
1018.0,0.44153143747620516
1017.0,0.4625587165920524
1016.0,0.4800408192479315
1015.0,0.49079747766889725
1014.0,0.49390104007155955
1013.0,0.4903942953884439
1012.0,0.48320029591837566
1011.0,0.47456644657117986
1010.0,0.46610089920340547
1009.0,0.45829597671571154
1008.0,0.4514877436589646
1007.0,0.44514756562794555
1006.0,0.43913730527253514
1005.0,0.4334446691169449
1004.0,0.4281747509591709
1003.0,0.4234283159347092
1002.0,0.4191890273390537
1001.0,0.41544263947432514
1000.0,0.41240127027875517
999.0,0.4097155962818382
998.0,0.407046428452134
997.0,0.40461401919085827
996.0,0.4023048140744876
995.0,0.40000782241590205
994.0,0.39750593119271893
993.0,0.3950183703925685
992.0,0.3928667956084333
991.0,0.39104630072413715
990.0,0.38955277855787873
989.0,0.38806437495987733
988.0,0.38658105496542694
987.0,0.3849973854754116
986.0,0.3833144791044878
985.0,0.3818472666214805
984.0,0.38080228420705264
983.0,0.38028073438827303
982.0,0.3797598101541686
981.0,0.3790315643557103
980.0,0.37820077599733226
979.0,0.3774751375964318
978.0,0.37664731846200805
977.0,0.37582107425197764
976.0,0.3753054687279187
975.0,0.3749963989851366
974.0,0.3748934245965323
973.0,0.37458464784559187
972.0,0.37427609047424415
971.0,0.3737623148530995
970.0,0.37304404856455253
969.0,0.37232696823338407
968.0,0.3716110699496884
967.0,0.3707943428976963
966.0,0.3698773571406879
965.0,0.36886074974318883
964.0,0.3678465164893674
963.0,0.36683464631609675
962.0,0.3655227298392685
961.0,0.36391348489692743
960.0,0.36241021416130015
959.0,0.36111157529492455
958.0,0.35991626862687975
957.0,0.3589226866746258
956.0,0.3576344191550267
955.0,0.3562513145404742
954.0,0.35487260074160876
953.0,0.3535962737769305
952.0,0.3527148549746333
951.0,0.35193287055106537
950.0,0.35095736591382365
949.0,0.34988683555642863
948.0,0.34901290561655496
947.0,0.3482375526198891
946.0,0.3471736974389954
945.0,0.346016092625931
944.0,0.3447654929657058
943.0,0.34371009880864034
942.0,0.34275287011628364
941.0,0.34179774661298534
940.0,0.3408447190593702
939.0,0.33979879861931805
938.0,0.3386606599939601
937.0,0.3377144842778699
936.0,0.33686468504224587
935.0,0.3360165453917334
934.0,0.33517005885690954
933.0,0.33432521900610657
932.0,0.3336692556980314
931.0,0.33292079453578327
930.0,0.33208031468263854
929.0,0.3311483519174814
928.0,0.33049716589565703
927.0,0.3296613588725579
926.0,0.32854944578750533
925.0,0.3270713095572775
924.0,0.3255981871547182
923.0,0.32403845035783063
922.0,0.3223930472795069
921.0,0.3205721033878812
920.0,0.3188492500675786
919.0,0.31731352175023186
918.0,0.3159629625134803
917.0,0.3147958655289853
916.0,0.3139002280040841
915.0,0.31300643373532155
914.0,0.31175820402228815
913.0,0.3103360349842297
912.0,0.30909544594503346
911.0,0.30829979170983846
910.0,0.30803489723263966
909.0,0.30829979170983846
908.0,0.3090069679001306
907.0,0.3099812192113047
906.0,0.3108688027655022
905.0,0.3118472444084337
904.0,0.3130957304318227
903.0,0.3147062186132159
902.0,0.3166827380781174
901.0,0.31921138849331765
900.0,0.32202824718926015
899.0,0.3246800166607078
898.0,0.32670256024036415
897.0,0.3279021420642825
896.0,0.3283644033978703
895.0,0.32873456705284165
894.0,0.3289197672611506
893.0,0.32929040477620286
892.0,0.329754146925876
891.0,0.3302183847914635
890.0,0.33031129194379183
889.0,0.3301254975101975
888.0,0.32956859063939437
887.0,0.32910504647979
886.0,0.32873456705284165
885.0,0.32901239698996587
884.0,0.32993978252686573
883.0,0.3314277308154421
882.0,0.3332013163338259
881.0,0.3352640314812949
880.0,0.3380927072339792
879.0,0.3420840631700448
878.0,0.3471736974389954
877.0,0.3533022687006655
876.0,0.3604139133265736
875.0,0.36804917374078294
874.0,0.37551163748655103
873.0,0.3825802532628235
872.0,0.38870163770357125
871.0,0.3932962586663258
870.0,0.3954499674287386
869.0,0.39523411529611274
868.0,0.39318885308103657
867.0,0.3899789753358547
866.0,0.3859468940127808
865.0,0.38153350780091966
864.0,0.3772680348352808
863.0,0.3732491463166068
862.0,0.369470428573176
861.0,0.3659259745125316
860.0,0.3629107264696696
859.0,0.3605135107314139
858.0,0.3585258894959005
857.0,0.356942316248547
856.0,0.35585694949008095
855.0,0.35487260074160876
854.0,0.3537923877933149
853.0,0.3525192268263242
852.0,0.3515424057174774
851.0,0.35095736591382365
850.0,0.35047043405218115
849.0,0.3499840475281615
848.0,0.3494011018273431
847.0,0.3489159107569886
846.0,0.3486250560869568
845.0,0.348721986001856
844.0,0.3494982051216331
843.0,0.3503731131594705
842.0,0.35095736591382365
841.0,0.35095736591382365
840.0,0.3508599358557811
839.0,0.35115229162710637
838.0,0.351835221425999
837.0,0.35212823469376753
836.0,0.3517375942519556
835.0,0.35076252765039273
834.0,0.3496924768680636
833.0,0.34901290561655496
832.0,0.34852814780095764
831.0,0.3478503945983471
830.0,0.34698054890038676
829.0,0.346016092625931
828.0,0.3451499094386059
827.0,0.3441895055047477
826.0,0.34303981725715094
825.0,0.3417023496918101
824.0,0.3405592181296824
823.0,0.3395139842150323
822.0,0.33837659077076987
821.0,0.3373365904259624
820.0,0.3364875295848444
819.0,0.3358282946380693
818.0,0.33517005885690954
817.0,0.33451281921718934
816.0,0.3337629041041956
815.0,0.3330142816703394
814.0,0.332640453816913
813.0,0.3327338806177258
812.0,0.3332013163338259
811.0,0.3332013163338259
810.0,0.33245366048848357
809.0,0.3312414582490424
808.0,0.3301254975101975
807.0,0.32947584221792003
806.0,0.329197715739056
805.0,0.32901239698996587
804.0,0.32882715728491685
803.0,0.328271911760442
802.0,0.3269790928711038
801.0,0.32513885926218844
800.0,0.32321496958079465
799.0,0.32184596198956283
798.0,0.32139058344107396
797.0,0.3223930472795069
796.0,0.3250470519514348
795.0,0.32901239698996587
794.0,0.3330142816703394
793.0,0.3364875295848444
792.0,0.33875539104066643
791.0,0.3397038397292702
790.0,0.33932421166147586
789.0,0.33790355458207655
788.0,0.3362048777805924
787.0,0.3341376997968448
786.0,0.331334584545508
785.0,0.32762502125392046
784.0,0.3236722661186797
783.0,0.32011805788713765
782.0,0.31740370853944677
781.0,0.3154239126115448
780.0,0.3137213219327988
779.0,0.3118472444084337
778.0,0.3097152974873705
777.0,0.30750559249691567
776.0,0.30530707366851595
775.0,0.30294510772742567
774.0,0.30033567979762665
773.0,0.2975694635544748
772.0,0.29507770877659834
771.0,0.2927705806727059
770.0,0.2904756441236589
769.0,0.2882771081727653
768.0,0.28617357561947543
767.0,0.28391314622516783
766.0,0.2811662816961378
765.0,0.2780245984140466
764.0,0.2749872746588431
763.0,0.27213355053251087
762.0,0.2692177243336109
761.0,0.2660808489876092
760.0,0.2626483041962855
759.0,0.25884840114821506
758.0,0.2546128786799913
757.0,0.25026368443093894
756.0,0.24618721643529784
755.0,0.24222450898807435
754.0,0.23829763245858726
753.0,0.23403357521428614
752.0,0.22922160383085233
751.0,0.22373478173189043
750.0,0.21752737583371373
749.0,0.21077194273266486
748.0,0.20356444118982564
747.0,0.19558794086228604
746.0,0.18688624599210146
745.0,0.1778319206319825
744.0,0.16909070045355667
743.0,0.16152872092807113
742.0,0.15639352807548912
741.0,0.15496400648658493
740.0,0.1582027011256446
739.0,0.16634300310712757
738.0,0.17907641211868253
737.0,0.19592875111433883
736.0,0.21602499658732888
735.0,0.23814730553361696
734.0,0.261615876487844
733.0,0.2863414837916436
732.0,0.3126494304419727
731.0,0.3406543642538229
730.0,0.3707943428976963
729.0,0.40461401919085827
728.0,0.44381815334708885
727.0,0.4882502886550171
726.0,0.5341711846425636
725.0,0.5756084455897224
724.0,0.6050232804454356
723.0,0.6181632000016566
722.0,0.6154673845057514
721.0,0.6018863082694974
720.0,0.584025588623434
719.0,0.5662301660751343
718.0,0.5499049241283975
717.0,0.5350635708782674
716.0,0.5215778122599195
715.0,0.5093393466438632
714.0,0.4981195062449413
713.0,0.4886514845097869
712.0,0.481617684454656
711.0,0.47625353318843544
710.0,0.4710832997223453
709.0,0.46546624399488445
708.0,0.46029676105217443
707.0,0.456677099353088
706.0,0.45456917053464885
705.0,0.4535807331648083
704.0,0.45247142354021785
703.0,0.4502612687351011
702.0,0.4464810598510305
701.0,0.44225225835853177
700.0,0.43830246734600653
699.0,0.4347426565797863
698.0,0.4309774139704363
697.0,0.42736070295718664
696.0,0.42469666657760086
695.0,0.4220488722702449
694.0,0.41816407594235194
693.0,0.41273815030746586
692.0,0.40737917867801765
691.0,0.4035128662634557
690.0,0.40099076017665647
689.0,0.39978969359067196
688.0,0.3994627056355311
687.0,0.39902710431325183
686.0,0.3968556273798176
685.0,0.3930814740517088
684.0,0.38965928854784315
683.0,0.38817052050162637
682.0,0.3879582553547305
681.0,0.38721614328026455
680.0,0.38541913300251385
679.0,0.383419469914114
678.0,0.3821612522829967
677.0,0.38153350780091966
676.0,0.38069792412439196
675.0,0.3791355247348789
674.0,0.3769575657536184
673.0,0.37427609047424415
672.0,0.3716110699496884
671.0,0.36845477216569056
670.0,0.3643152374527774
669.0,0.3605135107314139
668.0,0.35941919351034746
667.0,0.36061313098231595
666.0,0.3617104645857432
665.0,0.3607127740897633
664.0,0.3589226866746258
663.0,0.35773338109732644
662.0,0.35733766855796456
661.0,0.356942316248547
660.0,0.35585694949008095
659.0,0.354381261757305
658.0,0.3533022687006655
657.0,0.35291057128344505
656.0,0.35300846252287754
655.0,0.35242144578754475
654.0,0.35076252765039273
653.0,0.3482375526198891
652.0,0.3455346664798542
651.0,0.34303981725715094
650.0,0.34122567915564317
649.0,0.3409399277590617
648.0,0.34217954398430295
647.0,0.3434227086038859
646.0,0.3433269541151498
645.0,0.34246611244201386
644.0,0.34227504579489176
643.0,0.34265726318537393
642.0,0.3423705686110481
641.0,0.341035157335565
640.0,0.3400837999301498
639.0,0.34122567915564317
638.0,0.3452460667470698
637.0,0.3520305416370282
636.0,0.36081244006424606
635.0,0.36896230346325964
634.0,0.37304404856455253
633.0,0.3719177390093207
632.0,0.36703683183273883
631.0,0.3600157519584115
630.0,0.3525192268263242
629.0,0.34611244192902246
628.0,0.3420840631700448
627.0,0.33998877871066924
626.0,0.3386606599939601
625.0,0.3377144842778699
624.0,0.3374310330667398
623.0,0.3378090091409929
622.0,0.3377144842778699
621.0,0.33714776673520386
620.0,0.3369590251060257
619.0,0.3372421683184259
618.0,0.3373365904259624
617.0,0.3366760663717876
616.0,0.33545203775345334
615.0,0.3336692556980314
614.0,0.3305901327122174
613.0,0.3268868957617663
612.0,0.324221658325915
611.0,0.3234892897174464
610.0,0.32358076828164006
609.0,0.3233063903751334
608.0,0.3229408226078385
607.0,0.32312356802686293
606.0,0.3234892897174464
605.0,0.3230321857052414
604.0,0.32111758532926427
603.0,0.3178549236261683
602.0,0.31398970868471454
601.0,0.31104653736258214
600.0,0.3106911408763797
