cm-1,A
4000.0,0.00489154225525934
3999.0,0.00489154225525934
3998.0,0.00484762310854614
3997.0,0.004803708402820517
3996.0,0.004803708402820517
3995.0,0.00484762310854614
3994.0,0.004935465843858511
3993.0,0.005023326350308999
3992.0,0.005111204635089406
3991.0,0.005111204635089406
3990.0,0.005023326350308999
3989.0,0.004979393875242044
3988.0,0.004935465843858511
3987.0,0.004935465843858511
3986.0,0.004935465843858511
3985.0,0.004979393875242044
3984.0,0.004979393875242044
3983.0,0.004979393875242044
3982.0,0.004979393875242044
3981.0,0.004979393875242044
3980.0,0.004979393875242044
3979.0,0.005023326350308999
3978.0,0.005023326350308999
3977.0,0.005023326350308999
3976.0,0.004979393875242044
3975.0,0.004979393875242044
3974.0,0.004979393875242044
3973.0,0.004979393875242044
3972.0,0.005067263269958211
3971.0,0.005111204635089406
3970.0,0.005111204635089406
3969.0,0.005067263269958211
3968.0,0.005023326350308999
3967.0,0.005023326350308999
3966.0,0.005023326350308999
3965.0,0.005023326350308999
3964.0,0.005023326350308999
3963.0,0.005023326350308999
3962.0,0.005023326350308999
3961.0,0.005067263269958211
3960.0,0.005111204635089406
3959.0,0.005111204635089406
3958.0,0.005155150446602086
3957.0,0.005155150446602086
3956.0,0.005155150446602086
3955.0,0.005155150446602086
3954.0,0.005199100705396198
3953.0,0.005243055412371911
3952.0,0.005330978174470591
3951.0,0.00537494623139545
3950.0,0.00537494623139545
3949.0,0.00537494623139545
3948.0,0.00541891874010525
3947.0,0.00541891874010525
3946.0,0.005462895701502157
3945.0,0.005462895701502157
3944.0,0.00541891874010525
3943.0,0.005330978174470591
3942.0,0.0052870145684298375
3941.0,0.005243055412371911
3940.0,0.005199100705396198
3939.0,0.005111204635089406
3938.0,0.004979393875242044
3937.0,0.004935465843858511
3936.0,0.005023326350308999
3935.0,0.005111204635089406
3934.0,0.005243055412371911
3933.0,0.0052870145684298375
3932.0,0.005330978174470591
3931.0,0.00537494623139545
3930.0,0.00537494623139545
3929.0,0.00537494623139545
3928.0,0.00541891874010525
3927.0,0.005462895701502157
3926.0,0.00541891874010525
3925.0,0.00537494623139545
3924.0,0.00537494623139545
3923.0,0.00541891874010525
3922.0,0.00541891874010525
3921.0,0.00537494623139545
3920.0,0.005330978174470591
3919.0,0.005330978174470591
3918.0,0.005330978174470591
3917.0,0.0052870145684298375
3916.0,0.005243055412371911
3915.0,0.005199100705396198
3914.0,0.005111204635089406
3913.0,0.005023326350308999
3912.0,0.004935465843858511
3911.0,0.00484762310854614
3910.0,0.004935465843858511
3909.0,0.005067263269958211
3908.0,0.005243055412371911
3907.0,0.00541891874010525
3906.0,0.005506877116487674
3905.0,0.005550862985963967
3904.0,0.005638848091999105
3903.0,0.00590291041179003
3902.0,0.006167133386013823
3901.0,0.00625524344553785
3900.0,0.006079041198713275
3899.0,0.005858888873877532
3898.0,0.005638848091999105
3897.0,0.005506877116487674
3896.0,0.00541891874010525
3895.0,0.00537494623139545
3894.0,0.00537494623139545
3893.0,0.0052870145684298375
3892.0,0.005111204635089406
3891.0,0.004979393875242044
3890.0,0.005023326350308999
3889.0,0.005243055412371911
3888.0,0.005462895701502157
3887.0,0.00541891874010525
3886.0,0.005111204635089406
3885.0,0.005023326350308999
3884.0,0.0052870145684298375
3883.0,0.005638848091999105
3882.0,0.005638848091999105
3881.0,0.00537494623139545
3880.0,0.005155150446602086
3879.0,0.005155150446602086
3878.0,0.0052870145684298375
3877.0,0.00537494623139545
3876.0,0.0052870145684298375
3875.0,0.005067263269958211
3874.0,0.005023326350308999
3873.0,0.0052870145684298375
3872.0,0.005550862985963967
3871.0,0.005506877116487674
3870.0,0.0052870145684298375
3869.0,0.005330978174470591
3868.0,0.005638848091999105
3867.0,0.005814871797682919
3866.0,0.005638848091999105
3865.0,0.005243055412371911
3864.0,0.005067263269958211
3863.0,0.005199100705396198
3862.0,0.005330978174470591
3861.0,0.005243055412371911
3860.0,0.004979393875242044
3859.0,0.00484762310854614
3858.0,0.00489154225525934
3857.0,0.005199100705396198
3856.0,0.005638848091999105
3855.0,0.005682847330363394
3854.0,0.0052870145684298375
3853.0,0.00537494623139545
3852.0,0.00590291041179003
3851.0,0.006079041198713275
3850.0,0.005814871797682919
3849.0,0.00537494623139545
3848.0,0.005067263269958211
3847.0,0.00484762310854614
3846.0,0.004715892310740433
3845.0,0.004628093971837721
3844.0,0.00458420145758498
3843.0,0.004671990922590297
3842.0,0.004979393875242044
3841.0,0.005330978174470591
3840.0,0.005506877116487674
3839.0,0.005462895701502157
3838.0,0.00537494623139545
3837.0,0.00537494623139545
3836.0,0.005330978174470591
3835.0,0.005330978174470591
3834.0,0.005243055412371911
3833.0,0.005111204635089406
3832.0,0.004935465843858511
3831.0,0.00484762310854614
3830.0,0.00489154225525934
3829.0,0.004935465843858511
3828.0,0.00489154225525934
3827.0,0.004715892310740433
3826.0,0.00458420145758498
3825.0,0.004671990922590297
3824.0,0.004979393875242044
3823.0,0.005111204635089406
3822.0,0.004803708402820517
3821.0,0.00458420145758498
3820.0,0.00484762310854614
3819.0,0.005330978174470591
3818.0,0.005506877116487674
3817.0,0.005243055412371911
3816.0,0.00489154225525934
3815.0,0.00484762310854614
3814.0,0.005023326350308999
3813.0,0.005023326350308999
3812.0,0.004803708402820517
3811.0,0.00458420145758498
3810.0,0.00458420145758498
3809.0,0.004628093971837721
3808.0,0.004540313378935901
3807.0,0.004320939488377862
3806.0,0.0043648054024501
3805.0,0.004628093971837721
3804.0,0.004935465843858511
3803.0,0.00489154225525934
3802.0,0.004540313378935901
3801.0,0.004540313378935901
3800.0,0.004979393875242044
3799.0,0.00537494623139545
3798.0,0.00537494623139545
3797.0,0.005067263269958211
3796.0,0.004803708402820517
3795.0,0.004759798137184523
3794.0,0.00484762310854614
3793.0,0.004803708402820517
3792.0,0.004671990922590297
3791.0,0.00458420145758498
3790.0,0.004540313378935901
3789.0,0.0044964297349936455
3788.0,0.004452550524862486
3787.0,0.004408675747646695
3786.0,0.004408675747646695
3785.0,0.004408675747646695
3784.0,0.004452550524862486
3783.0,0.004540313378935901
3782.0,0.004628093971837721
3781.0,0.00458420145758498
3780.0,0.004408675747646695
3779.0,0.004320939488377862
3778.0,0.0043648054024501
3777.0,0.004408675747646695
3776.0,0.0043648054024501
3775.0,0.004189368323957332
3774.0,0.004145520125434121
3773.0,0.004277078004534696
3772.0,0.004452550524862486
3771.0,0.0044964297349936455
3770.0,0.0044964297349936455
3769.0,0.004628093971837721
3768.0,0.00484762310854614
3767.0,0.004935465843858511
3766.0,0.004759798137184523
3765.0,0.004540313378935901
3764.0,0.0044964297349936455
3763.0,0.00458420145758498
3762.0,0.004671990922590297
3761.0,0.004671990922590297
3760.0,0.004628093971837721
3759.0,0.004671990922590297
3758.0,0.004759798137184523
3757.0,0.004803708402820517
3756.0,0.00484762310854614
3755.0,0.004935465843858511
3754.0,0.005067263269958211
3753.0,0.005111204635089406
3752.0,0.005067263269958211
3751.0,0.005111204635089406
3750.0,0.005330978174470591
3749.0,0.005462895701502157
3748.0,0.005638848091999105
3747.0,0.005990966876386672
3746.0,0.006167133386013823
3745.0,0.005814871797682919
3744.0,0.005506877116487674
3743.0,0.005506877116487674
3742.0,0.005506877116487674
3741.0,0.005330978174470591
3740.0,0.005199100705396198
3739.0,0.005330978174470591
3738.0,0.005682847330363394
3737.0,0.006035001804881146
3736.0,0.006167133386013823
3735.0,0.006299305179649828
3734.0,0.00621118618129457
3733.0,0.005858888873877532
3732.0,0.00537494623139545
3731.0,0.005111204635089406
3730.0,0.005155150446602086
3729.0,0.00541891874010525
3728.0,0.005550862985963967
3727.0,0.005594853310833647
3726.0,0.005594853310833647
3725.0,0.005594853310833647
3724.0,0.005506877116487674
3723.0,0.0052870145684298375
3722.0,0.005111204635089406
3721.0,0.004979393875242044
3720.0,0.00484762310854614
3719.0,0.004671990922590297
3718.0,0.004408675747646695
3717.0,0.004233220950025984
3716.0,0.004277078004534696
3715.0,0.004408675747646695
3714.0,0.004540313378935901
3713.0,0.004540313378935901
3712.0,0.004628093971837721
3711.0,0.004979393875242044
3710.0,0.00537494623139545
3709.0,0.00541891874010525
3708.0,0.005111204635089406
3707.0,0.004759798137184523
3706.0,0.004452550524862486
3705.0,0.0043648054024501
3704.0,0.004320939488377862
3703.0,0.004233220950025984
3702.0,0.004101676353562844
3701.0,0.0040578370074493275
3700.0,0.0040578370074493275
3699.0,0.004101676353562844
3698.0,0.00401400208620073
3697.0,0.0038825238627120395
3696.0,0.003794893821675638
3695.0,0.0038387066319929275
3694.0,0.00401400208620073
3693.0,0.004233220950025984
3692.0,0.004408675747646695
3691.0,0.0044964297349936455
3690.0,0.004452550524862486
3689.0,0.004320939488377862
3688.0,0.004277078004534696
3687.0,0.004233220950025984
3686.0,0.004189368323957332
3685.0,0.004101676353562844
3684.0,0.003926345514724705
3683.0,0.0038387066319929275
3682.0,0.0038387066319929275
3681.0,0.003926345514724705
3680.0,0.0040578370074493275
3679.0,0.004320939488377862
3678.0,0.004759798137184523
3677.0,0.00484762310854614
3676.0,0.004540313378935901
3675.0,0.004408675747646695
3674.0,0.004671990922590297
3673.0,0.005023326350308999
3672.0,0.005243055412371911
3671.0,0.005023326350308999
3670.0,0.004671990922590297
3669.0,0.004671990922590297
3668.0,0.004715892310740433
3667.0,0.00458420145758498
3666.0,0.004320939488377862
3665.0,0.004101676353562844
3664.0,0.003970171588923321
3663.0,0.003970171588923321
3662.0,0.003970171588923321
3661.0,0.00401400208620073
3660.0,0.004145520125434121
3659.0,0.004320939488377862
3658.0,0.0044964297349936455
3657.0,0.0044964297349936455
3656.0,0.004540313378935901
3655.0,0.004715892310740433
3654.0,0.005067263269958211
3653.0,0.005506877116487674
3652.0,0.005858888873877532
3651.0,0.005990966876386672
3650.0,0.006167133386013823
3649.0,0.006696062080525422
3648.0,0.007137328610972382
3647.0,0.007093181776687496
3646.0,0.006784279525863024
3645.0,0.006431517210272464
3644.0,0.00621118618129457
3643.0,0.006079041198713275
3642.0,0.006035001804881146
3641.0,0.00612308505878878
3640.0,0.00621118618129457
3639.0,0.006299305179649828
3638.0,0.006343371384537999
3637.0,0.006431517210272464
3636.0,0.00656376950238835
3635.0,0.006696062080525422
3634.0,0.006828394969235152
3633.0,0.007137328610972382
3632.0,0.00762324020119709
3631.0,0.008021209005416363
3630.0,0.008021209005416363
3629.0,0.007888512213050314
3628.0,0.008286724286910463
3627.0,0.008685301823389224
3626.0,0.008685301823389224
3625.0,0.008419542825660153
3624.0,0.008198201155356077
3623.0,0.008153946355103248
3622.0,0.008242460465651913
3621.0,0.008330992620051436
3620.0,0.008330992620051436
3619.0,0.008552401996197112
3618.0,0.008951223547323472
3617.0,0.009439170005980158
3616.0,0.00974996707218323
3615.0,0.009838807101520963
3614.0,0.009794384815193347
3613.0,0.009794384815193347
3612.0,0.009883233932095559
3611.0,0.010060986715464404
3610.0,0.010105436281226954
3609.0,0.010149890396819572
3608.0,0.010283280051895272
3607.0,0.010505687227290839
3606.0,0.010594681998483901
3605.0,0.010550182333308289
3604.0,0.010416710688994968
3603.0,0.010327752376126709
3602.0,0.010327752376126709
3601.0,0.01046119667949763
3600.0,0.010639186223752484
3599.0,0.01086177578421088
3598.0,0.011039929609661936
3597.0,0.011262724711199823
3596.0,0.011485634166333858
3595.0,0.011753276624621556
3594.0,0.012021084124518078
3593.0,0.01215504982870197
3592.0,0.012244383261476699
3591.0,0.012244383261476699
3590.0,0.012289056869694281
3589.0,0.012289056869694281
3588.0,0.012378417874516323
3587.0,0.012736045877764557
3586.0,0.013273040668781544
3585.0,0.013586594534531482
3584.0,0.013541787262693505
3583.0,0.013407393177789162
3582.0,0.013273040668781544
3581.0,0.01322826573375524
3580.0,0.013273040668781544
3579.0,0.013362604389846044
3578.0,0.013541787262693505
3577.0,0.013676222949234651
3576.0,0.013900374944870508
3575.0,0.014079779876432497
3574.0,0.014259258949925524
3573.0,0.014393916947563534
3572.0,0.01452861671041239
3571.0,0.014753209197138295
3570.0,0.015067833932588037
3569.0,0.015337693809893471
3568.0,0.015517693597737248
3567.0,0.015832872853011715
3566.0,0.016148281008528276
3565.0,0.01632861713980338
3564.0,0.01628352608625061
3563.0,0.016193358021584725
3562.0,0.016148281008528276
3561.0,0.016193358021584725
3560.0,0.01628352608625061
3559.0,0.01632861713980338
3558.0,0.01632861713980338
3557.0,0.01632861713980338
3556.0,0.016373712875465518
3555.0,0.016509028184833463
3554.0,0.016689514205884493
3553.0,0.016915227262211507
3552.0,0.017231422748988034
3551.0,0.01759307113620534
3550.0,0.017864505196230507
3549.0,0.018045555530026514
3548.0,0.018181392829336396
3547.0,0.018362575344230914
3546.0,0.01858915983411169
3545.0,0.018861217359339655
3544.0,0.01899731005860028
3543.0,0.019042683770379876
3542.0,0.01899731005860028
3541.0,0.01899731005860028
3540.0,0.018951941086827073
3539.0,0.018951941086827073
3538.0,0.01899731005860028
3537.0,0.0190880622231564
3536.0,0.019315025636685412
3535.0,0.01958753839310856
3534.0,0.019860222254245663
3533.0,0.019996628416253603
3532.0,0.020087589665283012
3531.0,0.02026956933771462
3530.0,0.02045162529590483
3529.0,0.02067930261797568
3528.0,0.020952673052035298
3527.0,0.02122621566987748
3526.0,0.021545566634771474
3525.0,0.021773818325474092
3524.0,0.02200219004126036
3523.0,0.022139270735302752
3522.0,0.022230681908425698
3521.0,0.02227639471115217
3520.0,0.02227639471115217
3519.0,0.02227639471115217
3518.0,0.022367834754000393
3517.0,0.02255077261765881
3516.0,0.02277955336461468
3515.0,0.02296266477531872
3514.0,0.023100049017062307
3513.0,0.023283295636617574
3512.0,0.023466619608062178
3511.0,0.023695883447997224
3510.0,0.023925268380126097
3509.0,0.024246610963712723
3508.0,0.024522236834125355
3507.0,0.024706084643793647
3506.0,0.02484402159331056
3505.0,0.024936003904763915
3504.0,0.02512002699306959
3503.0,0.02544225514642018
3502.0,0.025764722556973707
3501.0,0.025995203102585407
3500.0,0.026041313893296225
3499.0,0.026041313893296225
3498.0,0.02613355016462182
3497.0,0.026318081496016443
3496.0,0.02654885597506529
3495.0,0.02682594731702781
3494.0,0.027056991894431892
3493.0,0.02724191609646076
3492.0,0.027426919073445077
3491.0,0.027612000892527133
3490.0,0.027843464140506313
3489.0,0.028028723600243666
3488.0,0.02826040911222183
3487.0,0.02849221828874393
3486.0,0.02872415126189476
3485.0,0.02890978686288448
3484.0,0.029095501846216454
3483.0,0.029281296279810798
3482.0,0.029560137048236124
3481.0,0.029885677714903025
3480.0,0.030211462585061133
3479.0,0.030351159519274695
3478.0,0.030397735151460825
3477.0,0.030397735151460825
3476.0,0.030397735151460825
3475.0,0.03058408764601861
3474.0,0.030863766403287585
3473.0,0.031143625385307683
3472.0,0.03142366482450232
3471.0,0.03161045815293173
3470.0,0.03175060589208267
3469.0,0.03189079887180224
3468.0,0.032031037121307726
3467.0,0.032218091924200776
3466.0,0.03240522732811035
3465.0,0.03263926003405038
3464.0,0.03282657704446046
3463.0,0.033060836978886954
3462.0,0.033295223342125535
3461.0,0.03357665405630694
3460.0,0.0338113190438627
3459.0,0.033952178923546183
3458.0,0.03399914237121604
3457.0,0.03399914237121604
3456.0,0.03409308450480819
3455.0,0.03423403581731388
3454.0,0.03442204208947208
3453.0,0.03461012978487776
3452.0,0.03484535401307465
3451.0,0.03503362516890207
3450.0,0.03522197797762394
3449.0,0.03531618502395939
3448.0,0.03550466044490741
3447.0,0.03578752703018084
3446.0,0.03616496929785207
3445.0,0.03649550058570927
3444.0,0.03663723389626394
3443.0,0.03668448861388862
3442.0,0.03682628362474838
3441.0,0.0369681249461018
3440.0,0.0371100126082089
3439.0,0.0371573187987575
3438.0,0.03720463014276687
3437.0,0.037299268295658994
3436.0,0.03744126420403626
3435.0,0.037583306554248797
3434.0,0.03772539537668518
3433.0,0.03791491948264003
3432.0,0.03810452633214956
3431.0,0.03829421599749461
3430.0,0.038436537637930535
3429.0,0.038531444649213764
3428.0,0.03862637240519895
3427.0,0.03876880295533702
3426.0,0.038911280232103884
3425.0,0.03905380426616856
3424.0,0.03914884628031379
3423.0,0.03924390909822728
3422.0,0.03938654235209116
3421.0,0.03962436858984186
3420.0,0.03986232513620536
3419.0,0.04010041213405646
3418.0,0.040243327009005014
3417.0,0.0402909757535701
3416.0,0.0402909757535701
3415.0,0.04043395336207234
3414.0,0.04057697805689475
3413.0,0.04076775094900409
3412.0,0.040958607678906356
3411.0,0.041101805289228244
3410.0,0.041197296600497646
3409.0,0.041340572947066834
3408.0,0.041483896576958834
3407.0,0.041579471947481794
3406.0,0.041627267521392675
3405.0,0.04167506835594681
3404.0,0.04181850243505214
3403.0,0.04196198390166317
3402.0,0.042201225070002124
3401.0,0.042392712939904875
3400.0,0.042584285277331047
3399.0,0.04268010314465909
3398.0,0.042775942156833
3397.0,0.04287180232318688
3396.0,0.04291974034210022
3395.0,0.04301563225723992
3394.0,0.04315950984076644
3393.0,0.04339941178682327
3392.0,0.04368746915880539
3391.0,0.04387961360698034
3390.0,0.0439276630048171
3389.0,0.04383156952463674
3388.0,0.04368746915880539
3387.0,0.04363944632667782
3386.0,0.04363944632667782
3385.0,0.0437835307566099
3384.0,0.04397571771932274
3383.0,0.044167989767578186
3382.0,0.044312249686494276
3381.0,0.04440844959427559
3380.0,0.04450467081587295
3379.0,0.04460091336073302
3378.0,0.04474531717982
3377.0,0.04488976902944808
3376.0,0.04503426894157925
3375.0,0.0451788169482068
3374.0,0.04527520902093718
3373.0,0.045323413081356456
3372.0,0.04537162249272897
3371.0,0.0454680573730859
3370.0,0.045660991397539874
3369.0,0.04585401117045196
3368.0,0.046047116768076934
3367.0,0.046192002334692894
3366.0,0.04628861957244457
3365.0,0.04638525830935958
3364.0,0.04643358574299339
3363.0,0.046481918555007384
3362.0,0.04657860031896477
3361.0,0.04667530361081473
3360.0,0.04677202844014605
3359.0,0.04686877481655505
3358.0,0.0469171560879138
3357.0,0.04701393480294458
3356.0,0.04715914332429838
3355.0,0.047352830241056854
3354.0,0.04744970610179822
3353.0,0.04749815213697639
3352.0,0.04754660357696672
3351.0,0.047595060422975566
3350.0,0.047691990337874746
3349.0,0.0478374257855374
3348.0,0.047934409814949674
3347.0,0.047982909952573705
3346.0,0.04803141550708934
3345.0,0.048128442871635535
3344.0,0.04827402457540786
3343.0,0.048468209457651845
3342.0,0.0486139051197072
3341.0,0.04871106272232795
3340.0,0.04875964967565971
3339.0,0.048808242065293994
3338.0,0.04885683989244738
3337.0,0.04900266601119507
3336.0,0.049148541111453614
3335.0,0.04934311749548925
3334.0,0.04944043838819989
3333.0,0.04953778109440221
3332.0,0.04958646063061889
3331.0,0.04968383607539972
3330.0,0.04973253198641148
3329.0,0.04978123335813667
3328.0,0.049927370249842395
3327.0,0.050073556332087765
3326.0,0.05026854768429301
3325.0,0.05036607620073763
3324.0,0.050463626623857394
3323.0,0.05056119896349576
3322.0,0.050707598587974356
3321.0,0.05095170768433621
3320.0,0.05114709380028648
3319.0,0.05134256785867963
3318.0,0.05139145012356372
3317.0,0.05144033789103841
3316.0,0.05144033789103841
3315.0,0.05153812993871654
3314.0,0.051684859310652254
3313.0,0.05197846685889629
3312.0,0.05227227303668425
3311.0,0.05256627811294923
3310.0,0.052762392129333646
3309.0,0.05295859474477971
3308.0,0.0531548860393769
3307.0,0.053351266093323746
3306.0,0.053449489430144714
3305.0,0.0534986094304124
3304.0,0.05354773498692689
3303.0,0.05354773498692689
3302.0,0.053646002773725554
3301.0,0.05374429280060267
3300.0,0.053842605077627725
3299.0,0.05399011523423525
3298.0,0.054186873412661596
3297.0,0.05438372077326825
3296.0,0.05462990550969615
3295.0,0.05482695382609992
3294.0,0.0549747987575373
3293.0,0.055122694036304765
3292.0,0.055270639696704205
3291.0,0.05546797900801881
3290.0,0.05561604235915585
3289.0,0.05566540802921782
3288.0,0.05566540802921782
3287.0,0.05566540802921782
3286.0,0.05566540802921782
3285.0,0.05571477931124735
3284.0,0.05581353871631256
3283.0,0.055961719945581745
3282.0,0.05610995175152733
3281.0,0.05630767289398331
3280.0,0.056456022846545606
3279.0,0.05655495097496965
3278.0,0.05665390164340933
3277.0,0.05665390164340933
3276.0,0.05670338543334519
3275.0,0.0567528748621382
3274.0,0.05685187064143715
3273.0,0.05690137699451481
3272.0,0.057049929922901255
3271.0,0.0571489934456626
3270.0,0.05724807957018618
3269.0,0.05729763111133224
3268.0,0.05734718830678798
3267.0,0.05734718830678798
3266.0,0.05744631966579017
3265.0,0.05749589383191922
3264.0,0.05749589383191922
3263.0,0.05754547365752294
3262.0,0.05754547365752294
3261.0,0.05754547365752294
3260.0,0.05749589383191922
3259.0,0.05744631966579017
3258.0,0.05744631966579017
3257.0,0.05744631966579017
3256.0,0.05749589383191922
3255.0,0.05749589383191922
3254.0,0.05749589383191922
3253.0,0.05744631966579017
3252.0,0.05734718830678798
3251.0,0.05724807957018618
3250.0,0.05709945885970602
3249.0,0.056950888991593285
3248.0,0.05680236993107379
3247.0,0.05660442349104544
3246.0,0.056406567231630955
3245.0,0.05620880107069848
3244.0,0.05606053552778367
3243.0,0.05601112492622806
3242.0,0.055961719945581745
3241.0,0.055912320584565744
3240.0,0.05581353871631256
3239.0,0.055764156206519866
3238.0,0.05566540802921782
3237.0,0.055566682299785564
3236.0,0.05551732784983132
3235.0,0.05541863577307371
3234.0,0.05536929814372171
3233.0,0.055270639696704205
3232.0,0.055172003656783764
3231.0,0.05507339001378431
3230.0,0.05502409158795207
3229.0,0.0549255115212699
3228.0,0.054876229877880656
3227.0,0.05482695382609992
3226.0,0.054728418492290265
3225.0,0.05462990550969615
3224.0,0.05453141486818014
3223.0,0.05443294655761144
3222.0,0.05443294655761144
3221.0,0.05443294655761144
3220.0,0.05443294655761144
3219.0,0.05438372077326825
3218.0,0.05428528594013993
3217.0,0.05423607688882637
3216.0,0.05413767551038262
3215.0,0.05403929642243144
3214.0,0.05394093961487645
3213.0,0.05389176956309405
3212.0,0.05379344615721715
3211.0,0.05369514500652506
3210.0,0.053596866100945384
3209.0,0.05354773498692689
3208.0,0.0534986094304124
3207.0,0.053449489430144714
3206.0,0.05330216275425803
3205.0,0.0531548860393769
3204.0,0.05295859474477971
3203.0,0.05286048235717078
3202.0,0.05271335532220167
3201.0,0.05261529831525902
3200.0,0.052468254304406825
3199.0,0.05237025261564554
3198.0,0.05227227303668425
3197.0,0.05222329153526162
3196.0,0.05222329153526162
3195.0,0.05222329153526162
3194.0,0.05217431555754937
3193.0,0.05207638016827354
3192.0,0.05197846685889629
3191.0,0.05188057561946402
3190.0,0.05178270644002936
3189.0,0.051684859310652254
3188.0,0.0515870342213991
3187.0,0.05144033789103841
3186.0,0.051244819831730126
3185.0,0.051098239029786274
3184.0,0.05095170768433621
3183.0,0.05085404758005607
3182.0,0.050707598587974356
3181.0,0.05056119896349576
3180.0,0.050463626623857394
3179.0,0.050414848673348
3178.0,0.05036607620073763
3177.0,0.05026854768429301
3176.0,0.050171041064686284
3175.0,0.04997609347667353
3174.0,0.04973253198641148
3173.0,0.04958646063061889
3172.0,0.04944043838819989
3171.0,0.04939177521576932
3170.0,0.049294465226138895
3169.0,0.04919717703534143
3168.0,0.04905128560059957
3167.0,0.048954051864180226
3166.0,0.04875964967565971
3165.0,0.0486139051197072
3164.0,0.048468209457651845
3163.0,0.04832256265669943
3162.0,0.048128442871635535
3161.0,0.047982909952573705
3160.0,0.0478374257855374
3159.0,0.04774046340917959
3158.0,0.047643522676209304
3157.0,0.047595060422975566
3156.0,0.04749815213697639
3155.0,0.04749815213697639
3154.0,0.04744970610179822
3153.0,0.04740126547022694
3152.0,0.04730440041308315
3151.0,0.04715914332429838
3150.0,0.0469171560879138
3149.0,0.04667530361081473
3148.0,0.046481918555007384
3147.0,0.04633693625290869
3146.0,0.04624030826677128
3145.0,0.046143701775014145
3144.0,0.046047116768076934
3143.0,0.04595055323640551
3142.0,0.04580574818413763
3141.0,0.04570923829887308
3140.0,0.045612749855485024
3139.0,0.045564513671517703
3138.0,0.0454680573730859
3137.0,0.045323413081356456
3136.0,0.04513062893352182
3135.0,0.04503426894157925
3134.0,0.04503426894157925
3133.0,0.04508244626504121
3132.0,0.04513062893352182
3131.0,0.04513062893352182
3130.0,0.044986096961949995
3129.0,0.044793462458058375
3128.0,0.04464904263234004
3127.0,0.04450467081587295
3126.0,0.04450467081587295
3125.0,0.04450467081587295
3124.0,0.04455278942230456
3123.0,0.04460091336073302
3122.0,0.04464904263234004
3121.0,0.04464904263234004
3120.0,0.04460091336073302
3119.0,0.04450467081587295
3118.0,0.044360346976747955
3117.0,0.04426415772233416
3116.0,0.04421607108308856
3115.0,0.04426415772233416
3114.0,0.044360346976747955
3113.0,0.04440844959427559
3112.0,0.044360346976747955
3111.0,0.044312249686494276
3110.0,0.04426415772233416
3109.0,0.04421607108308856
3108.0,0.04421607108308856
3107.0,0.044167989767578186
3106.0,0.04411991377462465
3105.0,0.044071843103049346
3104.0,0.04402377775167454
3103.0,0.04402377775167454
3102.0,0.04402377775167454
3101.0,0.04402377775167454
3100.0,0.044071843103049346
3099.0,0.044071843103049346
3098.0,0.04402377775167454
3097.0,0.04397571771932274
3096.0,0.04402377775167454
3095.0,0.044071843103049346
3094.0,0.04411991377462465
3093.0,0.04411991377462465
3092.0,0.04402377775167454
3091.0,0.04397571771932274
3090.0,0.0439276630048171
3089.0,0.0439276630048171
3088.0,0.0439276630048171
3087.0,0.0439276630048171
3086.0,0.0439276630048171
3085.0,0.0439276630048171
3084.0,0.0439276630048171
3083.0,0.0439276630048171
3082.0,0.0439276630048171
3081.0,0.0439276630048171
3080.0,0.0439276630048171
3079.0,0.0439276630048171
3078.0,0.04387961360698034
3077.0,0.0437835307566099
3076.0,0.04368746915880539
3075.0,0.04359142880416744
3074.0,0.0435434165901003
3073.0,0.04344740808260106
3072.0,0.04339941178682327
3071.0,0.0433514207947967
3070.0,0.04325545471730896
3069.0,0.04320747962950522
3068.0,0.04315950984076644
3067.0,0.04315950984076644
3066.0,0.04320747962950522
3065.0,0.04320747962950522
3064.0,0.04320747962950522
3063.0,0.04320747962950522
3062.0,0.0431115453499229
3061.0,0.042967683653061695
3060.0,0.04282386959515394
3059.0,0.04268010314465909
3058.0,0.04263219156847242
3057.0,0.042584285277331047
3056.0,0.042584285277331047
3055.0,0.04253638427006878
3054.0,0.04248848854552012
3053.0,0.042392712939904875
3052.0,0.04229695845116854
3051.0,0.042201225070002124
3050.0,0.04210551278710151
3049.0,0.04200982159316968
3048.0,0.04186632432376469
3047.0,0.04172287445230238
3046.0,0.041627267521392675
3045.0,0.04153168163305643
3044.0,0.041483896576958834
3043.0,0.041436116778032606
3042.0,0.041340572947066834
3041.0,0.041197296600497646
3040.0,0.04105406750606355
3039.0,0.04091088563260792
3038.0,0.04076775094900409
3037.0,0.04062466342415694
3036.0,0.040481623027001756
3035.0,0.04038628892895613
3034.0,0.0402909757535701
3033.0,0.04019568349166214
3032.0,0.0400527842915015
3031.0,0.03986232513620536
3030.0,0.039719535563357944
3029.0,0.03962436858984186
3028.0,0.03948165721929198
3027.0,0.03938654235209116
3026.0,0.039338992729018196
3025.0,0.03924390909822728
3024.0,0.03914884628031379
3023.0,0.03905380426616856
3022.0,0.038911280232103884
3021.0,0.038721320914956836
3020.0,0.038531444649213764
3019.0,0.038341651362284734
3018.0,0.038199360808321536
3017.0,0.038057116858612794
3016.0,0.03791491948264003
3015.0,0.03777276864991497
3014.0,0.03772539537668518
3013.0,0.03767802727041558
3012.0,0.037583306554248797
3011.0,0.037488606492403154
3010.0,0.037346595106788616
3009.0,0.0371573187987575
3008.0,0.03701541568300293
3007.0,0.03682628362474838
3006.0,0.036731748473764814
3005.0,0.03663723389626394
3004.0,0.036542739883292485
3003.0,0.03644826642590382
3002.0,0.036401037402758574
3001.0,0.03625938114211591
3000.0,0.03616496929785207
2999.0,0.03602339000339416
2998.0,0.03592902944204468
2997.0,0.03578752703018084
2996.0,0.035693217696063595
2995.0,0.035646070707806565
2994.0,0.035646070707806565
2993.0,0.035693217696063595
2992.0,0.035740369803151095
2991.0,0.03578752703018084
2990.0,0.035740369803151095
2989.0,0.035740369803151095
2988.0,0.035740369803151095
2987.0,0.035740369803151095
2986.0,0.03578752703018084
2985.0,0.03583468937826462
2984.0,0.03588185684851508
2983.0,0.03602339000339416
2982.0,0.036117771071222604
2981.0,0.03625938114211591
2980.0,0.03644826642590382
2979.0,0.03658998431977123
2978.0,0.036731748473764814
2977.0,0.03682628362474838
2976.0,0.0369681249461018
2975.0,0.0371573187987575
2974.0,0.037299268295658994
2973.0,0.037488606492403154
2972.0,0.03772539537668518
2971.0,0.03791491948264003
2970.0,0.038151940981675736
2969.0,0.038436537637930535
2968.0,0.038673844065289176
2967.0,0.038958783046687984
2966.0,0.03919637508823026
2965.0,0.03943409718180235
2964.0,0.03962436858984186
2963.0,0.039767126871487646
2962.0,0.039909932095080425
2961.0,0.0400527842915015
2960.0,0.04014804520039483
2959.0,0.04019568349166214
2958.0,0.04019568349166214
2957.0,0.04019568349166214
2956.0,0.040243327009005014
2955.0,0.040243327009005014
2954.0,0.04014804520039483
2953.0,0.0400527842915015
2952.0,0.03995754427315856
2951.0,0.039909932095080425
2950.0,0.039909932095080425
2949.0,0.03995754427315856
2948.0,0.0400527842915015
2947.0,0.04014804520039483
2946.0,0.04019568349166214
2945.0,0.040243327009005014
2944.0,0.0402909757535701
2943.0,0.04038628892895613
2942.0,0.040529297924893015
2941.0,0.04072004986906119
2940.0,0.04091088563260792
2939.0,0.04105406750606355
2938.0,0.04124505013091051
2937.0,0.041483896576958834
2936.0,0.04172287445230238
2935.0,0.04196198390166317
2934.0,0.042201225070002124
2933.0,0.04244059810252043
2932.0,0.04268010314465909
2931.0,0.04287180232318688
2930.0,0.0431115453499229
2929.0,0.04325545471730896
2928.0,0.0433514207947967
2927.0,0.04344740808260106
2926.0,0.04344740808260106
2925.0,0.04344740808260106
2924.0,0.04339941178682327
2923.0,0.04325545471730896
2922.0,0.043063586155803746
2921.0,0.04287180232318688
2920.0,0.04268010314465909
2919.0,0.04248848854552012
2918.0,0.04229695845116854
2917.0,0.042057664554595586
2916.0,0.0417706858116178
2915.0,0.041436116778032606
2914.0,0.041101805289228244
2913.0,0.04081545726880842
2912.0,0.040529297924893015
2911.0,0.040243327009005014
2910.0,0.03995754427315856
2909.0,0.03967194946985697
2908.0,0.03943409718180235
2907.0,0.03919637508823026
2906.0,0.039006291057664066
2905.0,0.03886378261277468
2904.0,0.038721320914956836
2903.0,0.038531444649213764
2902.0,0.038341651362284734
2901.0,0.038151940981675736
2900.0,0.03800971255993524
2899.0,0.03796231343498735
2898.0,0.03796231343498735
2897.0,0.03800971255993524
2896.0,0.03796231343498735
2895.0,0.03791491948264003
2894.0,0.03786753070176463
2893.0,0.03777276864991497
2892.0,0.03767802727041558
2891.0,0.037583306554248797
2890.0,0.03744126420403626
2889.0,0.037251946641359446
2888.0,0.0371100126082089
2887.0,0.03701541568300293
2886.0,0.0369681249461018
2885.0,0.03701541568300293
2884.0,0.03701541568300293
2883.0,0.037062711569998186
2882.0,0.0371573187987575
2881.0,0.03720463014276687
2880.0,0.037251946641359446
2879.0,0.037299268295658994
2878.0,0.037299268295658994
2877.0,0.037346595106788616
2876.0,0.03739392707587297
2875.0,0.03744126420403626
2874.0,0.03753595394209874
2873.0,0.03753595394209874
2872.0,0.03753595394209874
2871.0,0.03739392707587297
2870.0,0.037299268295658994
2869.0,0.0371573187987575
2868.0,0.037062711569998186
2867.0,0.0369681249461018
2866.0,0.036779013477011624
2865.0,0.03668448861388862
2864.0,0.03658998431977123
2863.0,0.036542739883292485
2862.0,0.036542739883292485
2861.0,0.03658998431977123
2860.0,0.03658998431977123
2859.0,0.03658998431977123
2858.0,0.03658998431977123
2857.0,0.03658998431977123
2856.0,0.03658998431977123
2855.0,0.03663723389626394
2854.0,0.03658998431977123
2853.0,0.036542739883292485
2852.0,0.03644826642590382
2851.0,0.03630659476198117
2850.0,0.0360705779734416
2849.0,0.03578752703018084
2848.0,0.03545753392086315
2847.0,0.03517488211661135
2846.0,0.03489241415094413
2845.0,0.03461012978487776
2844.0,0.03432802877989327
2843.0,0.034046110897937076
2842.0,0.0338113190438627
2841.0,0.03362357691107709
2840.0,0.03343591590268957
2839.0,0.0332483359486222
2838.0,0.033060836978886954
2837.0,0.032920265855503006
2836.0,0.03277974021703267
2835.0,0.032686081712916426
2834.0,0.032592443402527316
2833.0,0.03249882527715853
2832.0,0.032311649546687526
2831.0,0.032124554451966825
2830.0,0.03189079887180224
2829.0,0.03175060589208267
2828.0,0.031657169041054534
2827.0,0.03161045815293173
2826.0,0.03151705144606498
2825.0,0.03147035562516054
2824.0,0.03137697904301118
2823.0,0.03133029827960798
2822.0,0.03128362253321426
2821.0,0.031190286087141805
2820.0,0.031096969696171817
2819.0,0.030957032694186815
2818.0,0.030863766403287585
2817.0,0.0307239045110681
2816.0,0.03063068826647264
2815.0,0.030537492025363155
2814.0,0.030444315779156517
2813.0,0.030397735151460825
2812.0,0.03030458888152676
2811.0,0.03025802323714588
2810.0,0.030211462585061133
2809.0,0.030211462585061133
2808.0,0.030164906924202484
2807.0,0.030071810571884017
2806.0,0.029932203450862893
2805.0,0.029792641193145286
2804.0,0.02969962459782227
2803.0,0.02960662792039992
2802.0,0.029513651152349718
2801.0,0.029467170231675777
2800.0,0.02942069428514915
2799.0,0.02932775731028059
2798.0,0.029281296279810798
2797.0,0.029141943003497595
2796.0,0.02904906565457588
2795.0,0.02890978686288448
2794.0,0.028770552723758724
2793.0,0.02872415126189476
2792.0,0.02863136320857662
2791.0,0.02858497661500481
2790.0,0.028538594975413334
2789.0,0.02849221828874393
2788.0,0.02849221828874393
2787.0,0.028445846553939003
2786.0,0.028445846553939003
2785.0,0.02839947976994095
2784.0,0.028353117935693284
2783.0,0.028306761050139073
2782.0,0.028214062120885508
2781.0,0.02812138297373412
2780.0,0.028028723600243666
2779.0,0.027936083991977778
2778.0,0.027889771597169544
2777.0,0.027843464140506313
2776.0,0.027797161620935595
2775.0,0.0277045713888604
2774.0,0.027612000892527133
2773.0,0.027565723042634938
2772.0,0.02751945012352408
2771.0,0.02747318213414429
2770.0,0.02747318213414429
2769.0,0.027426919073445077
2768.0,0.02738066094037661
2767.0,0.027334407733889066
2766.0,0.027288159452933503
2765.0,0.02724191609646076
2764.0,0.027149444152769986
2763.0,0.02710321556345563
2762.0,0.02710321556345563
2761.0,0.02710321556345563
2760.0,0.02710321556345563
2759.0,0.02710321556345563
2758.0,0.027056991894431892
2757.0,0.027010773144651168
2756.0,0.027010773144651168
2755.0,0.02696455931306696
2754.0,0.026872146400301444
2753.0,0.026733563891471412
2752.0,0.02664120011360227
2751.0,0.02664120011360227
2750.0,0.026595025589939425
2749.0,0.026595025589939425
2748.0,0.026502691267936695
2747.0,0.026410376572743033
2746.0,0.02636422658259252
2745.0,0.026318081496016443
2744.0,0.026318081496016443
2743.0,0.026225806029419818
2742.0,0.02613355016462182
2741.0,0.026087429580295085
2740.0,0.026041313893296225
2739.0,0.025995203102585407
2738.0,0.025995203102585407
2737.0,0.025995203102585407
2736.0,0.025949097207122573
2735.0,0.025949097207122573
2734.0,0.025902996205869
2733.0,0.025902996205869
2732.0,0.025856900097785074
2731.0,0.025856900097785074
2730.0,0.025856900097785074
2729.0,0.025810808881832736
2728.0,0.025810808881832736
2727.0,0.025764722556973707
2726.0,0.025672564576383117
2725.0,0.02562649291857677
2724.0,0.02558042614771394
2723.0,0.02558042614771394
2722.0,0.02562649291857677
2721.0,0.02558042614771394
2720.0,0.025488307262671706
2719.0,0.02539620791296726
2718.0,0.025350165561278004
2717.0,0.025258095499050004
2716.0,0.02521206778644225
2715.0,0.02516604495145991
2714.0,0.025074013910237447
2713.0,0.02498200236711723
2712.0,0.024936003904763915
2711.0,0.024936003904763915
2710.0,0.024936003904763915
2709.0,0.024936003904763915
2708.0,0.024890010313838973
2707.0,0.02484402159331056
2706.0,0.024798037742147727
2705.0,0.02475205875931885
2704.0,0.02475205875931885
2703.0,0.02475205875931885
2702.0,0.024706084643793647
2701.0,0.024660115394541604
2700.0,0.024568191490736968
2699.0,0.024522236834125355
2698.0,0.024522236834125355
2697.0,0.024476287039668643
2696.0,0.024476287039668643
2695.0,0.024430342106337877
2694.0,0.02438440203310499
2693.0,0.02438440203310499
2692.0,0.02438440203310499
2691.0,0.024292536462819925
2690.0,0.024200690320592466
2689.0,0.024108863598207186
2688.0,0.02406295751688936
2687.0,0.024017056287453542
2686.0,0.024017056287453542
2685.0,0.023971159908874107
2684.0,0.023925268380126097
2683.0,0.023925268380126097
2682.0,0.023925268380126097
2681.0,0.023925268380126097
2680.0,0.023925268380126097
2679.0,0.023879381700184332
2678.0,0.023879381700184332
2677.0,0.023833499868024743
2676.0,0.023787622882622816
2675.0,0.023787622882622816
2674.0,0.023741750742954926
2673.0,0.023741750742954926
2672.0,0.023695883447997224
2671.0,0.02365002099672653
2670.0,0.023604163388120325
2669.0,0.02355831062115543
2668.0,0.02351246269481
2667.0,0.023466619608062178
2666.0,0.02342078135989012
2665.0,0.023374947949272418
2664.0,0.023374947949272418
2663.0,0.023374947949272418
2662.0,0.023374947949272418
2661.0,0.023374947949272418
2660.0,0.023374947949272418
2659.0,0.023374947949272418
2658.0,0.023329119375188556
2657.0,0.023329119375188556
2656.0,0.023283295636617574
2655.0,0.023237476732539397
2654.0,0.023191662661933732
2653.0,0.02314585342378117
2652.0,0.02314585342378117
2651.0,0.02314585342378117
2650.0,0.023100049017062307
2649.0,0.023054249440757957
2648.0,0.02300845469384938
2647.0,0.02296266477531872
2646.0,0.02296266477531872
2645.0,0.02296266477531872
2644.0,0.02296266477531872
2643.0,0.02296266477531872
2642.0,0.02291687968414724
2641.0,0.02291687968414724
2640.0,0.022871099419317753
2639.0,0.022871099419317753
2638.0,0.02282532397981263
2637.0,0.022733787572707387
2636.0,0.022688026603074007
2635.0,0.022642270454698687
2634.0,0.02259651912656535
2633.0,0.02259651912656535
2632.0,0.022642270454698687
2631.0,0.022642270454698687
2630.0,0.02259651912656535
2629.0,0.02259651912656535
2628.0,0.02259651912656535
2627.0,0.022642270454698687
2626.0,0.022642270454698687
2625.0,0.02259651912656535
2624.0,0.02255077261765881
2623.0,0.02245929405346514
2622.0,0.022413561996148967
2621.0,0.02245929405346514
2620.0,0.02245929405346514
2619.0,0.02245929405346514
2618.0,0.02245929405346514
2617.0,0.02245929405346514
2616.0,0.022413561996148967
2615.0,0.022322112326006227
2614.0,0.02227639471115217
2613.0,0.02227639471115217
2612.0,0.022230681908425698
2611.0,0.022230681908425698
2610.0,0.022230681908425698
2609.0,0.0221849739168134
2608.0,0.022139270735302752
2607.0,0.022139270735302752
2606.0,0.022093572362881675
2605.0,0.022093572362881675
2604.0,0.02204787879853809
2603.0,0.02200219004126036
2602.0,0.02200219004126036
2601.0,0.021956506090037076
2600.0,0.021910826943857264
2599.0,0.021910826943857264
2598.0,0.021865152601710403
2597.0,0.021865152601710403
2596.0,0.021865152601710403
2595.0,0.021819483062586187
2594.0,0.021728158389364705
2593.0,0.021636852916117055
2592.0,0.02159120737696063
2591.0,0.02159120737696063
2590.0,0.02159120737696063
2589.0,0.02159120737696063
2588.0,0.02159120737696063
2587.0,0.021545566634771474
2586.0,0.0214542995372613
2585.0,0.02140867317992523
2584.0,0.02140867317992523
2583.0,0.02140867317992523
2582.0,0.02140867317992523
2581.0,0.021363051615525652
2580.0,0.021363051615525652
2579.0,0.021317434843055594
2578.0,0.021271822861508305
2577.0,0.02122621566987748
2576.0,0.0211806132671577
2575.0,0.021135015652343103
2574.0,0.021089422824428272
2573.0,0.021089422824428272
2572.0,0.021043834782408455
2571.0,0.021043834782408455
2570.0,0.021043834782408455
2569.0,0.021043834782408455
2568.0,0.021043834782408455
2567.0,0.021043834782408455
2566.0,0.021043834782408455
2565.0,0.021043834782408455
2564.0,0.0209982515252789
2563.0,0.020952673052035298
2562.0,0.020907099361673565
2561.0,0.020907099361673565
2560.0,0.020861530453190058
2559.0,0.020861530453190058
2558.0,0.02081596632558158
2557.0,0.020770406977844713
2556.0,0.020724852408976924
2555.0,0.02067930261797568
2554.0,0.02067930261797568
2553.0,0.02067930261797568
2552.0,0.020633757603838898
2551.0,0.02058821736556471
2550.0,0.020542681902151694
2549.0,0.020497151212598652
2548.0,0.02045162529590483
2547.0,0.02045162529590483
2546.0,0.02045162529590483
2545.0,0.020497151212598652
2544.0,0.020497151212598652
2543.0,0.02045162529590483
2542.0,0.020406104151069693
2541.0,0.02036058777709271
2540.0,0.020315076172974234
2539.0,0.020315076172974234
2538.0,0.02036058777709271
2537.0,0.02036058777709271
2536.0,0.02036058777709271
2535.0,0.020315076172974234
2534.0,0.02026956933771462
2533.0,0.02022406727031445
2532.0,0.02022406727031445
2531.0,0.020178569969774962
2530.0,0.02013307743509718
2529.0,0.020087589665283012
2528.0,0.020087589665283012
2527.0,0.020087589665283012
2526.0,0.02013307743509718
2525.0,0.02013307743509718
2524.0,0.02013307743509718
2523.0,0.020087589665283012
2522.0,0.020087589665283012
2521.0,0.020087589665283012
2520.0,0.020087589665283012
2519.0,0.02013307743509718
2518.0,0.020087589665283012
2517.0,0.02004210665933459
2516.0,0.019996628416253603
2515.0,0.01995115493504329
2514.0,0.01995115493504329
2513.0,0.01995115493504329
2512.0,0.01995115493504329
2511.0,0.01990568621470623
2510.0,0.01990568621470623
2509.0,0.019860222254245663
2508.0,0.019860222254245663
2507.0,0.019860222254245663
2506.0,0.019814763052665052
2505.0,0.019814763052665052
2504.0,0.019814763052665052
2503.0,0.019769308608968306
2502.0,0.019769308608968306
2501.0,0.019678413991243593
2500.0,0.019632973815224997
2499.0,0.01958753839310856
2498.0,0.01954210772389997
2497.0,0.01954210772389997
2496.0,0.01949668180660491
2495.0,0.01949668180660491
2494.0,0.019451260640229506
2493.0,0.019451260640229506
2492.0,0.01940584422377989
2491.0,0.019315025636685412
2490.0,0.019269623464054586
2489.0,0.0192242260373785
2488.0,0.019315025636685412
2487.0,0.019360432556262852
2486.0,0.019360432556262852
2485.0,0.019315025636685412
2484.0,0.019269623464054586
2483.0,0.0192242260373785
2482.0,0.019133445417920836
2481.0,0.0190880622231564
2480.0,0.0190880622231564
2479.0,0.0190880622231564
2478.0,0.0190880622231564
2477.0,0.0190880622231564
2476.0,0.019133445417920836
2475.0,0.0190880622231564
2474.0,0.0190880622231564
2473.0,0.019042683770379876
2472.0,0.018951941086827073
2471.0,0.018951941086827073
2470.0,0.018906576854070378
2469.0,0.018906576854070378
2468.0,0.018906576854070378
2467.0,0.018906576854070378
2466.0,0.018861217359339655
2465.0,0.018815862601645694
2464.0,0.018815862601645694
2463.0,0.018770512579999288
2462.0,0.018725167293411005
2461.0,0.018634490921455527
2460.0,0.018543833477873584
2459.0,0.018498511851753108
2458.0,0.018498511851753108
2457.0,0.018498511851753108
2456.0,0.018543833477873584
2455.0,0.01858915983411169
2454.0,0.018634490921455527
2453.0,0.018634490921455527
2452.0,0.018634490921455527
2451.0,0.01858915983411169
2450.0,0.018543833477873584
2449.0,0.01845319495476394
2448.0,0.01840788278591865
2447.0,0.01845319495476394
2446.0,0.018498511851753108
2445.0,0.018543833477873584
2444.0,0.018543833477873584
2443.0,0.018498511851753108
2442.0,0.01840788278591865
2441.0,0.018362575344230914
2440.0,0.01831727262871463
2439.0,0.018271974638383703
2438.0,0.018226681372252695
2437.0,0.018181392829336396
2436.0,0.018181392829336396
2435.0,0.018181392829336396
2434.0,0.018181392829336396
2433.0,0.018226681372252695
2432.0,0.018226681372252695
2431.0,0.018226681372252695
2430.0,0.018181392829336396
2429.0,0.018136109008649592
2428.0,0.018136109008649592
2427.0,0.01809082990920774
2426.0,0.01809082990920774
2425.0,0.01809082990920774
2424.0,0.018045555530026514
2423.0,0.018045555530026514
2422.0,0.01800028587012159
2421.0,0.01800028587012159
2420.0,0.018045555530026514
2419.0,0.018045555530026514
2418.0,0.018045555530026514
2417.0,0.018045555530026514
2416.0,0.01800028587012159
2415.0,0.01800028587012159
2414.0,0.017955020928509757
2413.0,0.017909760704207134
2412.0,0.017864505196230507
2411.0,0.017864505196230507
2410.0,0.01781925440359733
2409.0,0.01781925440359733
2408.0,0.017774008325325275
2407.0,0.017728766960431575
2406.0,0.01768353030793479
2405.0,0.01768353030793479
2404.0,0.01768353030793479
2403.0,0.01768353030793479
2402.0,0.017728766960431575
2401.0,0.017728766960431575
2400.0,0.017774008325325275
2399.0,0.017728766960431575
2398.0,0.01768353030793479
2397.0,0.017638298366853045
2396.0,0.017638298366853045
2395.0,0.01759307113620534
2394.0,0.017547848615010242
2393.0,0.017502630802287644
2392.0,0.017457417697056554
2391.0,0.017457417697056554
2390.0,0.017547848615010242
2389.0,0.017638298366853045
2388.0,0.017774008325325275
2387.0,0.017909760704207134
2386.0,0.01809082990920774
2385.0,0.018271974638383703
2384.0,0.01845319495476394
2383.0,0.01845319495476394
2382.0,0.018271974638383703
2381.0,0.017864505196230507
2380.0,0.017141057687924732
2379.0,0.01632861713980338
2378.0,0.015562705203923999
2377.0,0.015022873584506602
2376.0,0.014843078722943437
2375.0,0.015067833932588037
2374.0,0.015652742414136167
2373.0,0.01646391839700767
2372.0,0.017231422748988034
2371.0,0.017728766960431575
2370.0,0.017909760704207134
2369.0,0.01781925440359733
2368.0,0.017547848615010242
2367.0,0.017186237868137555
2366.0,0.016689514205884493
2365.0,0.016238439713835096
2364.0,0.016058141016111804
2363.0,0.01628352608625061
2362.0,0.016734647433454652
2361.0,0.017005545341335804
2360.0,0.017005545341335804
2359.0,0.016824927962187042
2358.0,0.016824927962187042
2357.0,0.016960383953898095
2356.0,0.017050711425501408
2355.0,0.017005545341335804
2354.0,0.016915227262211507
2353.0,0.016734647433454652
2352.0,0.016509028184833463
2351.0,0.016509028184833463
2350.0,0.016870075265299933
2349.0,0.017141057687924732
2348.0,0.017005545341335804
2347.0,0.01646391839700767
2346.0,0.016058141016111804
2345.0,0.01646391839700767
2344.0,0.017412209298337533
2343.0,0.018271974638383703
2342.0,0.01845319495476394
2341.0,0.01800028587012159
2340.0,0.017231422748988034
2339.0,0.016734647433454652
2338.0,0.016734647433454652
2337.0,0.01677978535189717
2336.0,0.016689514205884493
2335.0,0.01632861713980338
2334.0,0.015877917138889863
2333.0,0.01538268676325183
2332.0,0.015022873584506602
2331.0,0.015067833932588037
2330.0,0.015652742414136167
2329.0,0.016644385668211692
2328.0,0.01759307113620534
2327.0,0.018181392829336396
2326.0,0.01831727262871463
2325.0,0.018045555530026514
2324.0,0.01759307113620534
2323.0,0.017141057687924732
2322.0,0.016870075265299933
2321.0,0.016824927962187042
2320.0,0.017005545341335804
2319.0,0.017367005605150476
2318.0,0.017728766960431575
2317.0,0.01800028587012159
2316.0,0.018045555530026514
2315.0,0.017909760704207134
2314.0,0.017728766960431575
2313.0,0.017638298366853045
2312.0,0.01768353030793479
2311.0,0.017774008325325275
2310.0,0.017864505196230507
2309.0,0.017909760704207134
2308.0,0.017909760704207134
2307.0,0.017864505196230507
2306.0,0.017864505196230507
2305.0,0.017864505196230507
2304.0,0.017955020928509757
2303.0,0.01809082990920774
2302.0,0.018271974638383703
2301.0,0.018362575344230914
2300.0,0.01840788278591865
2299.0,0.018362575344230914
2298.0,0.01831727262871463
2297.0,0.01831727262871463
2296.0,0.018271974638383703
2295.0,0.018181392829336396
2294.0,0.018136109008649592
2293.0,0.018045555530026514
2292.0,0.017955020928509757
2291.0,0.01781925440359733
2290.0,0.01768353030793479
2289.0,0.017547848615010242
2288.0,0.017412209298337533
2287.0,0.017321806616515723
2286.0,0.017186237868137555
2285.0,0.017095882207371904
2284.0,0.017050711425501408
2283.0,0.017005545341335804
2282.0,0.017005545341335804
2281.0,0.017005545341335804
2280.0,0.017050711425501408
2279.0,0.017050711425501408
2278.0,0.017005545341335804
2277.0,0.017005545341335804
2276.0,0.017005545341335804
2275.0,0.016960383953898095
2274.0,0.016915227262211507
2273.0,0.016870075265299933
2272.0,0.016870075265299933
2271.0,0.016870075265299933
2270.0,0.016870075265299933
2269.0,0.016915227262211507
2268.0,0.016915227262211507
2267.0,0.016915227262211507
2266.0,0.016870075265299933
2265.0,0.016870075265299933
2264.0,0.016915227262211507
2263.0,0.016960383953898095
2262.0,0.016960383953898095
2261.0,0.016915227262211507
2260.0,0.016824927962187042
2259.0,0.016734647433454652
2258.0,0.016644385668211692
2257.0,0.016644385668211692
2256.0,0.016689514205884493
2255.0,0.016734647433454652
2254.0,0.016734647433454652
2253.0,0.016689514205884493
2252.0,0.016644385668211692
2251.0,0.016599261819461697
2250.0,0.016599261819461697
2249.0,0.016599261819461697
2248.0,0.016554142658660398
2247.0,0.016509028184833463
2246.0,0.016509028184833463
2245.0,0.016509028184833463
2244.0,0.016554142658660398
2243.0,0.016599261819461697
2242.0,0.016599261819461697
2241.0,0.016599261819461697
2240.0,0.016509028184833463
2239.0,0.01646391839700767
2238.0,0.016418813294209356
2237.0,0.016418813294209356
2236.0,0.016418813294209356
2235.0,0.016373712875465518
2234.0,0.01632861713980338
2233.0,0.01628352608625061
2232.0,0.01628352608625061
2231.0,0.01632861713980338
2230.0,0.01632861713980338
2229.0,0.016373712875465518
2228.0,0.016373712875465518
2227.0,0.016373712875465518
2226.0,0.01632861713980338
2225.0,0.01628352608625061
2224.0,0.016238439713835096
2223.0,0.016238439713835096
2222.0,0.016193358021584725
2221.0,0.016193358021584725
2220.0,0.016238439713835096
2219.0,0.016238439713835096
2218.0,0.016238439713835096
2217.0,0.01628352608625061
2216.0,0.01628352608625061
2215.0,0.016238439713835096
2214.0,0.016238439713835096
2213.0,0.01628352608625061
2212.0,0.01632861713980338
2211.0,0.01632861713980338
2210.0,0.016373712875465518
2209.0,0.016373712875465518
2208.0,0.016373712875465518
2207.0,0.016373712875465518
2206.0,0.01632861713980338
2205.0,0.01632861713980338
2204.0,0.01628352608625061
2203.0,0.01628352608625061
2202.0,0.01628352608625061
2201.0,0.01632861713980338
2200.0,0.01632861713980338
2199.0,0.01628352608625061
2198.0,0.016238439713835096
2197.0,0.016238439713835096
2196.0,0.016238439713835096
2195.0,0.016238439713835096
2194.0,0.016193358021584725
2193.0,0.016193358021584725
2192.0,0.016193358021584725
2191.0,0.016193358021584725
2190.0,0.016193358021584725
2189.0,0.016193358021584725
2188.0,0.016193358021584725
2187.0,0.016148281008528276
2186.0,0.016148281008528276
2185.0,0.016148281008528276
2184.0,0.016148281008528276
2183.0,0.016148281008528276
2182.0,0.016193358021584725
2181.0,0.016193358021584725
2180.0,0.016193358021584725
2179.0,0.016193358021584725
2178.0,0.016148281008528276
2177.0,0.016103208673694303
2176.0,0.016148281008528276
2175.0,0.016148281008528276
2174.0,0.016148281008528276
2173.0,0.016148281008528276
2172.0,0.016103208673694303
2171.0,0.016103208673694303
2170.0,0.016103208673694303
2169.0,0.016148281008528276
2168.0,0.016193358021584725
2167.0,0.016148281008528276
2166.0,0.016148281008528276
2165.0,0.016148281008528276
2164.0,0.016193358021584725
2163.0,0.016193358021584725
2162.0,0.016148281008528276
2161.0,0.016103208673694303
2160.0,0.016058141016111804
2159.0,0.016013078034810446
2158.0,0.01596801972881945
2157.0,0.01596801972881945
2156.0,0.01596801972881945
2155.0,0.01596801972881945
2154.0,0.016013078034810446
2153.0,0.016013078034810446
2152.0,0.016058141016111804
2151.0,0.016013078034810446
2150.0,0.016013078034810446
2149.0,0.016013078034810446
2148.0,0.016013078034810446
2147.0,0.01596801972881945
2146.0,0.01596801972881945
2145.0,0.015922966097169144
2144.0,0.01596801972881945
2143.0,0.01596801972881945
2142.0,0.016013078034810446
2141.0,0.016013078034810446
2140.0,0.016013078034810446
2139.0,0.016013078034810446
2138.0,0.01596801972881945
2137.0,0.015922966097169144
2136.0,0.015922966097169144
2135.0,0.015877917138889863
2134.0,0.015832872853011715
2133.0,0.015877917138889863
2132.0,0.015877917138889863
2131.0,0.015922966097169144
2130.0,0.015877917138889863
2129.0,0.015877917138889863
2128.0,0.015877917138889863
2127.0,0.015922966097169144
2126.0,0.015922966097169144
2125.0,0.015922966097169144
2124.0,0.015877917138889863
2123.0,0.015877917138889863
2122.0,0.015832872853011715
2121.0,0.015832872853011715
2120.0,0.015832872853011715
2119.0,0.015832872853011715
2118.0,0.015877917138889863
2117.0,0.015922966097169144
2116.0,0.01596801972881945
2115.0,0.016058141016111804
2114.0,0.016058141016111804
2113.0,0.016058141016111804
2112.0,0.016058141016111804
2111.0,0.016058141016111804
2110.0,0.016013078034810446
2109.0,0.01596801972881945
2108.0,0.01596801972881945
2107.0,0.015922966097169144
2106.0,0.015877917138889863
2105.0,0.015877917138889863
2104.0,0.015832872853011715
2103.0,0.015832872853011715
2102.0,0.015832872853011715
2101.0,0.015832872853011715
2100.0,0.015832872853011715
2099.0,0.015832872853011715
2098.0,0.015877917138889863
2097.0,0.015877917138889863
2096.0,0.015877917138889863
2095.0,0.015877917138889863
2094.0,0.015832872853011715
2093.0,0.01578783323856614
2092.0,0.01578783323856614
2091.0,0.01578783323856614
2090.0,0.015742798294583915
2089.0,0.015742798294583915
2088.0,0.015697768020096703
2087.0,0.015697768020096703
2086.0,0.015652742414136167
2085.0,0.015652742414136167
2084.0,0.015652742414136167
2083.0,0.015652742414136167
2082.0,0.015652742414136167
2081.0,0.015652742414136167
2080.0,0.015652742414136167
2079.0,0.015697768020096703
2078.0,0.015652742414136167
2077.0,0.015652742414136167
2076.0,0.015607721475734415
2075.0,0.015562705203923999
2074.0,0.015517693597737248
2073.0,0.015562705203923999
2072.0,0.015562705203923999
2071.0,0.015607721475734415
2070.0,0.015652742414136167
2069.0,0.015652742414136167
2068.0,0.015742798294583915
2067.0,0.01578783323856614
2066.0,0.01578783323856614
2065.0,0.015697768020096703
2064.0,0.015652742414136167
2063.0,0.015562705203923999
2062.0,0.015562705203923999
2061.0,0.015517693597737248
2060.0,0.015517693597737248
2059.0,0.01547268665620738
2058.0,0.015427684378367834
2057.0,0.01538268676325183
2056.0,0.015427684378367834
2055.0,0.015427684378367834
2054.0,0.015427684378367834
2053.0,0.015427684378367834
2052.0,0.01538268676325183
2051.0,0.015337693809893471
2050.0,0.015337693809893471
2049.0,0.015337693809893471
2048.0,0.01538268676325183
2047.0,0.01538268676325183
2046.0,0.01538268676325183
2045.0,0.01538268676325183
2044.0,0.015337693809893471
2043.0,0.015337693809893471
2042.0,0.015337693809893471
2041.0,0.015337693809893471
2040.0,0.015292705517326866
2039.0,0.015247721884586563
2038.0,0.015202742910707112
2037.0,0.015157768594724175
2036.0,0.015067833932588037
2035.0,0.015022873584506602
2034.0,0.014932966849499074
2033.0,0.014932966849499074
2032.0,0.014977917890464765
2031.0,0.014977917890464765
2030.0,0.014932966849499074
2029.0,0.014932966849499074
2028.0,0.014977917890464765
2027.0,0.014932966849499074
2026.0,0.014932966849499074
2025.0,0.014932966849499074
2024.0,0.014932966849499074
2023.0,0.014932966849499074
2022.0,0.014888020460646079
2021.0,0.014888020460646079
2020.0,0.014977917890464765
2019.0,0.015022873584506602
2018.0,0.015022873584506602
2017.0,0.014932966849499074
2016.0,0.014798141635428141
2015.0,0.014708281407112
2014.0,0.014663358264387139
2013.0,0.014618439768003144
2012.0,0.014618439768003144
2011.0,0.014618439768003144
2010.0,0.014618439768003144
2009.0,0.014618439768003144
2008.0,0.014573525916998342
2007.0,0.01452861671041239
2006.0,0.0144837121472845
2005.0,0.0144837121472845
2004.0,0.014438812226654996
2003.0,0.014393916947563534
2002.0,0.014349026309051105
2001.0,0.014304140310157809
2000.0,0.014304140310157809
1999.0,0.014304140310157809
1998.0,0.014214382227394795
1997.0,0.014214382227394795
1996.0,0.014259258949925524
1995.0,0.014393916947563534
1994.0,0.014573525916998342
1993.0,0.014618439768003144
1992.0,0.01452861671041239
1991.0,0.014438812226654996
1990.0,0.014349026309051105
1989.0,0.014304140310157809
1988.0,0.014214382227394795
1987.0,0.014124642691606404
1986.0,0.01403492169512921
1985.0,0.013990068146738865
1984.0,0.013945219230304673
1983.0,0.013900374944870508
1982.0,0.01385553528947936
1981.0,0.01381070026317599
1980.0,0.01381070026317599
1979.0,0.01381070026317599
1978.0,0.01385553528947936
1977.0,0.01381070026317599
1976.0,0.013765869865004277
1975.0,0.013765869865004277
1974.0,0.013765869865004277
1973.0,0.013765869865004277
1972.0,0.013765869865004277
1971.0,0.01385553528947936
1970.0,0.013990068146738865
1969.0,0.014124642691606404
1968.0,0.014124642691606404
1967.0,0.013990068146738865
1966.0,0.013765869865004277
1965.0,0.013631406429727155
1964.0,0.013586594534531482
1963.0,0.013586594534531482
1962.0,0.013496984613259544
1961.0,0.013452186585275916
1960.0,0.013452186585275916
1959.0,0.013452186585275916
1958.0,0.013496984613259544
1957.0,0.013496984613259544
1956.0,0.013452186585275916
1955.0,0.013407393177789162
1954.0,0.013317820220494436
1953.0,0.013273040668781544
1952.0,0.013273040668781544
1951.0,0.013273040668781544
1950.0,0.013273040668781544
1949.0,0.013317820220494436
1948.0,0.013362604389846044
1947.0,0.013407393177789162
1946.0,0.013496984613259544
1945.0,0.01372104409400876
1944.0,0.01385553528947936
1943.0,0.013676222949234651
1942.0,0.013273040668781544
1941.0,0.012959713020733288
1940.0,0.012825498912458322
1939.0,0.012825498912458322
1938.0,0.012825498912458322
1937.0,0.012780770091995297
1936.0,0.012736045877764557
1935.0,0.012780770091995297
1934.0,0.012825498912458322
1933.0,0.012870232340102872
1932.0,0.012870232340102872
1931.0,0.012825498912458322
1930.0,0.012780770091995297
1929.0,0.012691326268817527
1928.0,0.01260190086298274
1927.0,0.01264661126420652
1926.0,0.012780770091995297
1925.0,0.013049212141483357
1924.0,0.013093968619278806
1923.0,0.012914970375878188
1922.0,0.012691326268817527
1921.0,0.012691326268817527
1920.0,0.012825498912458322
1919.0,0.012736045877764557
1918.0,0.012378417874516323
1917.0,0.012065734767841452
1916.0,0.012021084124518078
1915.0,0.01215504982870197
1914.0,0.012333735073725371
1913.0,0.012467797270160563
1912.0,0.012557195064198723
1911.0,0.01264661126420652
1910.0,0.01264661126420652
1909.0,0.012512493866907004
1908.0,0.012333735073725371
1907.0,0.012199714248127602
1906.0,0.012110390002254778
1905.0,0.012065734767841452
1904.0,0.012065734767841452
1903.0,0.012021084124518078
1902.0,0.0119764380713403
1901.0,0.011931796607364653
1900.0,0.0119764380713403
1899.0,0.012021084124518078
1898.0,0.012110390002254778
1897.0,0.012244383261476699
1896.0,0.012244383261476699
1895.0,0.012065734767841452
1894.0,0.011887159731648111
1893.0,0.0119764380713403
1892.0,0.012289056869694281
1891.0,0.012467797270160563
1890.0,0.012289056869694281
1889.0,0.011842527443247208
1888.0,0.011574829993696856
1887.0,0.011574829993696856
1886.0,0.011619434777991433
1885.0,0.011619434777991433
1884.0,0.011530229790124524
1883.0,0.011441043121384498
1882.0,0.011441043121384498
1881.0,0.011441043121384498
1880.0,0.011441043121384498
1879.0,0.011396456654336085
1878.0,0.011351874764248926
1877.0,0.011307297450183107
1876.0,0.011307297450183107
1875.0,0.011262724711199823
1874.0,0.011262724711199823
1873.0,0.011441043121384498
1872.0,0.011887159731648111
1871.0,0.012378417874516323
1870.0,0.012512493866907004
1869.0,0.01215504982870197
1868.0,0.011574829993696856
1867.0,0.011129033935354915
1866.0,0.010906307389674463
1865.0,0.01086177578421088
1864.0,0.010906307389674463
1863.0,0.010950843561779777
1862.0,0.010995384301463185
1861.0,0.010995384301463185
1860.0,0.010995384301463185
1859.0,0.010906307389674463
1858.0,0.010817248744452446
1857.0,0.010728208358306901
1856.0,0.010683695010048622
1855.0,0.010683695010048622
1854.0,0.010639186223752484
1853.0,0.010594681998483901
1852.0,0.010639186223752484
1851.0,0.01077272626946324
1850.0,0.010950843561779777
1849.0,0.011039929609661936
1848.0,0.01117359295472431
1847.0,0.011396456654336085
1846.0,0.011530229790124524
1845.0,0.011084479487313281
1844.0,0.01023881228122181
1843.0,0.009616741093766423
1842.0,0.009572341514736404
1841.0,0.009972101229705377
1840.0,0.01037222925484893
1839.0,0.010550182333308289
1838.0,0.010550182333308289
1837.0,0.010105436281226954
1836.0,0.010105436281226954
1835.0,0.010060986715464404
1834.0,0.009927665307847056
1833.0,0.00974996707218323
1832.0,0.009616741093766423
1831.0,0.009572341514736404
1830.0,0.009616741093766423
1829.0,0.010327752376126709
1828.0,0.010283280051895272
1827.0,0.01046119667949763
1826.0,0.010550182333308289
1825.0,0.010149890396819572
1824.0,0.00966114521239847
1823.0,0.009527946474380489
1822.0,0.009572341514736404
1821.0,0.009705553871561357
1820.0,0.00974996707218323
1819.0,0.009794384815193347
1818.0,0.009705553871561357
1817.0,0.009616741093766423
1816.0,0.009572341514736404
1815.0,0.00966114521239847
1814.0,0.009927665307847056
1813.0,0.010194349063173958
1812.0,0.010327752376126709
1811.0,0.010149890396819572
1810.0,0.009838807101520963
1809.0,0.009616741093766423
1808.0,0.009527946474380489
1807.0,0.009483555971770974
1806.0,0.009483555971770974
1805.0,0.009616741093766423
1804.0,0.009883233932095559
1803.0,0.010194349063173958
1802.0,0.01023881228122181
1801.0,0.01001654169860089
1800.0,0.00974996707218323
1799.0,0.009527946474380489
1798.0,0.009483555971770974
1797.0,0.009616741093766423
1796.0,0.009927665307847056
1795.0,0.010327752376126709
1794.0,0.01046119667949763
1793.0,0.010105436281226954
1792.0,0.009217308196862062
1791.0,0.008419542825660153
1790.0,0.008109696063975047
1789.0,0.008330992620051436
1788.0,0.0087296108049002
1787.0,0.008995559669244813
1786.0,0.008995559669244813
1785.0,0.008862564879688284
1784.0,0.008862564879688284
1783.0,0.009172949432521227
1782.0,0.009439170005980158
1781.0,0.009439170005980158
1780.0,0.009172949432521227
1779.0,0.008995559669244813
1778.0,0.00908424549391551
1777.0,0.009350411681145587
1776.0,0.00974996707218323
1775.0,0.010283280051895272
1774.0,0.010594681998483901
1773.0,0.010149890396819572
1772.0,0.009217308196862062
1771.0,0.008552401996197112
1770.0,0.008463824699968647
1769.0,0.008552401996197112
1768.0,0.008463824699968647
1767.0,0.008198201155356077
1766.0,0.008286724286910463
1765.0,0.008862564879688284
1764.0,0.009572341514736404
1763.0,0.00974996707218323
1762.0,0.009306039320248427
1761.0,0.008773924307505121
1760.0,0.008906891951112605
1759.0,0.009439170005980158
1758.0,0.009794384815193347
1757.0,0.009572341514736404
1756.0,0.009306039320248427
1755.0,0.009483555971770974
1754.0,0.010194349063173958
1753.0,0.011039929609661936
1752.0,0.011664044143949504
1751.0,0.012021084124518078
1750.0,0.012244383261476699
1749.0,0.012512493866907004
1748.0,0.012736045877764557
1747.0,0.012959713020733288
1746.0,0.01322826573375524
1745.0,0.013541787262693505
1744.0,0.01381070026317599
1743.0,0.013945219230304673
1742.0,0.01403492169512921
1741.0,0.014079779876432497
1740.0,0.01381070026317599
1739.0,0.013452186585275916
1738.0,0.013586594534531482
1737.0,0.014393916947563534
1736.0,0.01538268676325183
1735.0,0.015337693809893471
1734.0,0.014214382227394795
1733.0,0.013631406429727155
1732.0,0.014169510141607944
1731.0,0.015022873584506602
1730.0,0.015337693809893471
1729.0,0.015202742910707112
1728.0,0.015157768594724175
1727.0,0.01538268676325183
1726.0,0.015697768020096703
1725.0,0.015922966097169144
1724.0,0.016103208673694303
1723.0,0.016238439713835096
1722.0,0.016599261819461697
1721.0,0.017321806616515723
1720.0,0.01845319495476394
1719.0,0.019042683770379876
1718.0,0.018634490921455527
1717.0,0.017955020928509757
1716.0,0.017864505196230507
1715.0,0.01800028587012159
1714.0,0.018136109008649592
1713.0,0.01845319495476394
1712.0,0.018951941086827073
1711.0,0.01954210772389997
1710.0,0.020087589665283012
1709.0,0.020724852408976924
1708.0,0.02168250325324883
1707.0,0.022642270454698687
1706.0,0.023100049017062307
1705.0,0.023374947949272418
1704.0,0.023925268380126097
1703.0,0.024890010313838973
1702.0,0.025764722556973707
1701.0,0.025995203102585407
1700.0,0.02654885597506529
1699.0,0.028075050815808744
1698.0,0.029932203450862893
1697.0,0.03151705144606498
1696.0,0.032686081712916426
1695.0,0.033905220553829274
1694.0,0.03550466044490741
1693.0,0.037488606492403154
1692.0,0.03957679292217042
1691.0,0.041483896576958834
1690.0,0.04325545471730896
1689.0,0.044986096961949995
1688.0,0.04662694927330402
1687.0,0.048225491918274965
1686.0,0.04963514562387683
1685.0,0.05095170768433621
1684.0,0.05330216275425803
1683.0,0.05625823416868636
1682.0,0.058190526991161784
1681.0,0.05973260855398799
1680.0,0.061380218497318895
1679.0,0.06293368798257193
1678.0,0.06429125215733666
1677.0,0.06550154875643233
1676.0,0.06706985716921054
1675.0,0.06950943469373039
1674.0,0.07221915065262552
1673.0,0.07443009045662374
1672.0,0.07634157820669385
1671.0,0.07831352451639795
1670.0,0.08066036321258663
1669.0,0.08365134772453975
1668.0,0.08639805027084257
1667.0,0.08825662214406838
1666.0,0.08953568400438638
1665.0,0.09076499663169257
1664.0,0.09242742120144909
1663.0,0.09512223303659528
1662.0,0.09843270997155007
1661.0,0.10116516193172598
1660.0,0.10319830233507843
1659.0,0.10485381062400778
1658.0,0.1061827760325369
1657.0,0.10707101764479421
1656.0,0.10779405402422748
1655.0,0.1082953237608173
1654.0,0.10902040301031102
1653.0,0.11356568037106163
1652.0,0.1190150095132465
1651.0,0.12061736282565727
1650.0,0.1207320431753871
1649.0,0.12067469921519258
1648.0,0.12101887660626365
1647.0,0.12308968865537295
1646.0,0.12604034525664676
1645.0,0.12749410065407507
1644.0,0.1276688787697493
1643.0,0.1277271537757949
1642.0,0.12790202572577325
1641.0,0.1280769681176266
1640.0,0.12836869546244634
1639.0,0.1286022185125162
1638.0,0.12866061890013913
1637.0,0.12866061890013913
1636.0,0.13012318673323353
1635.0,0.13282724882135022
1634.0,0.13406733180681396
1633.0,0.13365357725039817
1632.0,0.13282724882135022
1631.0,0.1320613491092153
1630.0,0.13153190097901324
1629.0,0.1312967977214634
1628.0,0.13135556160517425
1627.0,0.13141433344123432
1626.0,0.13094438129809216
1625.0,0.13006458935314003
1624.0,0.12924505510985984
1623.0,0.12895273869450063
1622.0,0.12866061890013913
1621.0,0.12749410065407507
1620.0,0.12569216687196105
1619.0,0.12378215940835768
1618.0,0.12182301950849372
1617.0,0.1201016756699902
1616.0,0.11878658374498086
1615.0,0.1175323851046286
1614.0,0.11588463798833115
1613.0,0.11379137583250243
1612.0,0.11142740314240007
1611.0,0.10924374808178183
1610.0,0.10729336219433439
1609.0,0.10535169620648288
1608.0,0.1033635694704158
1607.0,0.1014393550602879
1606.0,0.09963287134352972
1605.0,0.0978882765519955
1604.0,0.09625905937846135
1603.0,0.09474395125154866
1602.0,0.09339562827501968
1601.0,0.09205147838772776
1600.0,0.09071147583774919
1599.0,0.08948231448273347
1598.0,0.0884695376928375
1597.0,0.08751223866767632
1596.0,0.08661005636824437
1595.0,0.08570974433405087
1594.0,0.08486409337798806
1593.0,0.08396738981143059
1592.0,0.0830725338870073
1591.0,0.08223199755224364
1590.0,0.08155025759884227
1589.0,0.08092190762392604
1588.0,0.08034671768963575
1587.0,0.07982447798997727
1586.0,0.07951143534170213
1585.0,0.07925073872429178
1584.0,0.07904229404455076
1583.0,0.07893810920972144
1582.0,0.07899019850296574
1581.0,0.07904229404455076
1580.0,0.07904229404455076
1579.0,0.07904229404455076
1578.0,0.079094395835976
1577.0,0.07919861817434581
1576.0,0.07977228854307139
1575.0,0.08071265949561734
1574.0,0.08139308485501817
1573.0,0.08175990977858505
1572.0,0.08202211740709164
1571.0,0.08228448344050654
1570.0,0.08312512146131668
1569.0,0.08449463824562353
1568.0,0.08555105930144569
1567.0,0.08618614761628329
1566.0,0.08687520961044104
1565.0,0.08756536662442538
1564.0,0.08830984124613894
1563.0,0.08873582900163002
1562.0,0.08894897967187343
1561.0,0.08910891135547172
1560.0,0.08932224525729482
1559.0,0.09189045960744768
1558.0,0.09674718310604158
1557.0,0.09805153492691598
1556.0,0.09805153492691598
1555.0,0.09854167860388774
1554.0,0.09925064193892053
1553.0,0.10012480397898926
1552.0,0.10089114180660053
1551.0,0.10165883427249067
1550.0,0.10248287059947447
1549.0,0.10319830233507843
1548.0,0.1033635694704158
1547.0,0.10325338439259446
1546.0,0.10319830233507843
1545.0,0.10347378251044459
1544.0,0.10402526764093545
1543.0,0.10435649517592083
1542.0,0.10424605792627206
1541.0,0.10435649517592083
1540.0,0.10557316203581202
1539.0,0.10673771411200872
1538.0,0.1063491830140364
1537.0,0.10546241500425357
1536.0,0.1047432468551055
1535.0,0.10413564875270076
1534.0,0.10397008760377302
1533.0,0.10452220372428545
1532.0,0.10479852522110678
1531.0,0.10430127304069425
1530.0,0.10352889952072264
1529.0,0.10292299679057959
1528.0,0.10253786198693682
1527.0,0.10226297465457268
1526.0,0.10204318999304807
1525.0,0.10182351650232357
1524.0,0.1014393550602879
1523.0,0.10105553313349058
1522.0,0.10100072911021085
1521.0,0.10193333935836524
1520.0,0.10275789719463457
1519.0,0.10297804393963661
1518.0,0.10297804393963661
1517.0,0.10308815917397474
1516.0,0.10308815917397474
1515.0,0.10237290870955862
1514.0,0.10100072911021085
1513.0,0.09946901754724413
1512.0,0.09816040794877057
1511.0,0.09701860020249709
1510.0,0.0960964733098364
1509.0,0.09523037409340485
1508.0,0.09404230090757282
1507.0,0.09237369515673355
1506.0,0.09049745859458458
1505.0,0.08820340956274775
1504.0,0.08666307406737683
1503.0,0.0856568428805593
1502.0,0.08460016478773014
1501.0,0.08344078069888616
1500.0,0.08228448344050654
1499.0,0.0812359689720008
1498.0,0.08003329851661278
1497.0,0.07872981449018734
1496.0,0.07758597585436577
1495.0,0.07660053384128362
1494.0,0.07577241873988227
1493.0,0.07520400420208784
1492.0,0.07473949048056472
1491.0,0.07422394616325367
1490.0,0.07360609973031784
1489.0,0.07288638806623937
1488.0,0.07186029312488018
1487.0,0.07052998382251041
1486.0,0.06925467168888666
1485.0,0.0681862960408608
1484.0,0.06742477650170953
1483.0,0.06681652082538614
1482.0,0.06625970050306473
1481.0,0.06570359318059427
1480.0,0.06529959828457499
1479.0,0.06504729218214189
1478.0,0.06489597884855036
1477.0,0.06479513257341862
1476.0,0.06484555278383164
1475.0,0.06499684854634524
1474.0,0.06504729218214189
1473.0,0.06524912533642091
1472.0,0.06580465065211571
1471.0,0.06620911585658007
1470.0,0.06636088747507496
1469.0,0.06656333217371957
1468.0,0.06681652082538614
1467.0,0.06706985716921054
1466.0,0.06727263269847072
1465.0,0.0676277178520861
1464.0,0.06813548650796819
1463.0,0.06864384953207203
1462.0,0.0690000580438479
1461.0,0.06940751155740177
1460.0,0.06996838504902692
1459.0,0.07047889936889606
1458.0,0.0709900145060387
1457.0,0.07196279359311708
1456.0,0.0729891310243489
1455.0,0.07355465218161061
1454.0,0.07381195089279391
1453.0,0.07396640332115534
1452.0,0.07401789967289685
1451.0,0.07412091069849924
1450.0,0.07427547306393745
1449.0,0.07443009045662374
1448.0,0.07463633264589853
1447.0,0.07479107858799638
1446.0,0.07479107858799638
1445.0,0.07463633264589853
1444.0,0.07453319930846214
1443.0,0.07443009045662374
1442.0,0.07422394616325367
1441.0,0.07396640332115534
1440.0,0.07370901311513656
1439.0,0.07340034609297241
1438.0,0.07293775650699996
1437.0,0.07262963696097646
1436.0,0.07278366940873537
1435.0,0.07314329105030759
1434.0,0.07334892291111106
1433.0,0.07334892291111106
1432.0,0.07334892291111106
1431.0,0.0734517753643813
1430.0,0.07360609973031784
1429.0,0.07376047895413773
1428.0,0.07391491307485598
1427.0,0.07417242537525759
1426.0,0.07453319930846214
1425.0,0.07504911108438939
1424.0,0.07566901529132153
1423.0,0.07623803917129979
1422.0,0.07644514193245056
1421.0,0.07644514193245056
1420.0,0.07675598136972361
1419.0,0.07763790321520991
1418.0,0.07867775641617802
1417.0,0.07930286553008004
1416.0,0.07951143534170213
1415.0,0.0794592834975203
1414.0,0.07930286553008004
1413.0,0.07914650387874067
1412.0,0.07919861817434581
1411.0,0.07919861817434581
1410.0,0.07899019850296574
1409.0,0.07872981449018734
1408.0,0.07846958649875768
1407.0,0.07831352451639795
1406.0,0.07810552907089763
1405.0,0.07779372256098371
1404.0,0.07743023101428781
1403.0,0.07696333132921396
1402.0,0.07644514193245056
1401.0,0.0760310351245288
1400.0,0.07572071393811841
1399.0,0.07546228222451012
1398.0,0.07525564752005143
1397.0,0.0748426728241014
1396.0,0.07427547306393745
1395.0,0.07360609973031784
1394.0,0.07288638806623937
1393.0,0.07232173586200852
1392.0,0.0720140529005715
1391.0,0.07186029312488018
1390.0,0.07175781684269089
1389.0,0.07170658776779781
1388.0,0.0718090519612431
1387.0,0.07211658966929302
1386.0,0.0725783049495814
1385.0,0.07304051161972436
1384.0,0.07355465218161061
1383.0,0.07417242537525759
1382.0,0.07489427319033615
1381.0,0.07566901529132153
1380.0,0.07644514193245056
1379.0,0.07706704344478843
1378.0,0.07748213975538865
1377.0,0.07768983678560404
1376.0,0.0777417765670334
1375.0,0.07758597585436577
1374.0,0.0772226580712021
1373.0,0.07649693305789551
1372.0,0.0756173227980268
1371.0,0.07468790850035045
1370.0,0.07381195089279391
1369.0,0.07288638806623937
1368.0,0.07191154033502922
1367.0,0.07088774334533943
1366.0,0.07007043991541217
1365.0,0.06935655895783555
1364.0,0.06869471857832687
1363.0,0.06803388527182741
1362.0,0.06722192993944942
1361.0,0.06636088747507496
1360.0,0.06560255921901192
1359.0,0.06494641076893504
1358.0,0.06444235490698613
1357.0,0.06403953101083348
1356.0,0.06373765809652254
1355.0,0.06348625752110681
1354.0,0.06323500239005853
1353.0,0.06298389253518577
1352.0,0.06283329628496737
1351.0,0.06268275223750575
1350.0,0.06263258248271053
1349.0,0.06258241852286206
1348.0,0.06248210798265341
1347.0,0.06243196139961715
1346.0,0.062381820606176586
1345.0,0.06243196139961715
1344.0,0.06258241852286206
1343.0,0.06278310913729457
1342.0,0.06318476880236723
1341.0,0.06363708040225546
1340.0,0.06403953101083348
1339.0,0.06429125215733666
1338.0,0.06439198148213077
1337.0,0.06434161389936577
1336.0,0.06434161389936577
1335.0,0.06444235490698613
1334.0,0.06464390705442691
1333.0,0.06489597884855036
1332.0,0.06524912533642091
1331.0,0.06565307326174441
1330.0,0.06605739725873905
1329.0,0.06646209802829528
1328.0,0.06676587128519196
1327.0,0.06706985716921054
1326.0,0.06727263269847072
1325.0,0.06742477650170953
1324.0,0.06752623532284674
1323.0,0.0676277178520861
1322.0,0.06772922410050963
1321.0,0.06788152797087754
1320.0,0.06803388527182741
1319.0,0.0681862960408608
1318.0,0.06828793294324442
1317.0,0.06833876031551878
1316.0,0.068389593637038
1315.0,0.0685421293109949
1314.0,0.06869471857832687
1313.0,0.06884736147670667
1312.0,0.06894915322260897
1311.0,0.0688982543673613
1310.0,0.0688982543673613
1309.0,0.06879647454924775
1308.0,0.06874559358358656
1307.0,0.06864384953207203
1306.0,0.0684912781333824
1305.0,0.06833876031551878
1304.0,0.06813548650796819
1303.0,0.06793230779927839
1302.0,0.06772922410050963
1301.0,0.06747550294945781
1300.0,0.0671712330991534
1299.0,0.06686717627326577
1298.0,0.06656333217371957
1297.0,0.06625970050306473
1296.0,0.06590573164451952
1295.0,0.06560255921901192
1294.0,0.06529959828457499
1293.0,0.06509774167768612
1292.0,0.06489597884855036
1291.0,0.06484555278383164
1290.0,0.06484555278383164
1289.0,0.06484555278383164
1288.0,0.06489597884855036
1287.0,0.06494641076893504
1286.0,0.06499684854634524
1285.0,0.06504729218214189
1284.0,0.06509774167768612
1283.0,0.06529959828457499
1282.0,0.06550154875643233
1281.0,0.06575411897692884
1280.0,0.06600683616875758
1279.0,0.0663102910421054
1278.0,0.0666645899223488
1277.0,0.06706985716921054
1276.0,0.06752623532284674
1275.0,0.06803388527182741
1274.0,0.06859298644342648
1273.0,0.06915280831750303
1272.0,0.06981534770138009
1271.0,0.07052998382251041
1270.0,0.07124579782334672
1269.0,0.07196279359311708
1268.0,0.07278366940873537
1267.0,0.07360609973031784
1266.0,0.07443009045662374
1265.0,0.07525564752005143
1264.0,0.07608277688689435
1263.0,0.07691148455760066
1262.0,0.07763790321520991
1261.0,0.07826151631540124
1260.0,0.07883394936226118
1259.0,0.07930286553008004
1258.0,0.07972010536705154
1257.0,0.08003329851661278
1256.0,0.08039897621588898
1255.0,0.08076496207674921
1254.0,0.08113125661901543
1253.0,0.08144546944972642
1252.0,0.08175990977858505
1251.0,0.08207457793525874
1250.0,0.0823369756726251
1249.0,0.08265206237222844
1248.0,0.08296737783760655
1247.0,0.08328292240118751
1246.0,0.08359869639612438
1245.0,0.0839147001562972
1244.0,0.08417821237960132
1243.0,0.08449463824562353
1242.0,0.08475850269380558
1241.0,0.08502252755566908
1240.0,0.08528671302637614
1239.0,0.08555105930144569
1238.0,0.08576265223225898
1237.0,0.08592141461088798
1236.0,0.08597434830367123
1235.0,0.08608023504853413
1234.0,0.0861331881037608
1233.0,0.086239113587677
1232.0,0.0862920860195171
1231.0,0.08634506491338012
1230.0,0.08634506491338012
1229.0,0.08639805027084257
1228.0,0.08650404038287651
1227.0,0.08661005636824437
1226.0,0.08666307406737683
1225.0,0.0867160982395816
1224.0,0.0867160982395816
1223.0,0.0867691288864394
1222.0,0.08682216600953208
1221.0,0.08687520961044104
1220.0,0.08692825969074924
1219.0,0.08698131625203986
1218.0,0.08687520961044104
1217.0,0.0867160982395816
1216.0,0.08661005636824437
1215.0,0.08650404038287651
1214.0,0.08645104209348209
1213.0,0.08645104209348209
1212.0,0.08645104209348209
1211.0,0.08655704514060414
1210.0,0.08666307406737683
1209.0,0.08682216600953208
1208.0,0.08708744882390307
1207.0,0.08745911720936239
1206.0,0.08783110394037297
1205.0,0.08820340956274775
1204.0,0.08857603462370545
1203.0,0.08884239126002336
1202.0,0.08905559425002108
1201.0,0.08916223500731646
1200.0,0.08916223500731646
1199.0,0.08894897967187343
1198.0,0.0885227828938977
1197.0,0.08788427092114603
1196.0,0.08708744882390307
1195.0,0.0861331881037608
1194.0,0.08507535179485148
1193.0,0.0839147001562972
1192.0,0.08265206237222844
1191.0,0.08144546944972642
1190.0,0.08018997982980403
1189.0,0.079094395835976
1188.0,0.07805354577058976
1187.0,0.0772226580712021
1186.0,0.07644514193245056
1185.0,0.07582412969807906
1184.0,0.07530729697981409
1183.0,0.07489427319033615
1182.0,0.07453319930846214
1181.0,0.07427547306393745
1180.0,0.07412091069849924
1179.0,0.07406940213152868
1178.0,0.07417242537525759
1177.0,0.07437854520917098
1176.0,0.07473949048056472
1175.0,0.07525564752005143
1174.0,0.07582412969807906
1173.0,0.07654873036034848
1172.0,0.07732643214144574
1171.0,0.07820951434181311
1170.0,0.07919861817434581
1169.0,0.08029446545087904
1168.0,0.08155025759884227
1167.0,0.08296737783760655
1166.0,0.08449463824562353
1165.0,0.08608023504853413
1164.0,0.08772478950118767
1163.0,0.08932224525729482
1162.0,0.09087205801073917
1161.0,0.09226626300234453
1160.0,0.09361107884716913
1159.0,0.09474395125154866
1158.0,0.09571734235437201
1157.0,0.0964759355287379
1156.0,0.09712721455392082
1155.0,0.09767069414168117
1154.0,0.09805153492691598
1153.0,0.09832376867362447
1152.0,0.09848719087006019
1151.0,0.09843270997155007
1150.0,0.09832376867362447
1149.0,0.09810596802617932
1148.0,0.0978882765519955
1147.0,0.09777947172068524
1146.0,0.09761631556752848
1145.0,0.09750757884139638
1144.0,0.09745322068600859
1143.0,0.09750757884139638
1142.0,0.09767069414168117
1141.0,0.0978882765519955
1140.0,0.09816040794877057
1139.0,0.09843270997155007
1138.0,0.09865067458435761
1137.0,0.09875969792669093
1136.0,0.09875969792669093
1135.0,0.09870518283443275
1134.0,0.09854167860388774
1133.0,0.09848719087006019
1132.0,0.09865067458435761
1131.0,0.09903237608087578
1130.0,0.09974214156222239
1129.0,0.10078158214862709
1128.0,0.10209812573177213
1127.0,0.10363915453068362
1126.0,0.1052410056281079
1125.0,0.10662666975397506
1124.0,0.10779405402422748
1123.0,0.10857405715200596
1122.0,0.10907622851098608
1121.0,0.10941133229451272
1120.0,0.10969078310005154
1119.0,0.10997041383658313
1118.0,0.11019424813191447
1117.0,0.11036219959333216
1116.0,0.1106422631110684
1115.0,0.11097857790477517
1114.0,0.11137127461477392
1113.0,0.1117081546434846
1112.0,0.11210151190312767
1111.0,0.11243895906999102
1110.0,0.11277666863747693
1109.0,0.11305829401658474
1108.0,0.1133401021387972
1107.0,0.11367851344052027
1106.0,0.11396072443355765
1105.0,0.11435612816423602
1104.0,0.1148084593931522
1103.0,0.11537453674376552
1102.0,0.11594135290606156
1101.0,0.1165657063169907
1100.0,0.11724784438692004
1099.0,0.11787408022996826
1098.0,0.11844417020668851
1097.0,0.11907213473291511
1096.0,0.11975822410451964
1095.0,0.12033079436794658
1094.0,0.12084675381575383
1093.0,0.12119106764079435
1092.0,0.12142076193778073
1091.0,0.12165057778222454
1090.0,0.12182301950849372
1089.0,0.1219955297319748
1088.0,0.12216810850710624
1087.0,0.12251347193039863
1086.0,0.12291674334934943
1085.0,0.12343578601615435
1084.0,0.12412880927263426
1083.0,0.1248808345374317
1082.0,0.12563416426995122
1081.0,0.1263307072932056
1080.0,0.12702836926155658
1079.0,0.1276688787697493
1078.0,0.1281352979118051
1077.0,0.12842706445412122
1076.0,0.1286022185125162
1075.0,0.12854382597704617
1074.0,0.1283103343144847
1073.0,0.12790202572577325
1072.0,0.12743585690934855
1071.0,0.12691201440971422
1070.0,0.1263307072932056
1069.0,0.12557616941349803
1068.0,0.1248808345374317
1067.0,0.12430223801979201
1066.0,0.12383991517437187
1065.0,0.12355121312165873
1064.0,0.12343578601615435
1063.0,0.12343578601615435
1062.0,0.12349349573411894
1061.0,0.12355121312165873
1060.0,0.12355121312165873
1059.0,0.12355121312165873
1058.0,0.12343578601615435
1057.0,0.12337808396572703
1056.0,0.12337808396572703
1055.0,0.12343578601615435
1054.0,0.12349349573411894
1053.0,0.12349349573411894
1052.0,0.12355121312165873
1051.0,0.12360893818081231
1050.0,0.1236666709136196
1049.0,0.12372441132212098
1048.0,0.12383991517437187
1047.0,0.12401322857151209
1046.0,0.12424442074194553
1045.0,0.12453358413361437
1044.0,0.125054563914468
1043.0,0.12563416426995122
1042.0,0.12621453918179926
1041.0,0.12685384867174432
1040.0,0.12749410065407507
1039.0,0.1281352979118051
1038.0,0.12877744324029283
1037.0,0.12942053944731513
1036.0,0.13018179202067182
1035.0,0.13106182166708868
1034.0,0.13194363817695853
1033.0,0.13276828548110586
1032.0,0.13359450162194508
1031.0,0.13424477592854833
1030.0,0.13471831500438958
1029.0,0.13489602535887202
1028.0,0.1349552783069008
1027.0,0.1349552783069008
1026.0,0.13489602535887202
1025.0,0.13483678049391368
1024.0,0.134659094375416
1023.0,0.13436311230037123
1022.0,0.13388996015562338
1021.0,0.13335827943396006
1020.0,0.13294519952329842
1019.0,0.13259144347720886
1018.0,0.1322379753497993
1017.0,0.1318847946727828
1016.0,0.1314731132317961
1015.0,0.1311205537629121
1014.0,0.13070959579060148
1013.0,0.13018179202067182
1012.0,0.12953756841108
1011.0,0.1287190271420271
1010.0,0.1277271537757949
1009.0,0.126621263590859
1008.0,0.12546020292898974
1007.0,0.12430223801979201
1006.0,0.12303203256741524
1005.0,0.12170805075020397
1004.0,0.1203880929341492
1003.0,0.11907213473291511
1002.0,0.11781711236973003
1001.0,0.11662251025166115
1000.0,0.11543118508166672
999.0,0.11435612816423602
998.0,0.11328372588352176
997.0,0.11227020271196975
996.0,0.11120293254331926
995.0,0.11019424813191447
994.0,0.10913206118855912
993.0,0.10796107965870849
992.0,0.10673771411200872
991.0,0.10546241500425357
990.0,0.10408045468998406
989.0,0.10259286033841963
988.0,0.10100072911021085
987.0,0.09941441335003853
986.0,0.0978882765519955
985.0,0.09642170633694569
984.0,0.09512223303659528
983.0,0.09404230090757282
982.0,0.09307265269104414
981.0,0.0922125568893839
980.0,0.09140776115243066
979.0,0.09065796163869155
978.0,0.0900163050601559
977.0,0.08948231448273347
976.0,0.08910891135547172
975.0,0.08878910686244668
974.0,0.08857603462370545
973.0,0.08836306687055773
972.0,0.0881502035005799
971.0,0.08793744441149753
970.0,0.08772478950118767
969.0,0.08740600224789441
968.0,0.08698131625203986
967.0,0.08650404038287651
966.0,0.08597434830367123
965.0,0.08549817717268593
964.0,0.08496970974083906
963.0,0.08449463824562353
962.0,0.08396738981143059
961.0,0.08359869639612438
960.0,0.08333553545860273
959.0,0.08328292240118751
958.0,0.08328292240118751
957.0,0.0832303157168639
956.0,0.08317771540408803
955.0,0.0830725338870073
954.0,0.08286224724355584
953.0,0.08254700807033655
952.0,0.08207457793525874
951.0,0.08144546944972642
950.0,0.08066036321258663
949.0,0.07987667370927598
948.0,0.07904229404455076
947.0,0.07826151631540124
946.0,0.07758597585436577
945.0,0.07691148455760066
944.0,0.07634157820669385
943.0,0.07592757008963713
942.0,0.07551395626608493
941.0,0.07520400420208784
940.0,0.07499749231902242
939.0,0.07489427319033615
938.0,0.07479107858799638
937.0,0.07468790850035045
936.0,0.07463633264589853
935.0,0.07463633264589853
934.0,0.07463633264589853
933.0,0.07458476291575367
932.0,0.07458476291575367
931.0,0.07453319930846214
930.0,0.07453319930846214
929.0,0.07448164182257
928.0,0.07443009045662374
927.0,0.07443009045662374
926.0,0.07443009045662374
925.0,0.07453319930846214
924.0,0.07458476291575367
923.0,0.07468790850035045
922.0,0.07479107858799638
921.0,0.07489427319033615
920.0,0.07504911108438939
919.0,0.07520400420208784
918.0,0.07530729697981409
917.0,0.07525564752005143
916.0,0.07515236702446293
915.0,0.07499749231902242
914.0,0.0748426728241014
913.0,0.07468790850035045
912.0,0.07453319930846214
911.0,0.07443009045662374
910.0,0.07432700607875953
909.0,0.07427547306393745
908.0,0.07412091069849924
907.0,0.07401789967289685
906.0,0.07396640332115534
905.0,0.07396640332115534
904.0,0.07396640332115534
903.0,0.07391491307485598
902.0,0.07381195089279391
901.0,0.07370901311513656
900.0,0.07355465218161061
899.0,0.0734517753643813
898.0,0.07334892291111106
897.0,0.07319468988839395
896.0,0.07309189829456408
895.0,0.07288638806623937
894.0,0.07262963696097646
893.0,0.07242434530888953
892.0,0.07221915065262552
891.0,0.07206531825882068
890.0,0.07191154033502922
889.0,0.0716553647351379
888.0,0.07139934015547578
887.0,0.0710411591191702
886.0,0.07073438174693436
885.0,0.07047889936889606
884.0,0.07032568205141221
883.0,0.07017251876930874
882.0,0.07007043991541217
881.0,0.0699173666076287
880.0,0.06971335275448043
879.0,0.06956040523329987
878.0,0.06945847013556561
877.0,0.06940751155740177
876.0,0.06950943469373039
875.0,0.06961138175567827
874.0,0.06966236426227002
873.0,0.06976434723371505
872.0,0.06986635415888243
871.0,0.06996838504902692
870.0,0.07001940948448526
869.0,0.07007043991541217
868.0,0.07012147634321675
867.0,0.07022356719509815
866.0,0.07032568205141221
865.0,0.07047889936889606
864.0,0.07063217075990047
863.0,0.07078549626260622
862.0,0.07093887591523451
861.0,0.0710411591191702
860.0,0.07119462910671581
859.0,0.07139934015547578
858.0,0.07170658776779781
857.0,0.0720140529005715
856.0,0.07232173586200852
855.0,0.0725783049495814
854.0,0.07283502570063005
853.0,0.07304051161972436
852.0,0.07319468988839395
851.0,0.07334892291111106
850.0,0.0734517753643813
849.0,0.07355465218161061
848.0,0.07370901311513656
847.0,0.07391491307485598
846.0,0.07417242537525759
845.0,0.07448164182257
844.0,0.07468790850035045
843.0,0.07489427319033615
842.0,0.07499749231902242
841.0,0.07520400420208784
840.0,0.07546228222451012
839.0,0.07572071393811841
838.0,0.07592757008963713
837.0,0.0760310351245288
836.0,0.07618627890881036
835.0,0.0763933569825408
834.0,0.07665234350217442
833.0,0.07691148455760066
832.0,0.07711890879170658
831.0,0.07732643214144574
830.0,0.07753405470158659
829.0,0.07779372256098371
828.0,0.07810552907089763
827.0,0.07846958649875768
826.0,0.07878187880504961
825.0,0.07899019850296574
824.0,0.079094395835976
823.0,0.07919861817434581
822.0,0.07935499859321249
821.0,0.07951143534170213
820.0,0.07961575782164254
819.0,0.07972010536705154
818.0,0.07977228854307139
817.0,0.07982447798997727
816.0,0.07998108397108505
815.0,0.08024221949810584
814.0,0.08060807322614072
813.0,0.08107890990866418
812.0,0.08144546944972642
811.0,0.08175990977858505
810.0,0.08186477383364066
809.0,0.08196966321511989
808.0,0.08207457793525874
807.0,0.08217951800630297
806.0,0.08223199755224364
805.0,0.0823369756726251
804.0,0.08249449044745338
803.0,0.08270459905431071
802.0,0.08296737783760655
801.0,0.08317771540408803
800.0,0.08344078069888616
799.0,0.08375666953466032
798.0,0.08412549714230844
797.0,0.08460016478773014
796.0,0.08502252755566908
795.0,0.08533956941077814
794.0,0.08555105930144569
793.0,0.0856568428805593
792.0,0.08570974433405087
791.0,0.08576265223225898
790.0,0.08586848736910624
789.0,0.08618614761628329
788.0,0.08666307406737683
787.0,0.08719360733870762
786.0,0.08761850108119962
785.0,0.08783110394037297
784.0,0.08799062441302175
783.0,0.0881502035005799
782.0,0.08857603462370545
781.0,0.08916223500731646
780.0,0.08985603893548699
779.0,0.09044397075882471
778.0,0.0908185240221473
777.0,0.09108625997902897
776.0,0.09130056764777605
775.0,0.09156860103399356
774.0,0.09189045960744768
773.0,0.0922125568893839
772.0,0.09269615116603047
771.0,0.09328794305703592
770.0,0.09388054245443844
769.0,0.09447395156495153
768.0,0.09506817260434741
767.0,0.09560907998763835
766.0,0.09620485725896466
765.0,0.09680145295702158
764.0,0.09750757884139638
763.0,0.09805153492691598
762.0,0.09854167860388774
761.0,0.09886874864462802
760.0,0.09919606518963042
759.0,0.09952362861074304
758.0,0.09979678698310646
757.0,0.10001543745060903
756.0,0.10039834085387778
755.0,0.10089114180660053
754.0,0.10149421446564144
753.0,0.10204318999304807
752.0,0.10259286033841963
751.0,0.10303309806684524
750.0,0.10341867249426717
749.0,0.1038045895457893
748.0,0.10430127304069425
747.0,0.10479852522110678
746.0,0.10518567091669917
745.0,0.10551778498990938
744.0,0.10579474085791629
743.0,0.10612732120491852
742.0,0.10646015643533868
741.0,0.10673771411200872
740.0,0.10707101764479421
739.0,0.10734896612269962
738.0,0.10762709260156367
737.0,0.10779405402422748
736.0,0.10796107965870849
735.0,0.10812816955441629
734.0,0.10840679565103484
733.0,0.10862982530385179
732.0,0.10890877353227624
731.0,0.10907622851098608
730.0,0.10907622851098608
729.0,0.10902040301031102
728.0,0.10918790104487552
727.0,0.10963487855187593
726.0,0.11013827874181148
725.0,0.1106422631110684
724.0,0.11114683301706374
723.0,0.11182050608167504
722.0,0.1125514997500463
721.0,0.1133401021387972
720.0,0.11396072443355765
719.0,0.11424311893073247
718.0,0.11435612816423602
717.0,0.11463877996848804
716.0,0.11531789579397489
715.0,0.11622503864474187
714.0,0.11713408027837091
713.0,0.11787408022996826
712.0,0.11850122038501709
711.0,0.11907213473291511
710.0,0.11947222180119477
709.0,0.1199871616332282
708.0,0.12067469921519258
707.0,0.12159311241900439
706.0,0.12262865413022594
705.0,0.12372441132212098
704.0,0.12470717462899183
703.0,0.12546020292898974
702.0,0.12575017722159698
701.0,0.12575017722159698
700.0,0.12575017722159698
699.0,0.12586622117202761
698.0,0.12621453918179926
697.0,0.12685384867174432
696.0,0.12790202572577325
695.0,0.1290696416513042
694.0,0.12988884463559924
693.0,0.13018179202067182
692.0,0.13018179202067182
691.0,0.13000599987825812
690.0,0.12983027886355947
689.0,0.12965462891904034
688.0,0.1295960947209729
687.0,0.12971317100740865
686.0,0.12977172098820566
685.0,0.12977172098820566
684.0,0.12994741830645506
683.0,0.13018179202067182
682.0,0.1305922506177981
681.0,0.13094438129809216
680.0,0.13135556160517425
679.0,0.13153190097901324
678.0,0.1312967977214634
677.0,0.13100309751286465
676.0,0.13094438129809216
675.0,0.1312967977214634
674.0,0.13212021654162043
673.0,0.1331221856625011
672.0,0.13353543402825974
671.0,0.13247358880025661
670.0,0.12971317100740865
669.0,0.12586622117202761
668.0,0.12407101507707297
667.0,0.12702836926155658
666.0,0.13159069668503998
665.0,0.13406733180681396
664.0,0.1352516643703412
663.0,0.136142038116027
662.0,0.13715334001706125
661.0,0.13822670328130693
660.0,0.13936258322624528
659.0,0.14062149557439896
658.0,0.14170347546611461
657.0,0.14224547794055775
656.0,0.1423660148499919
655.0,0.14212497447643746
654.0,0.1419442819496357
653.0,0.14218522202899342
652.0,0.1427881576831076
651.0,0.14333151638846497
650.0,0.14315032127482774
649.0,0.1427278264359586
648.0,0.14296920172737604
647.0,0.143996546002779
646.0,0.14520830594601453
645.0,0.14630178822382556
644.0,0.1471541819850033
643.0,0.14800825203784274
642.0,0.14874165128092476
641.0,0.1493537648169334
640.0,0.15002808767114995
639.0,0.1509493094304879
638.0,0.15224231160766877
637.0,0.1540961611012175
636.0,0.15633127702085625
635.0,0.1583902878315646
634.0,0.15958022226351387
633.0,0.159956669396506
632.0,0.159956669396506
631.0,0.15926676538819318
630.0,0.15801519540988607
629.0,0.15676722190199066
628.0,0.1562690348879079
627.0,0.1565180569600424
626.0,0.15701652987778258
625.0,0.1577028656719348
624.0,0.15870311250971825
623.0,0.15989390554324223
622.0,0.16083631708534996
621.0,0.16165473122400909
620.0,0.16285365609093994
619.0,0.16449967213268124
618.0,0.166151950468852
617.0,0.1674910872937636
616.0,0.16845014800424418
615.0,0.16889843549864048
614.0,0.16889843549864048
613.0,0.1686422145579325
612.0,0.16845014800424418
611.0,0.1683221508085333
610.0,0.16825816635436186
609.0,0.16883436609055757
608.0,0.17024608107502504
607.0,0.1721785723171978
606.0,0.17360121781238225
605.0,0.17431429197824166
604.0,0.17457388223217696
603.0,0.17444406770964305
602.0,0.17386038206408516
601.0,0.17340694606595197
600.0,0.17347169365934856
