cm-1,A
4000.0,0.00021720154586435392
3999.0,0.00026065489343207737
3998.0,0.00030411258916074324
3997.0,0.00030411258916074324
3996.0,0.0003475746339209884
3995.0,0.00043451177401765406
3994.0,0.000521466320689834
3993.0,0.0005649501236701937
3992.0,0.0005649501236701937
3991.0,0.0004779868710962365
3990.0,0.0003910410285830057
3989.0,0.0003475746339209884
3988.0,0.0003910410285830057
3987.0,0.00043451177401765406
3986.0,0.00043451177401765406
3985.0,0.00043451177401765406
3984.0,0.0003910410285830057
3983.0,0.00030411258916074324
3982.0,0.00026065489343207737
3981.0,0.00026065489343207737
3980.0,0.00026065489343207737
3979.0,0.00030411258916074324
3978.0,0.0003475746339209884
3977.0,0.00043451177401765406
3976.0,0.000521466320689834
3975.0,0.0005649501236701937
3974.0,0.000521466320689834
3973.0,0.00043451177401765406
3972.0,0.00026065489343207737
3971.0,8.686758342868472e-05
3970.0,4.343161980746579e-05
3969.0,4.343161980746579e-05
3968.0,0.0001303078917322953
3967.0,0.00021720154586435392
3966.0,0.00021720154586435392
3965.0,0.00021720154586435392
3964.0,0.00026065489343207737
3963.0,0.00026065489343207737
3962.0,0.00030411258916074324
3961.0,0.00026065489343207737
3960.0,0.00017375254558760211
3959.0,0.0001303078917322953
3958.0,8.686758342868472e-05
3957.0,0.0001303078917322953
3956.0,0.00017375254558760211
3955.0,0.00026065489343207737
3954.0,0.0003475746339209884
3953.0,0.0003910410285830057
3952.0,0.00043451177401765406
3951.0,0.0003910410285830057
3950.0,0.0003910410285830057
3949.0,0.0003910410285830057
3948.0,0.00043451177401765406
3947.0,0.000521466320689834
3946.0,0.0005649501236701937
3945.0,0.000521466320689834
3944.0,0.0004779868710962365
3943.0,0.0003910410285830057
3942.0,0.0003475746339209884
3941.0,0.0003475746339209884
3940.0,0.0003475746339209884
3939.0,0.0003475746339209884
3938.0,0.0003910410285830057
3937.0,0.0003475746339209884
3936.0,0.0003475746339209884
3935.0,0.00030411258916074324
3934.0,0.0003475746339209884
3933.0,0.0003910410285830057
3932.0,0.0004779868710962365
3931.0,0.000521466320689834
3930.0,0.000521466320689834
3929.0,0.00043451177401765406
3928.0,0.0003475746339209884
3927.0,0.00026065489343207737
3926.0,0.00026065489343207737
3925.0,0.00030411258916074324
3924.0,0.00043451177401765406
3923.0,0.000521466320689834
3922.0,0.0006084382809090627
3921.0,0.0006519307932786322
3920.0,0.0006519307932786322
3919.0,0.0006954276616513155
3918.0,0.0006519307932786322
3917.0,0.0006084382809090627
3916.0,0.0004779868710962365
3915.0,0.00026065489343207737
3914.0,0.0001303078917322953
3913.0,0.0
3912.0,4.343161980746579e-05
3911.0,0.0001303078917322953
3910.0,0.00030411258916074324
3909.0,0.00043451177401765406
3908.0,0.0005649501236701937
3907.0,0.0006519307932786322
3906.0,0.0006954276616513155
3905.0,0.0006954276616513155
3904.0,0.0007389288868995258
3903.0,0.0007389288868995258
3902.0,0.0007389288868995258
3901.0,0.0007389288868995258
3900.0,0.0006954276616513155
3899.0,0.0006519307932786322
3898.0,0.0005649501236701937
3897.0,0.0005649501236701937
3896.0,0.000521466320689834
3895.0,0.000521466320689834
3894.0,0.00043451177401765406
3893.0,0.0003910410285830057
3892.0,0.0003910410285830057
3891.0,0.0004779868710962365
3890.0,0.0005649501236701937
3889.0,0.0005649501236701937
3888.0,0.0005649501236701937
3887.0,0.0005649501236701937
3886.0,0.0006954276616513155
3885.0,0.0008259444115150671
3884.0,0.000869458712629001
3883.0,0.0007824344698965646
3882.0,0.0007389288868995258
3881.0,0.0007389288868995258
3880.0,0.0007389288868995258
3879.0,0.0007389288868995258
3878.0,0.0006084382809090627
3877.0,0.000521466320689834
3876.0,0.000521466320689834
3875.0,0.0006084382809090627
3874.0,0.0007389288868995258
3873.0,0.0007389288868995258
3872.0,0.0005649501236701937
3871.0,0.0003910410285830057
3870.0,0.0003910410285830057
3869.0,0.000521466320689834
3868.0,0.0006954276616513155
3867.0,0.0006954276616513155
3866.0,0.0006519307932786322
3865.0,0.0005649501236701937
3864.0,0.000521466320689834
3863.0,0.0005649501236701937
3862.0,0.0005649501236701937
3861.0,0.0005649501236701937
3860.0,0.0005649501236701937
3859.0,0.0006519307932786322
3858.0,0.0007389288868995258
3857.0,0.0007824344698965646
3856.0,0.0006954276616513155
3855.0,0.0006084382809090627
3854.0,0.0006519307932786322
3853.0,0.0007824344698965646
3852.0,0.0007824344698965646
3851.0,0.0006519307932786322
3850.0,0.000521466320689834
3849.0,0.0004779868710962365
3848.0,0.00043451177401765406
3847.0,0.00043451177401765406
3846.0,0.0003910410285830057
3845.0,0.00030411258916074324
3844.0,0.00026065489343207737
3843.0,0.0003475746339209884
3842.0,0.00043451177401765406
3841.0,0.0005649501236701937
3840.0,0.0006084382809090627
3839.0,0.0006084382809090627
3838.0,0.0005649501236701937
3837.0,0.000521466320689834
3836.0,0.0004779868710962365
3835.0,0.0004779868710962365
3834.0,0.00043451177401765406
3833.0,0.0003910410285830057
3832.0,0.0003475746339209884
3831.0,0.00026065489343207737
3830.0,0.00021720154586435392
3829.0,0.00026065489343207737
3828.0,0.0003475746339209884
3827.0,0.00043451177401765406
3826.0,0.0004779868710962365
3825.0,0.0003910410285830057
3824.0,0.00021720154586435392
3823.0,4.343161980746579e-05
3822.0,0.0001303078917322953
3821.0,0.00043451177401765406
3820.0,0.0006954276616513155
3819.0,0.000869458712629001
3818.0,0.000869458712629001
3817.0,0.0008259444115150671
3816.0,0.000869458712629001
3815.0,0.000869458712629001
3814.0,0.0007824344698965646
3813.0,0.0006954276616513155
3812.0,0.0005649501236701937
3811.0,0.000521466320689834
3810.0,0.00043451177401765406
3809.0,0.0003910410285830057
3808.0,0.00043451177401765406
3807.0,0.0005649501236701937
3806.0,0.0006954276616513155
3805.0,0.0007389288868995258
3804.0,0.0006084382809090627
3803.0,0.0004779868710962365
3802.0,0.0005649501236701937
3801.0,0.0007389288868995258
3800.0,0.000869458712629001
3799.0,0.0008259444115150671
3798.0,0.0007389288868995258
3797.0,0.0006519307932786322
3796.0,0.0006084382809090627
3795.0,0.0005649501236701937
3794.0,0.0004779868710962365
3793.0,0.0003910410285830057
3792.0,0.00030411258916074324
3791.0,0.00026065489343207737
3790.0,0.00026065489343207737
3789.0,0.00026065489343207737
3788.0,0.00026065489343207737
3787.0,0.00026065489343207737
3786.0,0.00021720154586435392
3785.0,0.00017375254558760211
3784.0,0.00021720154586435392
3783.0,0.00026065489343207737
3782.0,0.00026065489343207737
3781.0,0.00030411258916074324
3780.0,0.00030411258916074324
3779.0,0.00030411258916074324
3778.0,0.00026065489343207737
3777.0,0.00017375254558760211
3776.0,0.0001303078917322953
3775.0,0.0001303078917322953
3774.0,0.00021720154586435392
3773.0,0.0003475746339209884
3772.0,0.0004779868710962365
3771.0,0.0005649501236701937
3770.0,0.0006519307932786322
3769.0,0.0006519307932786322
3768.0,0.0006084382809090627
3767.0,0.0005649501236701937
3766.0,0.000521466320689834
3765.0,0.0005649501236701937
3764.0,0.0005649501236701937
3763.0,0.0005649501236701937
3762.0,0.000521466320689834
3761.0,0.000521466320689834
3760.0,0.0005649501236701937
3759.0,0.0006084382809090627
3758.0,0.0005649501236701937
3757.0,0.0005649501236701937
3756.0,0.0005649501236701937
3755.0,0.0006084382809090627
3754.0,0.0006519307932786322
3753.0,0.0007389288868995258
3752.0,0.000869458712629001
3751.0,0.0010000277816797354
3750.0,0.0010435595295137379
3749.0,0.0010435595295137379
3748.0,0.0010870956412141197
3747.0,0.0010435595295137379
3746.0,0.0010000277816797354
3745.0,0.0010000277816797354
3744.0,0.0010000277816797354
3743.0,0.0009129773741116676
3742.0,0.0008259444115150671
3741.0,0.0007824344698965646
3740.0,0.000869458712629001
3739.0,0.0009565003968372565
3738.0,0.0009565003968372565
3737.0,0.0009129773741116676
3736.0,0.0009565003968372565
3735.0,0.0010870956412141197
3734.0,0.0011741809597138886
3733.0,0.0011306361176557367
3732.0,0.0010435595295137379
3731.0,0.0009565003968372565
3730.0,0.000869458712629001
3729.0,0.0007824344698965646
3728.0,0.0007389288868995258
3727.0,0.0007824344698965646
3726.0,0.0009129773741116676
3725.0,0.0010435595295137379
3724.0,0.0010870956412141197
3723.0,0.0010000277816797354
3722.0,0.0009129773741116676
3721.0,0.0007389288868995258
3720.0,0.0006519307932786322
3719.0,0.0006084382809090627
3718.0,0.0006519307932786322
3717.0,0.0007389288868995258
3716.0,0.0007389288868995258
3715.0,0.0006084382809090627
3714.0,0.0003910410285830057
3713.0,0.00021720154586435392
3712.0,0.00021720154586435392
3711.0,0.0003475746339209884
3710.0,0.0004779868710962365
3709.0,0.000521466320689834
3708.0,0.0004779868710962365
3707.0,0.0004779868710962365
3706.0,0.000521466320689834
3705.0,0.0005649501236701937
3704.0,0.0006084382809090627
3703.0,0.0006084382809090627
3702.0,0.0006084382809090627
3701.0,0.0005649501236701937
3700.0,0.000521466320689834
3699.0,0.0004779868710962365
3698.0,0.0004779868710962365
3697.0,0.000521466320689834
3696.0,0.0006084382809090627
3695.0,0.0006519307932786322
3694.0,0.0006519307932786322
3693.0,0.0006519307932786322
3692.0,0.0006084382809090627
3691.0,0.0006519307932786322
3690.0,0.0006954276616513155
3689.0,0.0008259444115150671
3688.0,0.000869458712629001
3687.0,0.0008259444115150671
3686.0,0.0007824344698965646
3685.0,0.0006519307932786322
3684.0,0.0006084382809090627
3683.0,0.0005649501236701937
3682.0,0.0005649501236701937
3681.0,0.0006519307932786322
3680.0,0.0007824344698965646
3679.0,0.0009565003968372565
3678.0,0.0010435595295137379
3677.0,0.0011741809597138886
3676.0,0.0012612837441823288
3675.0,0.001304841688344327
3674.0,0.0012177301682640973
3673.0,0.0010000277816797354
3672.0,0.0007389288868995258
3671.0,0.0006084382809090627
3670.0,0.0006954276616513155
3669.0,0.0008259444115150671
3668.0,0.0008259444115150671
3667.0,0.0007824344698965646
3666.0,0.0006519307932786322
3665.0,0.0005649501236701937
3664.0,0.000521466320689834
3663.0,0.0004779868710962365
3662.0,0.0004779868710962365
3661.0,0.0005649501236701937
3660.0,0.0006084382809090627
3659.0,0.0006519307932786322
3658.0,0.0006519307932786322
3657.0,0.0006519307932786322
3656.0,0.0006954276616513155
3655.0,0.0008259444115150671
3654.0,0.0009129773741116676
3653.0,0.0010000277816797354
3652.0,0.0010435595295137379
3651.0,0.0011306361176557367
3650.0,0.0012177301682640973
3649.0,0.0012177301682640973
3648.0,0.0011306361176557367
3647.0,0.0009565003968372565
3646.0,0.0007824344698965646
3645.0,0.0006519307932786322
3644.0,0.000521466320689834
3643.0,0.0004779868710962365
3642.0,0.0004779868710962365
3641.0,0.0004779868710962365
3640.0,0.000521466320689834
3639.0,0.0004779868710962365
3638.0,0.00043451177401765406
3637.0,0.0003475746339209884
3636.0,0.0003475746339209884
3635.0,0.00043451177401765406
3634.0,0.0006084382809090627
3633.0,0.000869458712629001
3632.0,0.0010870956412141197
3631.0,0.0011741809597138886
3630.0,0.0012612837441823288
3629.0,0.001304841688344327
3628.0,0.0012177301682640973
3627.0,0.0010000277816797354
3626.0,0.0008259444115150671
3625.0,0.0006954276616513155
3624.0,0.0006519307932786322
3623.0,0.0006519307932786322
3622.0,0.0006519307932786322
3621.0,0.0006954276616513155
3620.0,0.0006954276616513155
3619.0,0.0007824344698965646
3618.0,0.0009129773741116676
3617.0,0.0010000277816797354
3616.0,0.0010435595295137379
3615.0,0.0010435595295137379
3614.0,0.0010435595295137379
3613.0,0.0010870956412141197
3612.0,0.0011306361176557367
3611.0,0.0011306361176557367
3610.0,0.0010870956412141197
3609.0,0.0010870956412141197
3608.0,0.0011306361176557367
3607.0,0.0012612837441823288
3606.0,0.001304841688344327
3605.0,0.0012612837441823288
3604.0,0.0011306361176557367
3603.0,0.0010435595295137379
3602.0,0.0010435595295137379
3601.0,0.0010435595295137379
3600.0,0.0010870956412141197
3599.0,0.0010435595295137379
3598.0,0.0010000277816797354
3597.0,0.0009565003968372565
3596.0,0.0009565003968372565
3595.0,0.0010000277816797354
3594.0,0.0010000277816797354
3593.0,0.0009565003968372565
3592.0,0.0009129773741116676
3591.0,0.0008259444115150671
3590.0,0.0007824344698965646
3589.0,0.0007389288868995258
3588.0,0.0008259444115150671
3587.0,0.0009129773741116676
3586.0,0.0009565003968372565
3585.0,0.0009565003968372565
3584.0,0.0009129773741116676
3583.0,0.000869458712629001
3582.0,0.000869458712629001
3581.0,0.000869458712629001
3580.0,0.0009565003968372565
3579.0,0.0010000277816797354
3578.0,0.0010435595295137379
3577.0,0.0010000277816797354
3576.0,0.0009129773741116676
3575.0,0.0009129773741116676
3574.0,0.0009565003968372565
3573.0,0.0010435595295137379
3572.0,0.0011741809597138886
3571.0,0.0012177301682640973
3570.0,0.0012177301682640973
3569.0,0.0011306361176557367
3568.0,0.0010435595295137379
3567.0,0.0010435595295137379
3566.0,0.0010870956412141197
3565.0,0.0010435595295137379
3564.0,0.0009129773741116676
3563.0,0.0008259444115150671
3562.0,0.0008259444115150671
3561.0,0.0009565003968372565
3560.0,0.0010870956412141197
3559.0,0.0011741809597138886
3558.0,0.0012177301682640973
3557.0,0.0012177301682640973
3556.0,0.001304841688344327
3555.0,0.0013919706849057079
3554.0,0.0014791171649619628
3553.0,0.0015226969634936083
3552.0,0.0015226969634936083
3551.0,0.0015226969634936083
3550.0,0.0014791171649619628
3549.0,0.0014355417390583547
3548.0,0.0013919706849057079
3547.0,0.001348404001626502
3546.0,0.001304841688344327
3545.0,0.0012177301682640973
3544.0,0.0011306361176557367
3543.0,0.0010435595295137379
3542.0,0.0010435595295137379
3541.0,0.0010435595295137379
3540.0,0.0010870956412141197
3539.0,0.0010870956412141197
3538.0,0.0010435595295137379
3537.0,0.0010870956412141197
3536.0,0.0011306361176557367
3535.0,0.0011741809597138886
3534.0,0.0011741809597138886
3533.0,0.0012177301682640973
3532.0,0.001304841688344327
3531.0,0.0013919706849057079
3530.0,0.0014791171649619628
3529.0,0.0014791171649619628
3528.0,0.0014791171649619628
3527.0,0.0014355417390583547
3526.0,0.0013919706849057079
3525.0,0.001304841688344327
3524.0,0.0012612837441823288
3523.0,0.0012612837441823288
3522.0,0.001304841688344327
3521.0,0.0013919706849057079
3520.0,0.0014355417390583547
3519.0,0.0014355417390583547
3518.0,0.0013919706849057079
3517.0,0.001304841688344327
3516.0,0.0012177301682640973
3515.0,0.0012177301682640973
3514.0,0.0012177301682640973
3513.0,0.001304841688344327
3512.0,0.001348404001626502
3511.0,0.0014355417390583547
3510.0,0.0014791171649619628
3509.0,0.0015226969634936083
3508.0,0.0015226969634936083
3507.0,0.0014355417390583547
3506.0,0.001348404001626502
3505.0,0.0012177301682640973
3504.0,0.0011741809597138886
3503.0,0.0012177301682640973
3502.0,0.001348404001626502
3501.0,0.0015226969634936083
3500.0,0.0016534626036355249
3499.0,0.0017842676290416026
3498.0,0.0018278780605593958
3497.0,0.0018278780605593958
3496.0,0.0018278780605593958
3495.0,0.0017842676290416026
3494.0,0.0017406615763013722
3493.0,0.0017406615763013722
3492.0,0.0017406615763013722
3491.0,0.0016534626036355249
3490.0,0.0015226969634936083
3489.0,0.001348404001626502
3488.0,0.0011741809597138886
3487.0,0.0010870956412141197
3486.0,0.0010870956412141197
3485.0,0.0011741809597138886
3484.0,0.001304841688344327
3483.0,0.0014355417390583547
3482.0,0.0014791171649619628
3481.0,0.0014355417390583547
3480.0,0.0013919706849057079
3479.0,0.0013919706849057079
3478.0,0.0013919706849057079
3477.0,0.0014791171649619628
3476.0,0.001609869681952425
3475.0,0.0017842676290416026
3474.0,0.001915112063444413
3473.0,0.0020459959305969555
3472.0,0.0020459959305969555
3471.0,0.0020023635919956817
3470.0,0.0018714928717336043
3469.0,0.0016970599014589638
3468.0,0.0015662811355310335
3467.0,0.0014791171649619628
3466.0,0.0014791171649619628
3465.0,0.0015226969634936083
3464.0,0.001609869681952425
3463.0,0.0017406615763013722
3462.0,0.0018278780605593958
3461.0,0.001915112063444413
3460.0,0.001915112063444413
3459.0,0.0018278780605593958
3458.0,0.0017842676290416026
3457.0,0.0016970599014589638
3456.0,0.0016534626036355249
3455.0,0.001609869681952425
3454.0,0.0016534626036355249
3453.0,0.0016534626036355249
3452.0,0.001609869681952425
3451.0,0.0015662811355310335
3450.0,0.0015662811355310335
3449.0,0.0016534626036355249
3448.0,0.0018278780605593958
3447.0,0.0019587356365717845
3446.0,0.0020459959305969555
3445.0,0.0020023635919956817
3444.0,0.001915112063444413
3443.0,0.0018278780605593958
3442.0,0.0017842676290416026
3441.0,0.0017842676290416026
3440.0,0.0017842676290416026
3439.0,0.0017406615763013722
3438.0,0.0016970599014589638
3437.0,0.001609869681952425
3436.0,0.0015662811355310335
3435.0,0.001609869681952425
3434.0,0.0016970599014589638
3433.0,0.0018278780605593958
3432.0,0.0018714928717336043
3431.0,0.0018714928717336043
3430.0,0.0017842676290416026
3429.0,0.0017406615763013722
3428.0,0.0017406615763013722
3427.0,0.0018278780605593958
3426.0,0.0019587356365717845
3425.0,0.002089632653256679
3424.0,0.0021769192542746563
3423.0,0.0021769192542746563
3422.0,0.002089632653256679
3421.0,0.0019587356365717845
3420.0,0.001915112063444413
3419.0,0.001915112063444413
3418.0,0.0020023635919956817
3417.0,0.0020459959305969555
3416.0,0.0020459959305969555
3415.0,0.0019587356365717845
3414.0,0.0018278780605593958
3413.0,0.0017406615763013722
3412.0,0.0017406615763013722
3411.0,0.0017842676290416026
3410.0,0.0018278780605593958
3409.0,0.0018714928717336043
3408.0,0.0018714928717336043
3407.0,0.0018278780605593958
3406.0,0.0017842676290416026
3405.0,0.0018278780605593958
3404.0,0.0018714928717336043
3403.0,0.0019587356365717845
3402.0,0.0020023635919956817
3401.0,0.0020459959305969555
3400.0,0.0021332737608552588
3399.0,0.0021769192542746563
3398.0,0.0022642234021015284
3397.0,0.0023078820582733695
3396.0,0.0022642234021015284
3395.0,0.0021332737608552588
3394.0,0.0019587356365717845
3393.0,0.0018278780605593958
3392.0,0.0017842676290416026
3391.0,0.0017406615763013722
3390.0,0.0016970599014589638
3389.0,0.0017406615763013722
3388.0,0.0017842676290416026
3387.0,0.0018714928717336043
3386.0,0.001915112063444413
3385.0,0.001915112063444413
3384.0,0.001915112063444413
3383.0,0.0018714928717336043
3382.0,0.0018714928717336043
3381.0,0.0017842676290416026
3380.0,0.0017406615763013722
3379.0,0.0016970599014589638
3378.0,0.0016970599014589638
3377.0,0.0016970599014589638
3376.0,0.0017406615763013722
3375.0,0.0017406615763013722
3374.0,0.0017842676290416026
3373.0,0.0017842676290416026
3372.0,0.0017842676290416026
3371.0,0.0018278780605593958
3370.0,0.0018278780605593958
3369.0,0.0018278780605593958
3368.0,0.0018278780605593958
3367.0,0.0018278780605593958
3366.0,0.0018714928717336043
3365.0,0.0019587356365717845
3364.0,0.0019587356365717845
3363.0,0.001915112063444413
3362.0,0.0017842676290416026
3361.0,0.0016970599014589638
3360.0,0.0016534626036355249
3359.0,0.0016970599014589638
3358.0,0.0018278780605593958
3357.0,0.001915112063444413
3356.0,0.001915112063444413
3355.0,0.001915112063444413
3354.0,0.001915112063444413
3353.0,0.001915112063444413
3352.0,0.0019587356365717845
3351.0,0.0020459959305969555
3350.0,0.0021332737608552588
3349.0,0.0022642234021015284
3348.0,0.0023078820582733695
3347.0,0.0022205691343961664
3346.0,0.002089632653256679
3345.0,0.001915112063444413
3344.0,0.0017842676290416026
3343.0,0.0017406615763013722
3342.0,0.0017406615763013722
3341.0,0.0017406615763013722
3340.0,0.0017842676290416026
3339.0,0.0018278780605593958
3338.0,0.0018714928717336043
3337.0,0.0018714928717336043
3336.0,0.0018714928717336043
3335.0,0.0018278780605593958
3334.0,0.0018278780605593958
3333.0,0.0018278780605593958
3332.0,0.0018714928717336043
3331.0,0.001915112063444413
3330.0,0.001915112063444413
3329.0,0.001915112063444413
3328.0,0.0018714928717336043
3327.0,0.0018714928717336043
3326.0,0.0018278780605593958
3325.0,0.0018278780605593958
3324.0,0.0017842676290416026
3323.0,0.0017406615763013722
3322.0,0.0016534626036355249
3321.0,0.001609869681952425
3320.0,0.0015662811355310335
3319.0,0.0015662811355310335
3318.0,0.001609869681952425
3317.0,0.0016970599014589638
3316.0,0.0016970599014589638
3315.0,0.0016970599014589638
3314.0,0.0016970599014589638
3313.0,0.0016534626036355249
3312.0,0.0016534626036355249
3311.0,0.0016970599014589638
3310.0,0.0017842676290416026
3309.0,0.0018714928717336043
3308.0,0.001915112063444413
3307.0,0.001915112063444413
3306.0,0.0018714928717336043
3305.0,0.0018278780605593958
3304.0,0.0017406615763013722
3303.0,0.0016970599014589638
3302.0,0.0017406615763013722
3301.0,0.0017842676290416026
3300.0,0.0018714928717336043
3299.0,0.001915112063444413
3298.0,0.001915112063444413
3297.0,0.0018714928717336043
3296.0,0.0018278780605593958
3295.0,0.0017842676290416026
3294.0,0.0017406615763013722
3293.0,0.0017406615763013722
3292.0,0.0017406615763013722
3291.0,0.0017842676290416026
3290.0,0.0017842676290416026
3289.0,0.0017842676290416026
3288.0,0.0017406615763013722
3287.0,0.0016970599014589638
3286.0,0.0016970599014589638
3285.0,0.0016970599014589638
3284.0,0.001609869681952425
3283.0,0.0015226969634936083
3282.0,0.0014355417390583547
3281.0,0.001348404001626502
3280.0,0.001304841688344327
3279.0,0.0012177301682640973
3278.0,0.0012177301682640973
3277.0,0.0012177301682640973
3276.0,0.001304841688344327
3275.0,0.0014355417390583547
3274.0,0.0015226969634936083
3273.0,0.0015662811355310335
3272.0,0.0015226969634936083
3271.0,0.0014791171649619628
3270.0,0.0014791171649619628
3269.0,0.0015226969634936083
3268.0,0.0015226969634936083
3267.0,0.0014791171649619628
3266.0,0.0014355417390583547
3265.0,0.001348404001626502
3264.0,0.001304841688344327
3263.0,0.0012177301682640973
3262.0,0.0011306361176557367
3261.0,0.0010870956412141197
3260.0,0.0011306361176557367
3259.0,0.0012612837441823288
3258.0,0.0014355417390583547
3257.0,0.0015226969634936083
3256.0,0.001609869681952425
3255.0,0.001609869681952425
3254.0,0.0015662811355310335
3253.0,0.0015662811355310335
3252.0,0.0015226969634936083
3251.0,0.0015226969634936083
3250.0,0.0014791171649619628
3249.0,0.0014355417390583547
3248.0,0.001348404001626502
3247.0,0.001348404001626502
3246.0,0.001348404001626502
3245.0,0.001304841688344327
3244.0,0.0012612837441823288
3243.0,0.0011741809597138886
3242.0,0.0011741809597138886
3241.0,0.0012177301682640973
3240.0,0.001304841688344327
3239.0,0.001348404001626502
3238.0,0.001348404001626502
3237.0,0.0012612837441823288
3236.0,0.0012177301682640973
3235.0,0.0011741809597138886
3234.0,0.0012177301682640973
3233.0,0.0012612837441823288
3232.0,0.0012612837441823288
3231.0,0.0012612837441823288
3230.0,0.0012177301682640973
3229.0,0.0011741809597138886
3228.0,0.0011306361176557367
3227.0,0.0010870956412141197
3226.0,0.0011306361176557367
3225.0,0.0011306361176557367
3224.0,0.0011741809597138886
3223.0,0.0012177301682640973
3222.0,0.0012177301682640973
3221.0,0.0011741809597138886
3220.0,0.0010870956412141197
3219.0,0.0010435595295137379
3218.0,0.0010000277816797354
3217.0,0.0010435595295137379
3216.0,0.0010870956412141197
3215.0,0.0011741809597138886
3214.0,0.0012612837441823288
3213.0,0.001304841688344327
3212.0,0.0013919706849057079
3211.0,0.0014355417390583547
3210.0,0.0014355417390583547
3209.0,0.0014791171649619628
3208.0,0.0015226969634936083
3207.0,0.0015226969634936083
3206.0,0.0015662811355310335
3205.0,0.001609869681952425
3204.0,0.001609869681952425
3203.0,0.0015662811355310335
3202.0,0.0014791171649619628
3201.0,0.0014355417390583547
3200.0,0.0014355417390583547
3199.0,0.0015662811355310335
3198.0,0.0016534626036355249
3197.0,0.0016970599014589638
3196.0,0.0016970599014589638
3195.0,0.0015662811355310335
3194.0,0.0014355417390583547
3193.0,0.0013919706849057079
3192.0,0.0013919706849057079
3191.0,0.0014791171649619628
3190.0,0.0015226969634936083
3189.0,0.0015226969634936083
3188.0,0.0014791171649619628
3187.0,0.0013919706849057079
3186.0,0.001304841688344327
3185.0,0.0012177301682640973
3184.0,0.0011306361176557367
3183.0,0.0010870956412141197
3182.0,0.0010000277816797354
3181.0,0.0009565003968372565
3180.0,0.000869458712629001
3179.0,0.000869458712629001
3178.0,0.0009129773741116676
3177.0,0.0010435595295137379
3176.0,0.0010870956412141197
3175.0,0.0011306361176557367
3174.0,0.0010870956412141197
3173.0,0.0010870956412141197
3172.0,0.0011306361176557367
3171.0,0.0011741809597138886
3170.0,0.0012177301682640973
3169.0,0.0012177301682640973
3168.0,0.0011741809597138886
3167.0,0.0011306361176557367
3166.0,0.0010000277816797354
3165.0,0.0009129773741116676
3164.0,0.000869458712629001
3163.0,0.0008259444115150671
3162.0,0.0007824344698965646
3161.0,0.0007389288868995258
3160.0,0.0007389288868995258
3159.0,0.0007389288868995258
3158.0,0.0007824344698965646
3157.0,0.0008259444115150671
3156.0,0.0008259444115150671
3155.0,0.0007824344698965646
3154.0,0.0007389288868995258
3153.0,0.0007389288868995258
3152.0,0.0007824344698965646
3151.0,0.0007824344698965646
3150.0,0.0008259444115150671
3149.0,0.000869458712629001
3148.0,0.0009129773741116676
3147.0,0.0010000277816797354
3146.0,0.0010000277816797354
3145.0,0.0010000277816797354
3144.0,0.0009129773741116676
3143.0,0.0007824344698965646
3142.0,0.0006519307932786322
3141.0,0.0005649501236701937
3140.0,0.000521466320689834
3139.0,0.000521466320689834
3138.0,0.0005649501236701937
3137.0,0.0006519307932786322
3136.0,0.0006954276616513155
3135.0,0.0007389288868995258
3134.0,0.0007389288868995258
3133.0,0.0007389288868995258
3132.0,0.0007389288868995258
3131.0,0.0007389288868995258
3130.0,0.0006954276616513155
3129.0,0.0005649501236701937
3128.0,0.00043451177401765406
3127.0,0.0003475746339209884
3126.0,0.0003475746339209884
3125.0,0.0003910410285830057
3124.0,0.00043451177401765406
3123.0,0.0003910410285830057
3122.0,0.0003475746339209884
3121.0,0.00030411258916074324
3120.0,0.00030411258916074324
3119.0,0.00030411258916074324
3118.0,0.0003475746339209884
3117.0,0.0003910410285830057
3116.0,0.0003910410285830057
3115.0,0.0003475746339209884
3114.0,0.00030411258916074324
3113.0,0.00030411258916074324
3112.0,0.00030411258916074324
3111.0,0.00030411258916074324
3110.0,0.00030411258916074324
3109.0,0.00026065489343207737
3108.0,0.00017375254558760211
3107.0,8.686758342868472e-05
3106.0,4.343161980746579e-05
3105.0,-4.3427276862573194e-05
3104.0,-4.3427276862573194e-05
3103.0,0.0
3102.0,4.343161980746579e-05
3101.0,4.343161980746579e-05
3100.0,0.0
3099.0,-8.685021164911433e-05
3098.0,-0.00013026880522692963
3097.0,-4.3427276862573194e-05
3096.0,4.343161980746579e-05
3095.0,0.0001303078917322953
3094.0,8.686758342868472e-05
3093.0,0.0
3092.0,-0.00013026880522692963
3091.0,-0.0002604985473904087
3090.0,-0.0003472966853634851
3089.0,-0.0003906892499099257
3088.0,-0.0003472966853634851
3087.0,-0.00030389978481260016
3086.0,-0.00030389978481260016
3085.0,-0.0002604985473904087
3084.0,-0.00021709297223004853
3083.0,-0.00013026880522692963
3082.0,-4.3427276862573194e-05
3081.0,-4.3427276862573194e-05
3080.0,-0.00013026880522692963
3079.0,-0.00021709297223004853
3078.0,-0.00030389978481260016
3077.0,-0.0003472966853634851
3076.0,-0.0003472966853634851
3075.0,-0.0003906892499099257
3074.0,-0.0003906892499099257
3073.0,-0.0003472966853634851
3072.0,-0.00030389978481260016
3071.0,-0.0002604985473904087
3070.0,-0.0002604985473904087
3069.0,-0.00030389978481260016
3068.0,-0.0003472966853634851
3067.0,-0.0003472966853634851
3066.0,-0.0003472966853634851
3065.0,-0.0003906892499099257
3064.0,-0.0003906892499099257
3063.0,-0.0003472966853634851
3062.0,-0.0002604985473904087
3061.0,-0.00017368305846510168
3060.0,-0.00017368305846510168
3059.0,-0.00021709297223004853
3058.0,-0.00030389978481260016
3057.0,-0.0003472966853634851
3056.0,-0.0003472966853634851
3055.0,-0.0003472966853634851
3054.0,-0.0003472966853634851
3053.0,-0.0003472966853634851
3052.0,-0.0003472966853634851
3051.0,-0.0003906892499099257
3050.0,-0.00043407747931878404
3049.0,-0.0004774613744551459
3048.0,-0.0004774613744551459
3047.0,-0.00043407747931878404
3046.0,-0.00043407747931878404
3045.0,-0.0004774613744551459
3044.0,-0.0005642161653756084
3043.0,-0.0006075870628903246
3042.0,-0.0006943158663546001
3041.0,-0.0007376737740329986
3040.0,-0.0007810273534953893
3039.0,-0.0008243766056055257
3038.0,-0.0007810273534953893
3037.0,-0.0007376737740329986
3036.0,-0.0006509536295951079
3035.0,-0.0005208409361854294
3034.0,-0.00043407747931878404
3033.0,-0.0003906892499099257
3032.0,-0.0003906892499099257
3031.0,-0.0003906892499099257
3030.0,-0.00043407747931878404
3029.0,-0.0004774613744551459
3028.0,-0.0005208409361854294
3027.0,-0.0005208409361854294
3026.0,-0.0004774613744551459
3025.0,-0.0004774613744551459
3024.0,-0.00043407747931878404
3023.0,-0.0003906892499099257
3022.0,-0.0003906892499099257
3021.0,-0.0003906892499099257
3020.0,-0.0003906892499099257
3019.0,-0.0003906892499099257
3018.0,-0.0003906892499099257
3017.0,-0.00043407747931878404
3016.0,-0.0005208409361854294
3015.0,-0.0006075870628903246
3014.0,-0.0006509536295951079
3013.0,-0.0006943158663546001
3012.0,-0.0006509536295951079
3011.0,-0.0005642161653756084
3010.0,-0.0004774613744551459
3009.0,-0.0003472966853634851
3008.0,-0.00030389978481260016
3007.0,-0.00021709297223004853
3006.0,-0.00017368305846510168
3005.0,-8.685021164911433e-05
3004.0,0.0
3003.0,0.0001303078917322953
3002.0,0.00017375254558760211
3001.0,0.00021720154586435392
3000.0,0.00030411258916074324
2999.0,0.0003910410285830057
2998.0,0.0005649501236701937
2997.0,0.0007824344698965646
2996.0,0.0010000277816797354
2995.0,0.0012612837441823288
2994.0,0.0015226969634936083
2993.0,0.0017842676290416026
2992.0,0.002089632653256679
2991.0,0.002482560585275184
2990.0,0.0029195645282691363
2989.0,0.0033570086445275926
2988.0,0.003794893821675638
2987.0,0.004277078004534696
2986.0,0.00484762310854614
2985.0,0.005506877116487674
2984.0,0.00625524344553785
2983.0,0.007137328610972382
2982.0,0.008109696063975047
2981.0,0.009261671492462709
2980.0,0.010505687227290839
2979.0,0.011931796607364653
2978.0,0.013496984613259544
2977.0,0.015247721884586563
2976.0,0.017367005605150476
2975.0,0.019769308608968306
2974.0,0.02255077261765881
2973.0,0.02562649291857677
2972.0,0.028956208163971375
2971.0,0.032592443402527316
2970.0,0.03649550058570927
2969.0,0.04076775094900409
2968.0,0.04522701031028298
2967.0,0.049927370249842395
2966.0,0.054728418492290265
2965.0,0.05938391766259232
2964.0,0.0636873663378068
2963.0,0.06747550294945781
2962.0,0.07047889936889606
2961.0,0.07273231918911849
2960.0,0.07443009045662374
2959.0,0.07592757008963713
2958.0,0.07784567476894111
2957.0,0.0805035121369384
2956.0,0.08423093401631587
2955.0,0.08894897967187343
2954.0,0.09441997176475758
2953.0,0.10001543745060903
2952.0,0.10490910306560064
2951.0,0.10823959854332843
2950.0,0.10941133229451272
2949.0,0.10796107965870849
2948.0,0.10408045468998406
2947.0,0.09821485469640057
2946.0,0.09119340059432579
2945.0,0.08380934001946239
2944.0,0.07680780957933253
2943.0,0.07073438174693436
2942.0,0.0658551882075229
2941.0,0.062331685600995
2940.0,0.0601813371786204
2939.0,0.05928434309333741
2938.0,0.0595831353183347
2937.0,0.06083032037482261
2936.0,0.06303410289212974
2935.0,0.06610796423578891
2934.0,0.06996838504902692
2933.0,0.07463633264589853
2932.0,0.07987667370927598
2931.0,0.0856568428805593
2930.0,0.09183679994445204
2929.0,0.09826930827078129
2928.0,0.10485381062400778
2927.0,0.11137127461477392
2926.0,0.11776015198117662
2925.0,0.12407101507707297
2924.0,0.13041629228657614
2923.0,0.13697470377052956
2922.0,0.14363367634075197
2921.0,0.15027355580367208
2920.0,0.15639352807548912
2919.0,0.16121385505340546
2918.0,0.16418264570652719
2917.0,0.16462654752999129
2916.0,0.16266413198498508
2915.0,0.158765704493959
2914.0,0.15360102696532518
2913.0,0.14800825203784274
2912.0,0.1425468829647336
2911.0,0.13751083309410284
2910.0,0.13294519952329842
2909.0,0.12883586719705065
2908.0,0.125054563914468
2907.0,0.12147820449879343
2906.0,0.11793105556385153
2905.0,0.11435612816423602
2904.0,0.11069829749368965
2903.0,0.1071265931112344
2902.0,0.10358402352687701
2901.0,0.10017949757290379
2900.0,0.09691001300805646
2899.0,0.09371884422784693
2898.0,0.09065796163869155
2897.0,0.0877779434675845
2896.0,0.08518101955252688
2895.0,0.08296737783760655
2894.0,0.08107890990866418
2893.0,0.07956359344924135
2892.0,0.07831352451639795
2891.0,0.07727454200674
2890.0,0.07654873036034848
2889.0,0.07608277688689435
2888.0,0.07587584681417514
2887.0,0.07587584681417514
2886.0,0.0759792995259323
2885.0,0.07623803917129979
2884.0,0.07670415934449615
2883.0,0.07743023101428781
2882.0,0.07841755960658348
2881.0,0.07956359344924135
2880.0,0.08060807322614072
2879.0,0.08139308485501817
2878.0,0.08160266115629988
2877.0,0.0812359689720008
2876.0,0.08055578953476306
2875.0,0.07992887570247587
2874.0,0.07961575782164254
2873.0,0.07982447798997727
2872.0,0.08045124103115198
2871.0,0.08149786036382611
2870.0,0.08280969148843575
2869.0,0.08417821237960132
2868.0,0.08518101955252688
2867.0,0.08528671302637614
2866.0,0.08412549714230844
2865.0,0.08149786036382611
2864.0,0.07763790321520991
2863.0,0.07304051161972436
2862.0,0.068389593637038
2861.0,0.06424089625468832
2860.0,0.060880282351513104
2859.0,0.05848856736559682
2858.0,0.0571489934456626
2857.0,0.05680236993107379
2856.0,0.05734718830678798
2855.0,0.058737090681050264
2854.0,0.06093025007657582
2853.0,0.0636873663378068
2852.0,0.0666645899223488
2851.0,0.06935655895783555
2850.0,0.07124579782334672
2849.0,0.07211658966929302
2848.0,0.07227044022834539
2847.0,0.07232173586200852
2846.0,0.07278366940873537
2845.0,0.07412091069849924
2844.0,0.07623803917129979
2843.0,0.0788860261633193
2842.0,0.08170748724464438
2841.0,0.08433639649422697
2840.0,0.0862920860195171
2839.0,0.08719360733870762
2838.0,0.08666307406737683
2837.0,0.08460016478773014
2836.0,0.08107890990866418
2835.0,0.0763933569825408
2834.0,0.0709900145060387
2833.0,0.06545105233385295
2832.0,0.0601813371786204
2831.0,0.05541863577307371
2830.0,0.05129369109514803
2829.0,0.0478374257855374
2828.0,0.044937930324967956
2827.0,0.04244059810252043
2826.0,0.0402909757535701
2825.0,0.038436537637930535
2824.0,0.03682628362474838
2823.0,0.035363296211498474
2822.0,0.03409308450480819
2821.0,0.032920265855503006
2820.0,0.03193753992355086
2819.0,0.031096969696171817
2818.0,0.03030458888152676
2817.0,0.029560137048236124
2816.0,0.028863370523193765
2815.0,0.028167720075074953
2814.0,0.027612000892527133
2813.0,0.027149444152769986
2812.0,0.026687379547098322
2811.0,0.026225806029419818
2810.0,0.025718641122169483
2809.0,0.02516604495145991
2808.0,0.02461415101053266
2807.0,0.02406295751688936
2806.0,0.023466619608062178
2805.0,0.022871099419317753
2804.0,0.02227639471115217
2803.0,0.021728158389364705
2802.0,0.021317434843055594
2801.0,0.020907099361673565
2800.0,0.02058821736556471
2799.0,0.020315076172974234
2798.0,0.02004210665933459
2797.0,0.019769308608968306
2796.0,0.019451260640229506
2795.0,0.0190880622231564
2794.0,0.018770512579999288
2793.0,0.018498511851753108
2792.0,0.018271974638383703
2791.0,0.018045555530026514
2790.0,0.017774008325325275
2789.0,0.017457417697056554
2788.0,0.017095882207371904
2787.0,0.01677978535189717
2786.0,0.01646391839700767
2785.0,0.016148281008528276
2784.0,0.015922966097169144
2783.0,0.015652742414136167
2782.0,0.015427684378367834
2781.0,0.015202742910707112
2780.0,0.015067833932588037
2779.0,0.014888020460646079
2778.0,0.014663358264387139
2777.0,0.014438812226654996
2776.0,0.014214382227394795
2775.0,0.013990068146738865
2774.0,0.01381070026317599
2773.0,0.013631406429727155
2772.0,0.013496984613259544
2771.0,0.013362604389846044
2770.0,0.013317820220494436
2769.0,0.013273040668781544
2768.0,0.01318349541446362
2767.0,0.013138729709955221
2766.0,0.013049212141483357
2765.0,0.012959713020733288
2764.0,0.012825498912458322
2763.0,0.012691326268817527
2762.0,0.012557195064198723
2761.0,0.012467797270160563
2760.0,0.012378417874516323
2759.0,0.012378417874516323
2758.0,0.012333735073725371
2757.0,0.012244383261476699
2756.0,0.01215504982870197
2755.0,0.0119764380713403
2754.0,0.011753276624621556
2753.0,0.011574829993696856
2752.0,0.011441043121384498
2751.0,0.011351874764248926
2750.0,0.011351874764248926
2749.0,0.011351874764248926
2748.0,0.011351874764248926
2747.0,0.011396456654336085
2746.0,0.011396456654336085
2745.0,0.011441043121384498
2744.0,0.011396456654336085
2743.0,0.011396456654336085
2742.0,0.011441043121384498
2741.0,0.011485634166333858
2740.0,0.011619434777991433
2739.0,0.011753276624621556
2738.0,0.011842527443247208
2737.0,0.011931796607364653
2736.0,0.0119764380713403
2735.0,0.012021084124518078
2734.0,0.012021084124518078
2733.0,0.012110390002254778
2732.0,0.012244383261476699
2731.0,0.012423105273012602
2730.0,0.01260190086298274
2729.0,0.012736045877764557
2728.0,0.012914970375878188
2727.0,0.013049212141483357
2726.0,0.013273040668781544
2725.0,0.013452186585275916
2724.0,0.013631406429727155
2723.0,0.013765869865004277
2722.0,0.01381070026317599
2721.0,0.013765869865004277
2720.0,0.013586594534531482
2719.0,0.013362604389846044
2718.0,0.013049212141483357
2717.0,0.012736045877764557
2716.0,0.012423105273012602
2715.0,0.01215504982870197
2714.0,0.011931796607364653
2713.0,0.011708658092512314
2712.0,0.011485634166333858
2711.0,0.011262724711199823
2710.0,0.011084479487313281
2709.0,0.010995384301463185
2708.0,0.010906307389674463
2707.0,0.01077272626946324
2706.0,0.010639186223752484
2705.0,0.010505687227290839
2704.0,0.01037222925484893
2703.0,0.010283280051895272
2702.0,0.010194349063173958
2701.0,0.010149890396819572
2700.0,0.010105436281226954
2699.0,0.010105436281226954
2698.0,0.010060986715464404
2697.0,0.01001654169860089
2696.0,0.009972101229705377
2695.0,0.009927665307847056
2694.0,0.009883233932095559
2693.0,0.009838807101520963
2692.0,0.009838807101520963
2691.0,0.009794384815193347
2690.0,0.009794384815193347
2689.0,0.00974996707218323
2688.0,0.009705553871561357
2687.0,0.009705553871561357
2686.0,0.009705553871561357
2685.0,0.009705553871561357
2684.0,0.009616741093766423
2683.0,0.009616741093766423
2682.0,0.009572341514736404
2681.0,0.009572341514736404
2680.0,0.009527946474380489
2679.0,0.009527946474380489
2678.0,0.009572341514736404
2677.0,0.009572341514736404
2676.0,0.009572341514736404
2675.0,0.009527946474380489
2674.0,0.009439170005980158
2673.0,0.00939478857608056
2672.0,0.00939478857608056
2671.0,0.00939478857608056
2670.0,0.009350411681145587
2669.0,0.009306039320248427
2668.0,0.009261671492462709
2667.0,0.009261671492462709
2666.0,0.009261671492462709
2665.0,0.009306039320248427
2664.0,0.009306039320248427
2663.0,0.009261671492462709
2662.0,0.009261671492462709
2661.0,0.009261671492462709
2660.0,0.009306039320248427
2659.0,0.009350411681145587
2658.0,0.009350411681145587
2657.0,0.009306039320248427
2656.0,0.009217308196862062
2655.0,0.009128595198514056
2654.0,0.00908424549391551
2653.0,0.009039900317800775
2652.0,0.008995559669244813
2651.0,0.008951223547323472
2650.0,0.008862564879688284
2649.0,0.008818242332126802
2648.0,0.0087296108049002
2647.0,0.008640997362049818
2646.0,0.008596697419959609
2645.0,0.008596697419959609
2644.0,0.008552401996197112
2643.0,0.008552401996197112
2642.0,0.00850811108984062
2641.0,0.008463824699968647
2640.0,0.008419542825660153
2639.0,0.008375265465994541
2638.0,0.008419542825660153
2637.0,0.008419542825660153
2636.0,0.008419542825660153
2635.0,0.008375265465994541
2634.0,0.008375265465994541
2633.0,0.008375265465994541
2632.0,0.008330992620051436
2631.0,0.008330992620051436
2630.0,0.008330992620051436
2629.0,0.008375265465994541
2628.0,0.008375265465994541
2627.0,0.008419542825660153
2626.0,0.008419542825660153
2625.0,0.008419542825660153
2624.0,0.008375265465994541
2623.0,0.008375265465994541
2622.0,0.008330992620051436
2621.0,0.008286724286910463
2620.0,0.008242460465651913
2619.0,0.008198201155356077
2618.0,0.008153946355103248
2617.0,0.008109696063975047
2616.0,0.008065450281052211
2615.0,0.008065450281052211
2614.0,0.008153946355103248
2613.0,0.008242460465651913
2612.0,0.008286724286910463
2611.0,0.008198201155356077
2610.0,0.008065450281052211
2609.0,0.007932739972333236
2608.0,0.007844288957383316
2607.0,0.007844288957383316
2606.0,0.007844288957383316
2605.0,0.007844288957383316
2604.0,0.007800070204414977
2603.0,0.007800070204414977
2602.0,0.007755855953228474
2601.0,0.007711646202907652
2600.0,0.007667440952535687
2599.0,0.0075790439479759275
2598.0,0.007534852191956709
2597.0,0.007534852191956709
2596.0,0.007490664932224611
2595.0,0.007490664932224611
2594.0,0.007534852191956709
2593.0,0.007534852191956709
2592.0,0.0075790439479759275
2591.0,0.00762324020119709
2590.0,0.007711646202907652
2589.0,0.007800070204414977
2588.0,0.007932739972333236
2587.0,0.008021209005416363
2586.0,0.008109696063975047
2585.0,0.008242460465651913
2584.0,0.008330992620051436
2583.0,0.008330992620051436
2582.0,0.008286724286910463
2581.0,0.008242460465651913
2580.0,0.008198201155356077
2579.0,0.008109696063975047
2578.0,0.008021209005416363
2577.0,0.007932739972333236
2576.0,0.007844288957383316
2575.0,0.007755855953228474
2574.0,0.007711646202907652
2573.0,0.007667440952535687
2572.0,0.00762324020119709
2571.0,0.007534852191956709
2570.0,0.0074464821678643656
2569.0,0.007358130121602358
2568.0,0.007313960837872058
2567.0,0.007225635744644521
2566.0,0.007181479933320523
2565.0,0.007093181776687496
2564.0,0.00696076819309055
2563.0,0.006828394969235152
2562.0,0.006740168563263094
2561.0,0.006740168563263094
2560.0,0.006828394969235152
2559.0,0.006872514894289861
2558.0,0.006872514894289861
2557.0,0.006916639301937977
2556.0,0.006916639301937977
2555.0,0.00696076819309055
2554.0,0.006916639301937977
2553.0,0.006872514894289861
2552.0,0.006784279525863024
2551.0,0.006740168563263094
2550.0,0.006651960076740071
2549.0,0.006607862550997545
2548.0,0.00656376950238835
2547.0,0.006519680930003435
2546.0,0.006519680930003435
2545.0,0.006519680930003435
2544.0,0.006475596832934416
2543.0,0.006431517210272464
2542.0,0.006343371384537999
2541.0,0.006299305179649828
2540.0,0.00625524344553785
2539.0,0.00621118618129457
2538.0,0.00625524344553785
2537.0,0.006299305179649828
2536.0,0.006299305179649828
2535.0,0.00625524344553785
2534.0,0.006167133386013823
2533.0,0.006079041198713275
2532.0,0.006035001804881146
2531.0,0.006035001804881146
2530.0,0.005990966876386672
2529.0,0.005990966876386672
2528.0,0.005990966876386672
2527.0,0.006035001804881146
2526.0,0.006079041198713275
2525.0,0.006079041198713275
2524.0,0.006035001804881146
2523.0,0.005946936412324799
2522.0,0.005858888873877532
2521.0,0.005814871797682919
2520.0,0.00577085918230158
2519.0,0.00577085918230158
2518.0,0.00577085918230158
2517.0,0.005814871797682919
2516.0,0.005814871797682919
2515.0,0.005814871797682919
2514.0,0.005814871797682919
2513.0,0.005814871797682919
2512.0,0.00577085918230158
2511.0,0.005726851026829571
2510.0,0.005726851026829571
2509.0,0.005726851026829571
2508.0,0.005682847330363394
2507.0,0.005638848091999105
2506.0,0.005594853310833647
2505.0,0.005550862985963967
2504.0,0.005550862985963967
2503.0,0.005550862985963967
2502.0,0.005550862985963967
2501.0,0.005550862985963967
2500.0,0.005550862985963967
2499.0,0.005594853310833647
2498.0,0.005594853310833647
2497.0,0.005594853310833647
2496.0,0.005594853310833647
2495.0,0.005594853310833647
2494.0,0.005594853310833647
2493.0,0.005594853310833647
2492.0,0.005550862985963967
2491.0,0.005462895701502157
2490.0,0.00537494623139545
2489.0,0.005330978174470591
2488.0,0.00537494623139545
2487.0,0.00541891874010525
2486.0,0.005506877116487674
2485.0,0.005506877116487674
2484.0,0.005462895701502157
2483.0,0.00541891874010525
2482.0,0.00537494623139545
2481.0,0.005330978174470591
2480.0,0.005330978174470591
2479.0,0.005330978174470591
2478.0,0.005330978174470591
2477.0,0.005330978174470591
2476.0,0.00537494623139545
2475.0,0.00541891874010525
2474.0,0.00541891874010525
2473.0,0.005330978174470591
2472.0,0.005199100705396198
2471.0,0.005111204635089406
2470.0,0.005111204635089406
2469.0,0.005111204635089406
2468.0,0.005199100705396198
2467.0,0.005243055412371911
2466.0,0.0052870145684298375
2465.0,0.0052870145684298375
2464.0,0.005330978174470591
2463.0,0.00537494623139545
2462.0,0.00541891874010525
2461.0,0.00537494623139545
2460.0,0.005330978174470591
2459.0,0.005243055412371911
2458.0,0.005199100705396198
2457.0,0.005243055412371911
2456.0,0.0052870145684298375
2455.0,0.0052870145684298375
2454.0,0.0052870145684298375
2453.0,0.005243055412371911
2452.0,0.005199100705396198
2451.0,0.005199100705396198
2450.0,0.005199100705396198
2449.0,0.005243055412371911
2448.0,0.0052870145684298375
2447.0,0.0052870145684298375
2446.0,0.0052870145684298375
2445.0,0.005243055412371911
2444.0,0.005199100705396198
2443.0,0.005199100705396198
2442.0,0.005199100705396198
2441.0,0.005155150446602086
2440.0,0.005155150446602086
2439.0,0.005199100705396198
2438.0,0.005243055412371911
2437.0,0.0052870145684298375
2436.0,0.0052870145684298375
2435.0,0.0052870145684298375
2434.0,0.005243055412371911
2433.0,0.005243055412371911
2432.0,0.005330978174470591
2431.0,0.00537494623139545
2430.0,0.00537494623139545
2429.0,0.005330978174470591
2428.0,0.0052870145684298375
2427.0,0.005243055412371911
2426.0,0.005243055412371911
2425.0,0.0052870145684298375
2424.0,0.005330978174470591
2423.0,0.00537494623139545
2422.0,0.00537494623139545
2421.0,0.00537494623139545
2420.0,0.005330978174470591
2419.0,0.005330978174470591
2418.0,0.005330978174470591
2417.0,0.005330978174470591
2416.0,0.005330978174470591
2415.0,0.0052870145684298375
2414.0,0.005243055412371911
2413.0,0.005199100705396198
2412.0,0.005155150446602086
2411.0,0.005111204635089406
2410.0,0.005111204635089406
2409.0,0.005155150446602086
2408.0,0.005155150446602086
2407.0,0.005155150446602086
2406.0,0.005155150446602086
2405.0,0.005067263269958211
2404.0,0.005023326350308999
2403.0,0.005023326350308999
2402.0,0.004979393875242044
2401.0,0.004935465843858511
2400.0,0.004979393875242044
2399.0,0.004979393875242044
2398.0,0.005067263269958211
2397.0,0.005067263269958211
2396.0,0.005067263269958211
2395.0,0.005067263269958211
2394.0,0.005067263269958211
2393.0,0.005023326350308999
2392.0,0.004979393875242044
2391.0,0.004979393875242044
2390.0,0.004979393875242044
2389.0,0.005023326350308999
2388.0,0.005023326350308999
2387.0,0.005023326350308999
2386.0,0.005023326350308999
2385.0,0.005067263269958211
2384.0,0.005023326350308999
2383.0,0.005023326350308999
2382.0,0.004979393875242044
2381.0,0.005023326350308999
2380.0,0.005023326350308999
2379.0,0.004979393875242044
2378.0,0.004979393875242044
2377.0,0.005023326350308999
2376.0,0.005111204635089406
2375.0,0.005243055412371911
2374.0,0.005155150446602086
2373.0,0.00484762310854614
2372.0,0.004452550524862486
2371.0,0.004101676353562844
2370.0,0.00401400208620073
2369.0,0.004233220950025984
2368.0,0.004671990922590297
2367.0,0.0052870145684298375
2366.0,0.005946936412324799
2365.0,0.00656376950238835
2364.0,0.006916639301937977
2363.0,0.006916639301937977
2362.0,0.006607862550997545
2361.0,0.005946936412324799
2360.0,0.005199100705396198
2359.0,0.004715892310740433
2358.0,0.004671990922590297
2357.0,0.004935465843858511
2356.0,0.005067263269958211
2355.0,0.005067263269958211
2354.0,0.005199100705396198
2353.0,0.005682847330363394
2352.0,0.006475596832934416
2351.0,0.007137328610972382
2350.0,0.007181479933320523
2349.0,0.006475596832934416
2348.0,0.00537494623139545
2347.0,0.004408675747646695
2346.0,0.003926345514724705
2345.0,0.00401400208620073
2344.0,0.004189368323957332
2343.0,0.0043648054024501
2342.0,0.00458420145758498
2341.0,0.004935465843858511
2340.0,0.00537494623139545
2339.0,0.005638848091999105
2338.0,0.005594853310833647
2337.0,0.00537494623139545
2336.0,0.005155150446602086
2335.0,0.005243055412371911
2334.0,0.005594853310833647
2333.0,0.005858888873877532
2332.0,0.005858888873877532
2331.0,0.005594853310833647
2330.0,0.00541891874010525
2329.0,0.005330978174470591
2328.0,0.0052870145684298375
2327.0,0.005199100705396198
2326.0,0.005155150446602086
2325.0,0.00537494623139545
2324.0,0.005682847330363394
2323.0,0.00590291041179003
2322.0,0.005946936412324799
2321.0,0.00577085918230158
2320.0,0.005594853310833647
2319.0,0.005462895701502157
2318.0,0.005330978174470591
2317.0,0.005243055412371911
2316.0,0.005111204635089406
2315.0,0.004979393875242044
2314.0,0.004935465843858511
2313.0,0.004935465843858511
2312.0,0.00489154225525934
2311.0,0.004803708402820517
2310.0,0.004628093971837721
2309.0,0.004540313378935901
2308.0,0.004540313378935901
2307.0,0.0044964297349936455
2306.0,0.004408675747646695
2305.0,0.004233220950025984
2304.0,0.004145520125434121
2303.0,0.004101676353562844
2302.0,0.004189368323957332
2301.0,0.004277078004534696
2300.0,0.004408675747646695
2299.0,0.0044964297349936455
2298.0,0.004540313378935901
2297.0,0.004540313378935901
2296.0,0.0044964297349936455
2295.0,0.004452550524862486
2294.0,0.004452550524862486
2293.0,0.004452550524862486
2292.0,0.0044964297349936455
2291.0,0.0044964297349936455
2290.0,0.004452550524862486
2289.0,0.004452550524862486
2288.0,0.004452550524862486
2287.0,0.004452550524862486
2286.0,0.004540313378935901
2285.0,0.00458420145758498
2284.0,0.004628093971837721
2283.0,0.00458420145758498
2282.0,0.004540313378935901
2281.0,0.0044964297349936455
2280.0,0.0044964297349936455
2279.0,0.0044964297349936455
2278.0,0.004540313378935901
2277.0,0.004628093971837721
2276.0,0.004671990922590297
2275.0,0.004671990922590297
2274.0,0.004671990922590297
2273.0,0.004628093971837721
2272.0,0.00458420145758498
2271.0,0.00458420145758498
2270.0,0.004540313378935901
2269.0,0.0044964297349936455
2268.0,0.0044964297349936455
2267.0,0.0044964297349936455
2266.0,0.004540313378935901
2265.0,0.00458420145758498
2264.0,0.004628093971837721
2263.0,0.004671990922590297
2262.0,0.004715892310740433
2261.0,0.004715892310740433
2260.0,0.004715892310740433
2259.0,0.004715892310740433
2258.0,0.004671990922590297
2257.0,0.004628093971837721
2256.0,0.004628093971837721
2255.0,0.004628093971837721
2254.0,0.00458420145758498
2253.0,0.0044964297349936455
2252.0,0.004408675747646695
2251.0,0.004320939488377862
2250.0,0.004320939488377862
2249.0,0.0043648054024501
2248.0,0.004408675747646695
2247.0,0.004452550524862486
2246.0,0.004452550524862486
2245.0,0.004452550524862486
2244.0,0.004452550524862486
2243.0,0.004408675747646695
2242.0,0.0043648054024501
2241.0,0.004320939488377862
2240.0,0.004320939488377862
2239.0,0.004320939488377862
2238.0,0.004277078004534696
2237.0,0.004320939488377862
2236.0,0.0043648054024501
2235.0,0.004408675747646695
2234.0,0.004408675747646695
2233.0,0.004408675747646695
2232.0,0.0043648054024501
2231.0,0.0043648054024501
2230.0,0.0043648054024501
2229.0,0.0043648054024501
2228.0,0.0043648054024501
2227.0,0.0043648054024501
2226.0,0.004320939488377862
2225.0,0.004277078004534696
2224.0,0.004277078004534696
2223.0,0.004233220950025984
2222.0,0.004277078004534696
2221.0,0.004277078004534696
2220.0,0.004277078004534696
2219.0,0.004277078004534696
2218.0,0.004277078004534696
2217.0,0.004320939488377862
2216.0,0.0043648054024501
2215.0,0.004408675747646695
2214.0,0.0043648054024501
2213.0,0.004320939488377862
2212.0,0.004320939488377862
2211.0,0.004320939488377862
2210.0,0.004320939488377862
2209.0,0.004320939488377862
2208.0,0.004320939488377862
2207.0,0.004320939488377862
2206.0,0.004320939488377862
2205.0,0.0043648054024501
2204.0,0.004452550524862486
2203.0,0.0044964297349936455
2202.0,0.0044964297349936455
2201.0,0.004452550524862486
2200.0,0.004408675747646695
2199.0,0.004408675747646695
2198.0,0.0043648054024501
2197.0,0.0043648054024501
2196.0,0.004320939488377862
2195.0,0.004320939488377862
2194.0,0.0043648054024501
2193.0,0.004408675747646695
2192.0,0.004452550524862486
2191.0,0.004452550524862486
2190.0,0.004408675747646695
2189.0,0.004408675747646695
2188.0,0.004408675747646695
2187.0,0.004452550524862486
2186.0,0.004452550524862486
2185.0,0.004452550524862486
2184.0,0.004452550524862486
2183.0,0.004452550524862486
2182.0,0.004452550524862486
2181.0,0.0044964297349936455
2180.0,0.004540313378935901
2179.0,0.004540313378935901
2178.0,0.0044964297349936455
2177.0,0.004452550524862486
2176.0,0.004408675747646695
2175.0,0.004408675747646695
2174.0,0.004452550524862486
2173.0,0.0044964297349936455
2172.0,0.004540313378935901
2171.0,0.004540313378935901
2170.0,0.0044964297349936455
2169.0,0.004452550524862486
2168.0,0.004452550524862486
2167.0,0.0044964297349936455
2166.0,0.0044964297349936455
2165.0,0.0044964297349936455
2164.0,0.0044964297349936455
2163.0,0.0044964297349936455
2162.0,0.0044964297349936455
2161.0,0.0044964297349936455
2160.0,0.004408675747646695
2159.0,0.004320939488377862
2158.0,0.004277078004534696
2157.0,0.004233220950025984
2156.0,0.004189368323957332
2155.0,0.004189368323957332
2154.0,0.004189368323957332
2153.0,0.004233220950025984
2152.0,0.004277078004534696
2151.0,0.0043648054024501
2150.0,0.004408675747646695
2149.0,0.0043648054024501
2148.0,0.004320939488377862
2147.0,0.004233220950025984
2146.0,0.004145520125434121
2145.0,0.004101676353562844
2144.0,0.004145520125434121
2143.0,0.004233220950025984
2142.0,0.004277078004534696
2141.0,0.004277078004534696
2140.0,0.004277078004534696
2139.0,0.004233220950025984
2138.0,0.004277078004534696
2137.0,0.004320939488377862
2136.0,0.004320939488377862
2135.0,0.004320939488377862
2134.0,0.004277078004534696
2133.0,0.004233220950025984
2132.0,0.004189368323957332
2131.0,0.004189368323957332
2130.0,0.004189368323957332
2129.0,0.004189368323957332
2128.0,0.004145520125434121
2127.0,0.004145520125434121
2126.0,0.004101676353562844
2125.0,0.004101676353562844
2124.0,0.004101676353562844
2123.0,0.004101676353562844
2122.0,0.004101676353562844
2121.0,0.0040578370074493275
2120.0,0.0040578370074493275
2119.0,0.0040578370074493275
2118.0,0.0040578370074493275
2117.0,0.0040578370074493275
2116.0,0.00401400208620073
2115.0,0.00401400208620073
2114.0,0.00401400208620073
2113.0,0.00401400208620073
2112.0,0.004101676353562844
2111.0,0.004101676353562844
2110.0,0.004101676353562844
2109.0,0.0040578370074493275
2108.0,0.003970171588923321
2107.0,0.003926345514724705
2106.0,0.0038825238627120395
2105.0,0.0038825238627120395
2104.0,0.0038825238627120395
2103.0,0.0038825238627120395
2102.0,0.003926345514724705
2101.0,0.003926345514724705
2100.0,0.003926345514724705
2099.0,0.003926345514724705
2098.0,0.003926345514724705
2097.0,0.003970171588923321
2096.0,0.00401400208620073
2095.0,0.0040578370074493275
2094.0,0.00401400208620073
2093.0,0.00401400208620073
2092.0,0.003970171588923321
2091.0,0.003926345514724705
2090.0,0.0038825238627120395
2089.0,0.0038387066319929275
2088.0,0.0038387066319929275
2087.0,0.0038387066319929275
2086.0,0.0038825238627120395
2085.0,0.003970171588923321
2084.0,0.00401400208620073
2083.0,0.003970171588923321
2082.0,0.003926345514724705
2081.0,0.0038387066319929275
2080.0,0.0037510854308679953
2079.0,0.0037510854308679953
2078.0,0.003794893821675638
2077.0,0.0038825238627120395
2076.0,0.003926345514724705
2075.0,0.003970171588923321
2074.0,0.003926345514724705
2073.0,0.0038387066319929275
2072.0,0.0037510854308679953
2071.0,0.003707281458678491
2070.0,0.0037510854308679953
2069.0,0.0038387066319929275
2068.0,0.003926345514724705
2067.0,0.003970171588923321
2066.0,0.003970171588923321
2065.0,0.003926345514724705
2064.0,0.0038387066319929275
2063.0,0.003794893821675638
2062.0,0.003794893821675638
2061.0,0.0038387066319929275
2060.0,0.0038825238627120395
2059.0,0.0038825238627120395
2058.0,0.0038387066319929275
2057.0,0.003794893821675638
2056.0,0.0037510854308679953
2055.0,0.003794893821675638
2054.0,0.0038825238627120395
2053.0,0.003926345514724705
2052.0,0.003970171588923321
2051.0,0.00401400208620073
2050.0,0.003970171588923321
2049.0,0.003926345514724705
2048.0,0.003926345514724705
2047.0,0.003926345514724705
2046.0,0.003926345514724705
2045.0,0.003926345514724705
2044.0,0.003926345514724705
2043.0,0.0038825238627120395
2042.0,0.0038387066319929275
2041.0,0.0038387066319929275
2040.0,0.0038387066319929275
2039.0,0.0038825238627120395
2038.0,0.003926345514724705
2037.0,0.0038825238627120395
2036.0,0.0038825238627120395
2035.0,0.0038825238627120395
2034.0,0.0038825238627120395
2033.0,0.0038387066319929275
2032.0,0.0038387066319929275
2031.0,0.003794893821675638
2030.0,0.003794893821675638
2029.0,0.0038825238627120395
2028.0,0.003926345514724705
2027.0,0.003970171588923321
2026.0,0.003926345514724705
2025.0,0.0038825238627120395
2024.0,0.0038387066319929275
2023.0,0.003794893821675638
2022.0,0.003707281458678491
2021.0,0.0036634819042162814
2020.0,0.003619686766589858
2019.0,0.0036634819042162814
2018.0,0.003707281458678491
2017.0,0.003794893821675638
2016.0,0.0038825238627120395
2015.0,0.003926345514724705
2014.0,0.003926345514724705
2013.0,0.003926345514724705
2012.0,0.0038825238627120395
2011.0,0.0038387066319929275
2010.0,0.003794893821675638
2009.0,0.0037510854308679953
2008.0,0.003707281458678491
2007.0,0.0036634819042162814
2006.0,0.0036634819042162814
2005.0,0.003707281458678491
2004.0,0.003707281458678491
2003.0,0.0037510854308679953
2002.0,0.003707281458678491
2001.0,0.003707281458678491
2000.0,0.003707281458678491
1999.0,0.003619686766589858
1998.0,0.0035758960449088217
1997.0,0.0035758960449088217
1996.0,0.0035758960449088217
1995.0,0.003619686766589858
1994.0,0.003619686766589858
1993.0,0.003619686766589858
1992.0,0.0035758960449088217
1991.0,0.0035321097382827737
1990.0,0.0035321097382827737
1989.0,0.0035758960449088217
1988.0,0.003619686766589858
1987.0,0.003619686766589858
1986.0,0.0036634819042162814
1985.0,0.0036634819042162814
1984.0,0.003707281458678491
1983.0,0.003707281458678491
1982.0,0.003707281458678491
1981.0,0.003707281458678491
1980.0,0.003707281458678491
1979.0,0.0036634819042162814
1978.0,0.003619686766589858
1977.0,0.0035758960449088217
1976.0,0.0035758960449088217
1975.0,0.0035758960449088217
1974.0,0.0035758960449088217
1973.0,0.0035321097382827737
1972.0,0.0035758960449088217
1971.0,0.0035758960449088217
1970.0,0.0035758960449088217
1969.0,0.0035758960449088217
1968.0,0.0035758960449088217
1967.0,0.0035758960449088217
1966.0,0.003619686766589858
1965.0,0.0035758960449088217
1964.0,0.0035321097382827737
1963.0,0.003488327845821315
1962.0,0.003488327845821315
1961.0,0.0035321097382827737
1960.0,0.0035758960449088217
1959.0,0.0035758960449088217
1958.0,0.0035321097382827737
1957.0,0.0035321097382827737
1956.0,0.0035321097382827737
1955.0,0.0035758960449088217
1954.0,0.0035758960449088217
1953.0,0.0035758960449088217
1952.0,0.0035758960449088217
1951.0,0.0035758960449088217
1950.0,0.003488327845821315
1949.0,0.0034445503666347133
1948.0,0.0034007772998332353
1947.0,0.0034007772998332353
1946.0,0.0034445503666347133
1945.0,0.0035321097382827737
1944.0,0.003619686766589858
1943.0,0.0036634819042162814
1942.0,0.0036634819042162814
1941.0,0.003619686766589858
1940.0,0.0035321097382827737
1939.0,0.003488327845821315
1938.0,0.0034445503666347133
1937.0,0.0034445503666347133
1936.0,0.0034445503666347133
1935.0,0.003488327845821315
1934.0,0.003488327845821315
1933.0,0.0034007772998332353
1932.0,0.0033570086445275926
1931.0,0.0033132443998284966
1930.0,0.0033570086445275926
1929.0,0.0034445503666347133
1928.0,0.0035321097382827737
1927.0,0.0035758960449088217
1926.0,0.003619686766589858
1925.0,0.003619686766589858
1924.0,0.003619686766589858
1923.0,0.003619686766589858
1922.0,0.003619686766589858
1921.0,0.003619686766589858
1920.0,0.0035758960449088217
1919.0,0.0035758960449088217
1918.0,0.0035758960449088217
1917.0,0.003619686766589858
1916.0,0.003619686766589858
1915.0,0.003619686766589858
1914.0,0.003619686766589858
1913.0,0.0036634819042162814
1912.0,0.0036634819042162814
1911.0,0.0036634819042162814
1910.0,0.003619686766589858
1909.0,0.0035758960449088217
1908.0,0.0035321097382827737
1907.0,0.0035321097382827737
1906.0,0.0035758960449088217
1905.0,0.0035758960449088217
1904.0,0.0035758960449088217
1903.0,0.0035758960449088217
1902.0,0.0035321097382827737
1901.0,0.0035321097382827737
1900.0,0.0035321097382827737
1899.0,0.0035321097382827737
1898.0,0.0035321097382827737
1897.0,0.003488327845821315
1896.0,0.0035321097382827737
1895.0,0.0035321097382827737
1894.0,0.003619686766589858
1893.0,0.003619686766589858
1892.0,0.0036634819042162814
1891.0,0.003619686766589858
1890.0,0.003619686766589858
1889.0,0.0036634819042162814
1888.0,0.0036634819042162814
1887.0,0.003619686766589858
1886.0,0.0035321097382827737
1885.0,0.0034445503666347133
1884.0,0.0033570086445275926
1883.0,0.0033132443998284966
1882.0,0.0032694845648473247
1881.0,0.0032694845648473247
1880.0,0.0033132443998284966
1879.0,0.0033132443998284966
1878.0,0.0033132443998284966
1877.0,0.0033132443998284966
1876.0,0.0033132443998284966
1875.0,0.0033132443998284966
1874.0,0.0032694845648473247
1873.0,0.0032694845648473247
1872.0,0.0033132443998284966
1871.0,0.0033570086445275926
1870.0,0.0034445503666347133
1869.0,0.0035321097382827737
1868.0,0.0035758960449088217
1867.0,0.0035758960449088217
1866.0,0.0035321097382827737
1865.0,0.0034445503666347133
1864.0,0.0034007772998332353
1863.0,0.0033570086445275926
1862.0,0.0033570086445275926
1861.0,0.0033570086445275926
1860.0,0.0033570086445275926
1859.0,0.0033132443998284966
1858.0,0.0032694845648473247
1857.0,0.0032694845648473247
1856.0,0.0033132443998284966
1855.0,0.0033570086445275926
1854.0,0.0033570086445275926
1853.0,0.0033570086445275926
1852.0,0.0033570086445275926
1851.0,0.0034007772998332353
1850.0,0.0033570086445275926
1849.0,0.0034007772998332353
1848.0,0.0034007772998332353
1847.0,0.0034445503666347133
1846.0,0.003488327845821315
1845.0,0.003488327845821315
1844.0,0.0034445503666347133
1843.0,0.0034445503666347133
1842.0,0.0034445503666347133
1841.0,0.003488327845821315
1840.0,0.003488327845821315
1839.0,0.0034445503666347133
1838.0,0.0034445503666347133
1837.0,0.003488327845821315
1836.0,0.0035321097382827737
1835.0,0.0035758960449088217
1834.0,0.003619686766589858
1833.0,0.003619686766589858
1832.0,0.003619686766589858
1831.0,0.0035321097382827737
1830.0,0.0034445503666347133
1829.0,0.0034445503666347133
1828.0,0.0034445503666347133
1827.0,0.0034007772998332353
1826.0,0.0033132443998284966
1825.0,0.0032257291386954545
1824.0,0.0031819781204844855
1823.0,0.0031819781204844855
1822.0,0.0031819781204844855
1821.0,0.0031819781204844855
1820.0,0.0032257291386954545
1819.0,0.0032257291386954545
1818.0,0.0032694845648473247
1817.0,0.0032694845648473247
1816.0,0.0032257291386954545
1815.0,0.0031382315093266833
1814.0,0.003050751504618754
1813.0,0.003050751504618754
1812.0,0.0030070181092942683
1811.0,0.0030070181092942683
1810.0,0.003050751504618754
1809.0,0.0030944893043338695
1808.0,0.0032257291386954545
1807.0,0.0032694845648473247
1806.0,0.0032694845648473247
1805.0,0.0031819781204844855
1804.0,0.0030944893043338695
1803.0,0.003050751504618754
1802.0,0.003050751504618754
1801.0,0.0031382315093266833
1800.0,0.0032694845648473247
1799.0,0.0033132443998284966
1798.0,0.0032694845648473247
1797.0,0.0032257291386954545
1796.0,0.0031819781204844855
1795.0,0.0031382315093266833
1794.0,0.0030944893043338695
1793.0,0.0030944893043338695
1792.0,0.0030944893043338695
1791.0,0.0031382315093266833
1790.0,0.0031819781204844855
1789.0,0.0032257291386954545
1788.0,0.0032694845648473247
1787.0,0.0032257291386954545
1786.0,0.0032257291386954545
1785.0,0.0032694845648473247
1784.0,0.0033570086445275926
1783.0,0.0034007772998332353
1782.0,0.0034445503666347133
1781.0,0.0034445503666347133
1780.0,0.0034007772998332353
1779.0,0.0034007772998332353
1778.0,0.0033570086445275926
1777.0,0.0033132443998284966
1776.0,0.0032694845648473247
1775.0,0.0032694845648473247
1774.0,0.0032257291386954545
1773.0,0.0032694845648473247
1772.0,0.0034007772998332353
1771.0,0.0035321097382827737
1770.0,0.0035758960449088217
1769.0,0.0035321097382827737
1768.0,0.003488327845821315
1767.0,0.0034445503666347133
1766.0,0.0034007772998332353
1765.0,0.0034007772998332353
1764.0,0.0033570086445275926
1763.0,0.0033570086445275926
1762.0,0.0033570086445275926
1761.0,0.0034445503666347133
1760.0,0.0035321097382827737
1759.0,0.0035758960449088217
1758.0,0.0035758960449088217
1757.0,0.0036634819042162814
1756.0,0.003794893821675638
1755.0,0.003926345514724705
1754.0,0.0040578370074493275
1753.0,0.004233220950025984
1752.0,0.004408675747646695
1751.0,0.004628093971837721
1750.0,0.00484762310854614
1749.0,0.005023326350308999
1748.0,0.005155150446602086
1747.0,0.005199100705396198
1746.0,0.005243055412371911
1745.0,0.005330978174470591
1744.0,0.00537494623139545
1743.0,0.00537494623139545
1742.0,0.00537494623139545
1741.0,0.005330978174470591
1740.0,0.0052870145684298375
1739.0,0.0052870145684298375
1738.0,0.005243055412371911
1737.0,0.005199100705396198
1736.0,0.005023326350308999
1735.0,0.004759798137184523
1734.0,0.004628093971837721
1733.0,0.004759798137184523
1732.0,0.00484762310854614
1731.0,0.00484762310854614
1730.0,0.004803708402820517
1729.0,0.004759798137184523
1728.0,0.004671990922590297
1727.0,0.004628093971837721
1726.0,0.00458420145758498
1725.0,0.00458420145758498
1724.0,0.00458420145758498
1723.0,0.00458420145758498
1722.0,0.00458420145758498
1721.0,0.004628093971837721
1720.0,0.004628093971837721
1719.0,0.004540313378935901
1718.0,0.0044964297349936455
1717.0,0.004628093971837721
1716.0,0.004759798137184523
1715.0,0.004759798137184523
1714.0,0.004759798137184523
1713.0,0.004715892310740433
1712.0,0.004628093971837721
1711.0,0.00458420145758498
1710.0,0.0044964297349936455
1709.0,0.0044964297349936455
1708.0,0.004540313378935901
1707.0,0.004540313378935901
1706.0,0.0044964297349936455
1705.0,0.004452550524862486
1704.0,0.004408675747646695
1703.0,0.0043648054024501
1702.0,0.004145520125434121
1701.0,0.003970171588923321
1700.0,0.00401400208620073
1699.0,0.004233220950025984
1698.0,0.004408675747646695
1697.0,0.0044964297349936455
1696.0,0.004452550524862486
1695.0,0.004408675747646695
1694.0,0.004408675747646695
1693.0,0.004452550524862486
1692.0,0.0044964297349936455
1691.0,0.0044964297349936455
1690.0,0.0044964297349936455
1689.0,0.0044964297349936455
1688.0,0.0044964297349936455
1687.0,0.004452550524862486
1686.0,0.0043648054024501
1685.0,0.004233220950025984
1684.0,0.004408675747646695
1683.0,0.00458420145758498
1682.0,0.004628093971837721
1681.0,0.00458420145758498
1680.0,0.00458420145758498
1679.0,0.00458420145758498
1678.0,0.00458420145758498
1677.0,0.004628093971837721
1676.0,0.004628093971837721
1675.0,0.004628093971837721
1674.0,0.004671990922590297
1673.0,0.004671990922590297
1672.0,0.004671990922590297
1671.0,0.004671990922590297
1670.0,0.004759798137184523
1669.0,0.00489154225525934
1668.0,0.004935465843858511
1667.0,0.004935465843858511
1666.0,0.004935465843858511
1665.0,0.004935465843858511
1664.0,0.00489154225525934
1663.0,0.004935465843858511
1662.0,0.004935465843858511
1661.0,0.004935465843858511
1660.0,0.00489154225525934
1659.0,0.00489154225525934
1658.0,0.00484762310854614
1657.0,0.00489154225525934
1656.0,0.005023326350308999
1655.0,0.005067263269958211
1654.0,0.005067263269958211
1653.0,0.005111204635089406
1652.0,0.005067263269958211
1651.0,0.005023326350308999
1650.0,0.005155150446602086
1649.0,0.005243055412371911
1648.0,0.0052870145684298375
1647.0,0.005330978174470591
1646.0,0.0052870145684298375
1645.0,0.005199100705396198
1644.0,0.005067263269958211
1643.0,0.004979393875242044
1642.0,0.00489154225525934
1641.0,0.004803708402820517
1640.0,0.004759798137184523
1639.0,0.004715892310740433
1638.0,0.004759798137184523
1637.0,0.004759798137184523
1636.0,0.004759798137184523
1635.0,0.004715892310740433
1634.0,0.00458420145758498
1633.0,0.004540313378935901
1632.0,0.0044964297349936455
1631.0,0.0044964297349936455
1630.0,0.0044964297349936455
1629.0,0.0044964297349936455
1628.0,0.004540313378935901
1627.0,0.0044964297349936455
1626.0,0.004452550524862486
1625.0,0.0043648054024501
1624.0,0.004320939488377862
1623.0,0.004320939488377862
1622.0,0.004320939488377862
1621.0,0.004320939488377862
1620.0,0.004320939488377862
1619.0,0.004277078004534696
1618.0,0.004145520125434121
1617.0,0.00401400208620073
1616.0,0.00401400208620073
1615.0,0.00401400208620073
1614.0,0.0040578370074493275
1613.0,0.00401400208620073
1612.0,0.003970171588923321
1611.0,0.0038825238627120395
1610.0,0.0038387066319929275
1609.0,0.0038387066319929275
1608.0,0.003970171588923321
1607.0,0.004101676353562844
1606.0,0.004233220950025984
1605.0,0.004320939488377862
1604.0,0.004320939488377862
1603.0,0.004277078004534696
1602.0,0.004233220950025984
1601.0,0.004189368323957332
1600.0,0.004189368323957332
1599.0,0.004101676353562844
1598.0,0.00401400208620073
1597.0,0.0038825238627120395
1596.0,0.0037510854308679953
1595.0,0.0036634819042162814
1594.0,0.0036634819042162814
1593.0,0.003707281458678491
1592.0,0.003794893821675638
1591.0,0.003794893821675638
1590.0,0.003794893821675638
1589.0,0.0037510854308679953
1588.0,0.0036634819042162814
1587.0,0.0035758960449088217
1586.0,0.0035321097382827737
1585.0,0.0035321097382827737
1584.0,0.0035758960449088217
1583.0,0.0035758960449088217
1582.0,0.0035321097382827737
1581.0,0.0034445503666347133
1580.0,0.0034007772998332353
1579.0,0.0033570086445275926
1578.0,0.0032694845648473247
1577.0,0.0032694845648473247
1576.0,0.0033132443998284966
1575.0,0.0033570086445275926
1574.0,0.0033570086445275926
1573.0,0.0034007772998332353
1572.0,0.0034445503666347133
1571.0,0.0034445503666347133
1570.0,0.0034445503666347133
1569.0,0.0034445503666347133
1568.0,0.0034445503666347133
1567.0,0.0034445503666347133
1566.0,0.0034445503666347133
1565.0,0.0034445503666347133
1564.0,0.0034445503666347133
1563.0,0.0034007772998332353
1562.0,0.0034007772998332353
1561.0,0.0034007772998332353
1560.0,0.0034007772998332353
1559.0,0.003619686766589858
1558.0,0.003794893821675638
1557.0,0.003794893821675638
1556.0,0.0037510854308679953
1555.0,0.0037510854308679953
1554.0,0.003707281458678491
1553.0,0.0036634819042162814
1552.0,0.0037510854308679953
1551.0,0.003794893821675638
1550.0,0.0038825238627120395
1549.0,0.003926345514724705
1548.0,0.0038825238627120395
1547.0,0.0038387066319929275
1546.0,0.003794893821675638
1545.0,0.0037510854308679953
1544.0,0.0037510854308679953
1543.0,0.0037510854308679953
1542.0,0.003794893821675638
1541.0,0.003970171588923321
1540.0,0.004101676353562844
1539.0,0.0038825238627120395
1538.0,0.0036634819042162814
1537.0,0.0035758960449088217
1536.0,0.0035321097382827737
1535.0,0.0034007772998332353
1534.0,0.0032257291386954545
1533.0,0.0031382315093266833
1532.0,0.003050751504618754
1531.0,0.0029632891174733444
1530.0,0.0029195645282691363
1529.0,0.0029632891174733444
1528.0,0.003050751504618754
1527.0,0.003050751504618754
1526.0,0.0029632891174733444
1525.0,0.0029632891174733444
1524.0,0.0029632891174733444
1523.0,0.0029195645282691363
1522.0,0.0028321285541661467
1521.0,0.0028758443407954637
1520.0,0.0029195645282691363
1519.0,0.0028321285541661467
1518.0,0.002701007590486082
1517.0,0.0026573093983774942
1516.0,0.002701007590486082
1515.0,0.002701007590486082
1514.0,0.002701007590486082
1513.0,0.0027447101798967477
1512.0,0.0028321285541661467
1511.0,0.0028758443407954637
1510.0,0.0029195645282691363
1509.0,0.0030070181092942683
1508.0,0.0030944893043338695
1507.0,0.003050751504618754
1506.0,0.0030070181092942683
1505.0,0.0029632891174733444
1504.0,0.003050751504618754
1503.0,0.0030944893043338695
1502.0,0.0031382315093266833
1501.0,0.0032694845648473247
1500.0,0.0034007772998332353
1499.0,0.0035321097382827737
1498.0,0.0036634819042162814
1497.0,0.00401400208620073
1496.0,0.004452550524862486
1495.0,0.004803708402820517
1494.0,0.005067263269958211
1493.0,0.0052870145684298375
1492.0,0.00537494623139545
1491.0,0.005243055412371911
1490.0,0.005067263269958211
1489.0,0.005067263269958211
1488.0,0.005199100705396198
1487.0,0.0052870145684298375
1486.0,0.005462895701502157
1485.0,0.005726851026829571
1484.0,0.006035001804881146
1483.0,0.006299305179649828
1482.0,0.006696062080525422
1481.0,0.007358130121602358
1480.0,0.008065450281052211
1479.0,0.008818242332126802
1478.0,0.009927665307847056
1477.0,0.011708658092512314
1476.0,0.014124642691606404
1475.0,0.016870075265299933
1474.0,0.020315076172974234
1473.0,0.024706084643793647
1472.0,0.029095501846216454
1471.0,0.03249882527715853
1470.0,0.03555179208333925
1469.0,0.03886378261277468
1468.0,0.04268010314465909
1467.0,0.04711073508906982
1466.0,0.05295859474477971
1465.0,0.060081579630943294
1464.0,0.0663102910421054
1463.0,0.0699173666076287
1462.0,0.07139934015547578
1461.0,0.0718090519612431
1460.0,0.07170658776779781
1459.0,0.07155293679081787
1458.0,0.07273231918911849
1457.0,0.07520400420208784
1456.0,0.07665234350217442
1455.0,0.07644514193245056
1454.0,0.07566901529132153
1453.0,0.07468790850035045
1452.0,0.07329750581735506
1451.0,0.0713481533463054
1450.0,0.06864384953207203
1449.0,0.06494641076893504
1448.0,0.060231224546650086
1447.0,0.055172003656783764
1446.0,0.050463626623857394
1445.0,0.04624030826677128
1444.0,0.042392712939904875
1443.0,0.03914884628031379
1442.0,0.03663723389626394
1441.0,0.03479829897408804
1440.0,0.033482823553208085
1439.0,0.03282657704446046
1438.0,0.0329671178412978
1437.0,0.03371743783253667
1436.0,0.033905220553829274
1435.0,0.03273290844021437
1434.0,0.030351159519274695
1433.0,0.02738066094037661
1432.0,0.024246610963712723
1431.0,0.02140867317992523
1430.0,0.019178833355664393
1429.0,0.017412209298337533
1428.0,0.016103208673694303
1427.0,0.015202742910707112
1426.0,0.01452861671041239
1425.0,0.01385553528947936
1424.0,0.013273040668781544
1423.0,0.012825498912458322
1422.0,0.012423105273012602
1421.0,0.011931796607364653
1420.0,0.011441043121384498
1419.0,0.011218156546359825
1418.0,0.011084479487313281
1417.0,0.01077272626946324
1416.0,0.010416710688994968
1415.0,0.010194349063173958
1414.0,0.009972101229705377
1413.0,0.00974996707218323
1412.0,0.009527946474380489
1411.0,0.00939478857608056
1410.0,0.009217308196862062
1409.0,0.008995559669244813
1408.0,0.0087296108049002
1407.0,0.008552401996197112
1406.0,0.008463824699968647
1405.0,0.008286724286910463
1404.0,0.008153946355103248
1403.0,0.008109696063975047
1402.0,0.008065450281052211
1401.0,0.007976972236149349
1400.0,0.007844288957383316
1399.0,0.007888512213050314
1398.0,0.007932739972333236
1397.0,0.007888512213050314
1396.0,0.007800070204414977
1395.0,0.007932739972333236
1394.0,0.008109696063975047
1393.0,0.008242460465651913
1392.0,0.008375265465994541
1391.0,0.008640997362049818
1390.0,0.009128595198514056
1389.0,0.00974996707218323
1388.0,0.01086177578421088
1387.0,0.012780770091995297
1386.0,0.015427684378367834
1385.0,0.018815862601645694
1384.0,0.02351246269481
1383.0,0.030118356253500123
1382.0,0.038911280232103884
1381.0,0.050073556332087765
1380.0,0.06403953101083348
1379.0,0.08013774644446192
1378.0,0.09587978652380036
1377.0,0.10784972209863586
1376.0,0.11345287660889425
1375.0,0.11097857790477517
1374.0,0.10105553313349058
1373.0,0.08767164203958999
1372.0,0.07443009045662374
1371.0,0.06258241852286206
1370.0,0.05237025261564554
1369.0,0.04411991377462465
1368.0,0.03824678581321739
1367.0,0.03442204208947208
1366.0,0.032218091924200776
1365.0,0.031143625385307683
1364.0,0.031096969696171817
1363.0,0.031984286006358165
1362.0,0.03343591590268957
1361.0,0.03489241415094413
1360.0,0.03588185684851508
1359.0,0.03597620715996652
1358.0,0.03512779136222477
1357.0,0.03338901331806565
1356.0,0.030957032694186815
1355.0,0.028214062120885508
1354.0,0.02553436426275746
1353.0,0.023237476732539397
1352.0,0.021317434843055594
1351.0,0.019723858922159776
1350.0,0.01840788278591865
1349.0,0.017321806616515723
1348.0,0.016418813294209356
1347.0,0.015562705203923999
1346.0,0.014798141635428141
1345.0,0.014124642691606404
1344.0,0.013496984613259544
1343.0,0.012959713020733288
1342.0,0.012512493866907004
1341.0,0.01215504982870197
1340.0,0.011931796607364653
1339.0,0.011797899741219142
1338.0,0.011708658092512314
1337.0,0.011664044143949504
1336.0,0.011664044143949504
1335.0,0.011753276624621556
1334.0,0.011887159731648111
1333.0,0.012199714248127602
1332.0,0.012512493866907004
1331.0,0.012825498912458322
1330.0,0.012959713020733288
1329.0,0.012870232340102872
1328.0,0.012557195064198723
1327.0,0.012199714248127602
1326.0,0.011753276624621556
1325.0,0.011351874764248926
1324.0,0.010995384301463185
1323.0,0.010639186223752484
1322.0,0.010283280051895272
1321.0,0.010060986715464404
1320.0,0.009883233932095559
1319.0,0.00974996707218323
1318.0,0.00966114521239847
1317.0,0.009572341514736404
1316.0,0.009483555971770974
1315.0,0.009350411681145587
1314.0,0.009261671492462709
1313.0,0.009217308196862062
1312.0,0.009172949432521227
1311.0,0.009261671492462709
1310.0,0.00939478857608056
1309.0,0.00966114521239847
1308.0,0.010105436281226954
1307.0,0.010728208358306901
1306.0,0.011396456654336085
1305.0,0.011842527443247208
1304.0,0.0119764380713403
1303.0,0.011797899741219142
1302.0,0.011485634166333858
1301.0,0.011218156546359825
1300.0,0.011084479487313281
1299.0,0.011084479487313281
1298.0,0.01117359295472431
1297.0,0.011218156546359825
1296.0,0.011218156546359825
1295.0,0.011039929609661936
1294.0,0.01077272626946324
1293.0,0.010416710688994968
1292.0,0.01001654169860089
1291.0,0.00966114521239847
1290.0,0.009350411681145587
1289.0,0.00908424549391551
1288.0,0.008818242332126802
1287.0,0.008596697419959609
1286.0,0.008375265465994541
1285.0,0.008242460465651913
1284.0,0.008153946355103248
1283.0,0.008021209005416363
1282.0,0.007932739972333236
1281.0,0.007844288957383316
1280.0,0.007800070204414977
1279.0,0.007755855953228474
1278.0,0.007711646202907652
1277.0,0.007667440952535687
1276.0,0.00762324020119709
1275.0,0.007534852191956709
1274.0,0.0074464821678643656
1273.0,0.0074464821678643656
1272.0,0.007490664932224611
1271.0,0.00762324020119709
1270.0,0.007755855953228474
1269.0,0.007932739972333236
1268.0,0.008065450281052211
1267.0,0.008153946355103248
1266.0,0.008286724286910463
1265.0,0.008419542825660153
1264.0,0.008552401996197112
1263.0,0.008685301823389224
1262.0,0.008862564879688284
1261.0,0.00908424549391551
1260.0,0.009439170005980158
1259.0,0.009838807101520963
1258.0,0.010327752376126709
1257.0,0.01077272626946324
1256.0,0.010995384301463185
1255.0,0.010906307389674463
1254.0,0.010594681998483901
1253.0,0.010149890396819572
1252.0,0.00966114521239847
1251.0,0.009261671492462709
1250.0,0.008906891951112605
1249.0,0.008640997362049818
1248.0,0.008375265465994541
1247.0,0.008242460465651913
1246.0,0.008153946355103248
1245.0,0.008065450281052211
1244.0,0.008021209005416363
1243.0,0.007976972236149349
1242.0,0.007932739972333236
1241.0,0.007844288957383316
1240.0,0.007755855953228474
1239.0,0.007667440952535687
1238.0,0.00762324020119709
1237.0,0.00762324020119709
1236.0,0.0075790439479759275
1235.0,0.0075790439479759275
1234.0,0.007534852191956709
1233.0,0.007490664932224611
1232.0,0.007490664932224611
1231.0,0.007534852191956709
1230.0,0.00762324020119709
1229.0,0.007711646202907652
1228.0,0.007800070204414977
1227.0,0.007888512213050314
1226.0,0.008021209005416363
1225.0,0.008153946355103248
1224.0,0.008330992620051436
1223.0,0.008552401996197112
1222.0,0.008773924307505121
1221.0,0.008951223547323472
1220.0,0.009039900317800775
1219.0,0.009128595198514056
1218.0,0.009128595198514056
1217.0,0.008995559669244813
1216.0,0.008773924307505121
1215.0,0.008552401996197112
1214.0,0.008375265465994541
1213.0,0.008242460465651913
1212.0,0.008109696063975047
1211.0,0.008021209005416363
1210.0,0.007888512213050314
1209.0,0.007755855953228474
1208.0,0.007667440952535687
1207.0,0.007534852191956709
1206.0,0.0074464821678643656
1205.0,0.007358130121602358
1204.0,0.007269796045857202
1203.0,0.007181479933320523
1202.0,0.007093181776687496
1201.0,0.007049039429553483
1200.0,0.00696076819309055
1199.0,0.006916639301937977
1198.0,0.006916639301937977
1197.0,0.006916639301937977
1196.0,0.006916639301937977
1195.0,0.006872514894289861
1194.0,0.006784279525863024
1193.0,0.006696062080525422
1192.0,0.006651960076740071
1191.0,0.006651960076740071
1190.0,0.006696062080525422
1189.0,0.006740168563263094
1188.0,0.006740168563263094
1187.0,0.006696062080525422
1186.0,0.006696062080525422
1185.0,0.006740168563263094
1184.0,0.006872514894289861
1183.0,0.00696076819309055
1182.0,0.007004901568658406
1181.0,0.007049039429553483
1180.0,0.007137328610972382
1179.0,0.007402303897961815
1178.0,0.007844288957383316
1177.0,0.008463824699968647
1176.0,0.009172949432521227
1175.0,0.010105436281226954
1174.0,0.011307297450183107
1173.0,0.012825498912458322
1172.0,0.014708281407112
1171.0,0.01677978535189717
1170.0,0.018725167293411005
1169.0,0.02026956933771462
1168.0,0.02122621566987748
1167.0,0.0214542995372613
1166.0,0.0211806132671577
1165.0,0.020497151212598652
1164.0,0.019678413991243593
1163.0,0.018861217359339655
1162.0,0.01809082990920774
1161.0,0.017457417697056554
1160.0,0.016960383953898095
1159.0,0.016599261819461697
1158.0,0.01632861713980338
1157.0,0.016148281008528276
1156.0,0.016058141016111804
1155.0,0.016058141016111804
1154.0,0.016058141016111804
1153.0,0.015922966097169144
1152.0,0.015607721475734415
1151.0,0.015067833932588037
1150.0,0.014393916947563534
1149.0,0.01372104409400876
1148.0,0.013004460275618523
1147.0,0.012289056869694281
1146.0,0.011664044143949504
1145.0,0.011039929609661936
1144.0,0.01046119667949763
1143.0,0.009883233932095559
1142.0,0.009350411681145587
1141.0,0.008862564879688284
1140.0,0.008419542825660153
1139.0,0.008065450281052211
1138.0,0.007755855953228474
1137.0,0.0074464821678643656
1136.0,0.007181479933320523
1135.0,0.00696076819309055
1134.0,0.006828394969235152
1133.0,0.006740168563263094
1132.0,0.006607862550997545
1131.0,0.006475596832934416
1130.0,0.006343371384537999
1129.0,0.00621118618129457
1128.0,0.00612308505878878
1127.0,0.00612308505878878
1126.0,0.006167133386013823
1125.0,0.00621118618129457
1124.0,0.006299305179649828
1123.0,0.006343371384537999
1122.0,0.006387442061109638
1121.0,0.006343371384537999
1120.0,0.006343371384537999
1119.0,0.006431517210272464
1118.0,0.00656376950238835
1117.0,0.006740168563263094
1116.0,0.006872514894289861
1115.0,0.007004901568658406
1114.0,0.007137328610972382
1113.0,0.007269796045857202
1112.0,0.0074464821678643656
1111.0,0.007711646202907652
1110.0,0.007976972236149349
1109.0,0.008242460465651913
1108.0,0.008640997362049818
1107.0,0.009128595198514056
1106.0,0.009705553871561357
1105.0,0.01023881228122181
1104.0,0.010639186223752484
1103.0,0.01086177578421088
1102.0,0.010817248744452446
1101.0,0.010594681998483901
1100.0,0.01023881228122181
1099.0,0.009838807101520963
1098.0,0.009483555971770974
1097.0,0.009128595198514056
1096.0,0.008773924307505121
1095.0,0.00850811108984062
1094.0,0.008198201155356077
1093.0,0.007932739972333236
1092.0,0.007667440952535687
1091.0,0.0074464821678643656
1090.0,0.007269796045857202
1089.0,0.007137328610972382
1088.0,0.007049039429553483
1087.0,0.006916639301937977
1086.0,0.006784279525863024
1085.0,0.006696062080525422
1084.0,0.006607862550997545
1083.0,0.006519680930003435
1082.0,0.006431517210272464
1081.0,0.006343371384537999
1080.0,0.006299305179649828
1079.0,0.00625524344553785
1078.0,0.00625524344553785
1077.0,0.006167133386013823
1076.0,0.006035001804881146
1075.0,0.005858888873877532
1074.0,0.005726851026829571
1073.0,0.005726851026829571
1072.0,0.005726851026829571
1071.0,0.005682847330363394
1070.0,0.005638848091999105
1069.0,0.005550862985963967
1068.0,0.005462895701502157
1067.0,0.005462895701502157
1066.0,0.005462895701502157
1065.0,0.005506877116487674
1064.0,0.005506877116487674
1063.0,0.005506877116487674
1062.0,0.00541891874010525
1061.0,0.00537494623139545
1060.0,0.005330978174470591
1059.0,0.005330978174470591
1058.0,0.005462895701502157
1057.0,0.005682847330363394
1056.0,0.00590291041179003
1055.0,0.006035001804881146
1054.0,0.006079041198713275
1053.0,0.006079041198713275
1052.0,0.006079041198713275
1051.0,0.00612308505878878
1050.0,0.006299305179649828
1049.0,0.00656376950238835
1048.0,0.006916639301937977
1047.0,0.007269796045857202
1046.0,0.007534852191956709
1045.0,0.00762324020119709
1044.0,0.007490664932224611
1043.0,0.007269796045857202
1042.0,0.007004901568658406
1041.0,0.006828394969235152
1040.0,0.006740168563263094
1039.0,0.006651960076740071
1038.0,0.00656376950238835
1037.0,0.006475596832934416
1036.0,0.006343371384537999
1035.0,0.00621118618129457
1034.0,0.006167133386013823
1033.0,0.00612308505878878
1032.0,0.00612308505878878
1031.0,0.00621118618129457
1030.0,0.006299305179649828
1029.0,0.006343371384537999
1028.0,0.006343371384537999
1027.0,0.006299305179649828
1026.0,0.006299305179649828
1025.0,0.006387442061109638
1024.0,0.006475596832934416
1023.0,0.006519680930003435
1022.0,0.00656376950238835
1021.0,0.006519680930003435
1020.0,0.006431517210272464
1019.0,0.006343371384537999
1018.0,0.00621118618129457
1017.0,0.00612308505878878
1016.0,0.005990966876386672
1015.0,0.005858888873877532
1014.0,0.005726851026829571
1013.0,0.005682847330363394
1012.0,0.005638848091999105
1011.0,0.005638848091999105
1010.0,0.00577085918230158
1009.0,0.005990966876386672
1008.0,0.006343371384537999
1007.0,0.006784279525863024
1006.0,0.007358130121602358
1005.0,0.008021209005416363
1004.0,0.008951223547323472
1003.0,0.010327752376126709
1002.0,0.012199714248127602
1001.0,0.01452861671041239
1000.0,0.017005545341335804
999.0,0.01899731005860028
998.0,0.01995115493504329
997.0,0.01954210772389997
996.0,0.017955020928509757
995.0,0.015742798294583915
994.0,0.013452186585275916
993.0,0.011441043121384498
992.0,0.009927665307847056
991.0,0.008862564879688284
990.0,0.008198201155356077
989.0,0.007755855953228474
988.0,0.007490664932224611
987.0,0.007313960837872058
986.0,0.007225635744644521
985.0,0.007313960837872058
984.0,0.0075790439479759275
983.0,0.008153946355103248
982.0,0.008951223547323472
981.0,0.009972101229705377
980.0,0.011396456654336085
979.0,0.01322826573375524
978.0,0.015517693597737248
977.0,0.018181392829336396
976.0,0.021043834782408455
975.0,0.02365002099672653
974.0,0.025488307262671706
973.0,0.025995203102585407
972.0,0.024890010313838973
971.0,0.02255077261765881
970.0,0.01954210772389997
969.0,0.016554142658660398
968.0,0.014079779876432497
967.0,0.01215504982870197
966.0,0.010728208358306901
965.0,0.009705553871561357
964.0,0.008862564879688284
963.0,0.008198201155356077
962.0,0.00762324020119709
961.0,0.007137328610972382
960.0,0.006740168563263094
959.0,0.006431517210272464
958.0,0.00612308505878878
957.0,0.00590291041179003
956.0,0.005726851026829571
955.0,0.005594853310833647
954.0,0.005462895701502157
953.0,0.005330978174470591
952.0,0.005199100705396198
951.0,0.005111204635089406
950.0,0.005023326350308999
949.0,0.005023326350308999
948.0,0.005111204635089406
947.0,0.005243055412371911
946.0,0.00541891874010525
945.0,0.005638848091999105
944.0,0.00590291041179003
943.0,0.006167133386013823
942.0,0.006475596832934416
941.0,0.006696062080525422
940.0,0.006784279525863024
939.0,0.006696062080525422
938.0,0.006387442061109638
937.0,0.005946936412324799
936.0,0.005506877116487674
935.0,0.005243055412371911
934.0,0.005067263269958211
933.0,0.004979393875242044
932.0,0.004935465843858511
931.0,0.004935465843858511
930.0,0.004935465843858511
929.0,0.004979393875242044
928.0,0.005111204635089406
927.0,0.005155150446602086
926.0,0.005111204635089406
925.0,0.004979393875242044
924.0,0.004935465843858511
923.0,0.004979393875242044
922.0,0.005111204635089406
921.0,0.005199100705396198
920.0,0.005155150446602086
919.0,0.005067263269958211
918.0,0.004935465843858511
917.0,0.00489154225525934
916.0,0.00489154225525934
915.0,0.004979393875242044
914.0,0.005067263269958211
913.0,0.005111204635089406
912.0,0.005155150446602086
911.0,0.005199100705396198
910.0,0.005330978174470591
909.0,0.005506877116487674
908.0,0.005682847330363394
907.0,0.00590291041179003
906.0,0.006299305179649828
905.0,0.007049039429553483
904.0,0.008153946355103248
903.0,0.009527946474380489
902.0,0.010995384301463185
901.0,0.012333735073725371
900.0,0.013273040668781544
899.0,0.013586594534531482
898.0,0.013093968619278806
897.0,0.011931796607364653
896.0,0.010416710688994968
895.0,0.008995559669244813
894.0,0.007800070204414977
893.0,0.006916639301937977
892.0,0.006299305179649828
891.0,0.00590291041179003
890.0,0.005726851026829571
889.0,0.005594853310833647
888.0,0.005462895701502157
887.0,0.0052870145684298375
886.0,0.005199100705396198
885.0,0.005243055412371911
884.0,0.00537494623139545
883.0,0.005462895701502157
882.0,0.005506877116487674
881.0,0.005462895701502157
880.0,0.005462895701502157
879.0,0.005638848091999105
878.0,0.005858888873877532
877.0,0.006079041198713275
876.0,0.006167133386013823
875.0,0.00625524344553785
874.0,0.006387442061109638
873.0,0.006431517210272464
872.0,0.006431517210272464
871.0,0.006431517210272464
870.0,0.006387442061109638
869.0,0.006387442061109638
868.0,0.006299305179649828
867.0,0.00625524344553785
866.0,0.00625524344553785
865.0,0.006387442061109638
864.0,0.00656376950238835
863.0,0.006740168563263094
862.0,0.006916639301937977
861.0,0.007093181776687496
860.0,0.007181479933320523
859.0,0.007225635744644521
858.0,0.007225635744644521
857.0,0.007269796045857202
856.0,0.007358130121602358
855.0,0.007534852191956709
854.0,0.00762324020119709
853.0,0.00762324020119709
852.0,0.00762324020119709
851.0,0.00762324020119709
850.0,0.007755855953228474
849.0,0.008065450281052211
848.0,0.008596697419959609
847.0,0.009306039320248427
846.0,0.01037222925484893
845.0,0.012065734767841452
844.0,0.01452861671041239
843.0,0.017457417697056554
842.0,0.019860222254245663
841.0,0.020542681902151694
840.0,0.019133445417920836
839.0,0.016373712875465518
838.0,0.013496984613259544
837.0,0.011307297450183107
836.0,0.009883233932095559
835.0,0.008995559669244813
834.0,0.008330992620051436
833.0,0.007932739972333236
832.0,0.00762324020119709
831.0,0.007402303897961815
830.0,0.007225635744644521
829.0,0.007049039429553483
828.0,0.006916639301937977
827.0,0.006696062080525422
826.0,0.006431517210272464
825.0,0.00621118618129457
824.0,0.006167133386013823
823.0,0.00621118618129457
822.0,0.006299305179649828
821.0,0.006475596832934416
820.0,0.006651960076740071
819.0,0.006872514894289861
818.0,0.007181479933320523
817.0,0.007534852191956709
816.0,0.008153946355103248
815.0,0.00908424549391551
814.0,0.010327752376126709
813.0,0.011842527443247208
812.0,0.013362604389846044
811.0,0.014798141635428141
810.0,0.015877917138889863
809.0,0.016418813294209356
808.0,0.01646391839700767
807.0,0.015922966097169144
806.0,0.015067833932588037
805.0,0.013990068146738865
804.0,0.013004460275618523
803.0,0.01215504982870197
802.0,0.011530229790124524
801.0,0.011084479487313281
800.0,0.010683695010048622
799.0,0.010327752376126709
798.0,0.009972101229705377
797.0,0.009705553871561357
796.0,0.009483555971770974
795.0,0.009306039320248427
794.0,0.009172949432521227
793.0,0.008951223547323472
792.0,0.008685301823389224
791.0,0.008419542825660153
790.0,0.008242460465651913
789.0,0.008109696063975047
788.0,0.007976972236149349
787.0,0.007711646202907652
786.0,0.007358130121602358
785.0,0.00696076819309055
784.0,0.006651960076740071
783.0,0.00656376950238835
782.0,0.006651960076740071
781.0,0.006828394969235152
780.0,0.00696076819309055
779.0,0.006916639301937977
778.0,0.006784279525863024
777.0,0.006696062080525422
776.0,0.006740168563263094
775.0,0.006872514894289861
774.0,0.006916639301937977
773.0,0.006916639301937977
772.0,0.006872514894289861
771.0,0.006916639301937977
770.0,0.007137328610972382
769.0,0.007402303897961815
768.0,0.00762324020119709
767.0,0.007711646202907652
766.0,0.00762324020119709
765.0,0.007490664932224611
764.0,0.007490664932224611
763.0,0.007711646202907652
762.0,0.008065450281052211
761.0,0.008286724286910463
760.0,0.008419542825660153
759.0,0.00850811108984062
758.0,0.008773924307505121
757.0,0.009128595198514056
756.0,0.00939478857608056
755.0,0.009483555971770974
754.0,0.009527946474380489
753.0,0.009705553871561357
752.0,0.01001654169860089
751.0,0.01023881228122181
750.0,0.010327752376126709
749.0,0.010194349063173958
748.0,0.01001654169860089
747.0,0.009927665307847056
746.0,0.01001654169860089
745.0,0.01023881228122181
744.0,0.01046119667949763
743.0,0.010683695010048622
742.0,0.01086177578421088
741.0,0.010995384301463185
740.0,0.011129033935354915
739.0,0.011218156546359825
738.0,0.011262724711199823
737.0,0.011307297450183107
736.0,0.011485634166333858
735.0,0.012021084124518078
734.0,0.013004460275618523
733.0,0.01452861671041239
732.0,0.016193358021584725
731.0,0.017457417697056554
730.0,0.017909760704207134
729.0,0.017502630802287644
728.0,0.016734647433454652
727.0,0.016103208673694303
726.0,0.015922966097169144
725.0,0.016013078034810446
724.0,0.01632861713980338
723.0,0.016870075265299933
722.0,0.017774008325325275
721.0,0.018906576854070378
720.0,0.019632973815224997
719.0,0.019360432556262852
718.0,0.018271974638383703
717.0,0.016870075265299933
716.0,0.015697768020096703
715.0,0.014932966849499074
714.0,0.014438812226654996
713.0,0.014079779876432497
712.0,0.01372104409400876
711.0,0.013317820220494436
710.0,0.013138729709955221
709.0,0.013362604389846044
708.0,0.014124642691606404
707.0,0.015067833932588037
706.0,0.016058141016111804
705.0,0.017231422748988034
704.0,0.018770512579999288
703.0,0.020633757603838898
702.0,0.022367834754000393
701.0,0.023695883447997224
700.0,0.024476287039668643
699.0,0.024706084643793647
698.0,0.024292536462819925
697.0,0.023374947949272418
696.0,0.02200219004126036
695.0,0.020497151212598652
694.0,0.019133445417920836
693.0,0.018136109008649592
692.0,0.017547848615010242
691.0,0.017231422748988034
690.0,0.017005545341335804
689.0,0.016644385668211692
688.0,0.01632861713980338
687.0,0.016148281008528276
686.0,0.016193358021584725
685.0,0.01628352608625061
684.0,0.016373712875465518
683.0,0.016418813294209356
682.0,0.016554142658660398
681.0,0.016689514205884493
680.0,0.016734647433454652
679.0,0.016599261819461697
678.0,0.01632861713980338
677.0,0.016058141016111804
676.0,0.015832872853011715
675.0,0.015607721475734415
674.0,0.015292705517326866
673.0,0.014977917890464765
672.0,0.014663358264387139
671.0,0.01452861671041239
670.0,0.014663358264387139
669.0,0.015337693809893471
668.0,0.016238439713835096
667.0,0.016373712875465518
666.0,0.015652742414136167
665.0,0.014798141635428141
664.0,0.01403492169512921
663.0,0.013541787262693505
662.0,0.013362604389846044
661.0,0.013362604389846044
660.0,0.013362604389846044
659.0,0.013273040668781544
658.0,0.013049212141483357
657.0,0.012736045877764557
656.0,0.012423105273012602
655.0,0.012110390002254778
654.0,0.011619434777991433
653.0,0.010995384301463185
652.0,0.010505687227290839
651.0,0.01037222925484893
650.0,0.01086177578421088
649.0,0.011842527443247208
648.0,0.013004460275618523
647.0,0.013676222949234651
646.0,0.013676222949234651
645.0,0.013317820220494436
644.0,0.013004460275618523
643.0,0.012825498912458322
642.0,0.012557195064198723
641.0,0.012557195064198723
640.0,0.013273040668781544
639.0,0.014932966849499074
638.0,0.016960383953898095
637.0,0.018543833477873584
636.0,0.0190880622231564
635.0,0.01845319495476394
634.0,0.017186237868137555
633.0,0.01596801972881945
632.0,0.015337693809893471
631.0,0.015292705517326866
630.0,0.015427684378367834
629.0,0.015697768020096703
628.0,0.016193358021584725
627.0,0.016824927962187042
626.0,0.017367005605150476
625.0,0.017547848615010242
624.0,0.017457417697056554
623.0,0.017321806616515723
622.0,0.017141057687924732
621.0,0.01677978535189717
620.0,0.016238439713835096
619.0,0.015742798294583915
618.0,0.015427684378367834
617.0,0.015247721884586563
616.0,0.014977917890464765
615.0,0.014438812226654996
614.0,0.01372104409400876
613.0,0.013004460275618523
612.0,0.012512493866907004
611.0,0.012557195064198723
610.0,0.012870232340102872
609.0,0.01322826573375524
608.0,0.013496984613259544
607.0,0.01372104409400876
606.0,0.01381070026317599
605.0,0.013317820220494436
604.0,0.012021084124518078
603.0,0.01037222925484893
602.0,0.008818242332126802
601.0,0.0075790439479759275
600.0,0.006784279525863024
