cm-1,A
4000.0,0.009128595198514056
3999.0,0.009261671492462709
3998.0,0.009350411681145587
3997.0,0.009350411681145587
3996.0,0.009306039320248427
3995.0,0.009261671492462709
3994.0,0.009217308196862062
3993.0,0.009217308196862062
3992.0,0.009261671492462709
3991.0,0.009261671492462709
3990.0,0.009306039320248427
3989.0,0.009261671492462709
3988.0,0.009261671492462709
3987.0,0.009261671492462709
3986.0,0.009217308196862062
3985.0,0.009172949432521227
3984.0,0.009128595198514056
3983.0,0.009128595198514056
3982.0,0.009128595198514056
3981.0,0.009172949432521227
3980.0,0.009217308196862062
3979.0,0.009261671492462709
3978.0,0.009306039320248427
3977.0,0.009306039320248427
3976.0,0.009350411681145587
3975.0,0.00939478857608056
3974.0,0.00939478857608056
3973.0,0.00939478857608056
3972.0,0.009350411681145587
3971.0,0.009306039320248427
3970.0,0.009306039320248427
3969.0,0.009306039320248427
3968.0,0.009350411681145587
3967.0,0.009306039320248427
3966.0,0.009306039320248427
3965.0,0.009261671492462709
3964.0,0.009261671492462709
3963.0,0.009261671492462709
3962.0,0.009306039320248427
3961.0,0.009306039320248427
3960.0,0.009306039320248427
3959.0,0.009306039320248427
3958.0,0.009261671492462709
3957.0,0.009261671492462709
3956.0,0.009306039320248427
3955.0,0.009350411681145587
3954.0,0.00939478857608056
3953.0,0.009439170005980158
3952.0,0.009483555971770974
3951.0,0.009483555971770974
3950.0,0.009439170005980158
3949.0,0.00939478857608056
3948.0,0.009350411681145587
3947.0,0.009306039320248427
3946.0,0.009261671492462709
3945.0,0.009306039320248427
3944.0,0.009350411681145587
3943.0,0.00939478857608056
3942.0,0.009439170005980158
3941.0,0.009483555971770974
3940.0,0.009483555971770974
3939.0,0.009483555971770974
3938.0,0.009439170005980158
3937.0,0.00939478857608056
3936.0,0.00939478857608056
3935.0,0.00939478857608056
3934.0,0.009439170005980158
3933.0,0.009483555971770974
3932.0,0.009483555971770974
3931.0,0.009527946474380489
3930.0,0.009527946474380489
3929.0,0.009527946474380489
3928.0,0.009616741093766423
3927.0,0.00966114521239847
3926.0,0.00966114521239847
3925.0,0.009616741093766423
3924.0,0.009572341514736404
3923.0,0.009572341514736404
3922.0,0.009616741093766423
3921.0,0.009616741093766423
3920.0,0.009572341514736404
3919.0,0.009483555971770974
3918.0,0.00939478857608056
3917.0,0.009350411681145587
3916.0,0.009350411681145587
3915.0,0.009439170005980158
3914.0,0.009527946474380489
3913.0,0.009572341514736404
3912.0,0.009572341514736404
3911.0,0.009572341514736404
3910.0,0.009572341514736404
3909.0,0.009572341514736404
3908.0,0.009572341514736404
3907.0,0.009527946474380489
3906.0,0.009439170005980158
3905.0,0.009350411681145587
3904.0,0.009350411681145587
3903.0,0.009439170005980158
3902.0,0.009572341514736404
3901.0,0.00966114521239847
3900.0,0.009616741093766423
3899.0,0.009572341514736404
3898.0,0.009572341514736404
3897.0,0.009527946474380489
3896.0,0.009572341514736404
3895.0,0.009572341514736404
3894.0,0.00966114521239847
3893.0,0.009705553871561357
3892.0,0.00966114521239847
3891.0,0.009572341514736404
3890.0,0.009527946474380489
3889.0,0.009572341514736404
3888.0,0.00966114521239847
3887.0,0.009705553871561357
3886.0,0.00966114521239847
3885.0,0.009705553871561357
3884.0,0.00974996707218323
3883.0,0.009838807101520963
3882.0,0.009794384815193347
3881.0,0.00974996707218323
3880.0,0.009705553871561357
3879.0,0.009794384815193347
3878.0,0.009883233932095559
3877.0,0.009972101229705377
3876.0,0.009927665307847056
3875.0,0.009838807101520963
3874.0,0.009838807101520963
3873.0,0.009972101229705377
3872.0,0.010105436281226954
3871.0,0.010060986715464404
3870.0,0.009838807101520963
3869.0,0.009705553871561357
3868.0,0.009705553871561357
3867.0,0.00974996707218323
3866.0,0.00974996707218323
3865.0,0.009705553871561357
3864.0,0.009838807101520963
3863.0,0.009972101229705377
3862.0,0.01001654169860089
3861.0,0.009972101229705377
3860.0,0.009883233932095559
3859.0,0.009794384815193347
3858.0,0.009794384815193347
3857.0,0.009838807101520963
3856.0,0.009794384815193347
3855.0,0.009572341514736404
3854.0,0.009439170005980158
3853.0,0.009527946474380489
3852.0,0.00966114521239847
3851.0,0.009794384815193347
3850.0,0.009838807101520963
3849.0,0.009838807101520963
3848.0,0.009838807101520963
3847.0,0.009883233932095559
3846.0,0.009972101229705377
3845.0,0.010060986715464404
3844.0,0.010105436281226954
3843.0,0.010149890396819572
3842.0,0.01023881228122181
3841.0,0.010283280051895272
3840.0,0.010194349063173958
3839.0,0.010060986715464404
3838.0,0.009927665307847056
3837.0,0.009883233932095559
3836.0,0.009927665307847056
3835.0,0.009972101229705377
3834.0,0.009927665307847056
3833.0,0.009883233932095559
3832.0,0.009838807101520963
3831.0,0.009838807101520963
3830.0,0.009927665307847056
3829.0,0.01001654169860089
3828.0,0.010060986715464404
3827.0,0.01001654169860089
3826.0,0.009972101229705377
3825.0,0.01001654169860089
3824.0,0.010149890396819572
3823.0,0.010194349063173958
3822.0,0.010060986715464404
3821.0,0.009927665307847056
3820.0,0.009927665307847056
3819.0,0.01001654169860089
3818.0,0.01001654169860089
3817.0,0.009883233932095559
3816.0,0.009705553871561357
3815.0,0.00974996707218323
3814.0,0.009838807101520963
3813.0,0.009883233932095559
3812.0,0.009883233932095559
3811.0,0.009883233932095559
3810.0,0.009927665307847056
3809.0,0.010060986715464404
3808.0,0.010060986715464404
3807.0,0.01001654169860089
3806.0,0.010060986715464404
3805.0,0.01023881228122181
3804.0,0.01037222925484893
3803.0,0.010283280051895272
3802.0,0.010060986715464404
3801.0,0.009972101229705377
3800.0,0.009972101229705377
3799.0,0.010060986715464404
3798.0,0.010105436281226954
3797.0,0.010105436281226954
3796.0,0.010105436281226954
3795.0,0.010105436281226954
3794.0,0.010149890396819572
3793.0,0.010149890396819572
3792.0,0.010105436281226954
3791.0,0.010105436281226954
3790.0,0.010060986715464404
3789.0,0.01001654169860089
3788.0,0.01001654169860089
3787.0,0.01001654169860089
3786.0,0.01001654169860089
3785.0,0.01001654169860089
3784.0,0.01001654169860089
3783.0,0.01001654169860089
3782.0,0.010060986715464404
3781.0,0.01001654169860089
3780.0,0.009972101229705377
3779.0,0.009927665307847056
3778.0,0.009972101229705377
3777.0,0.010060986715464404
3776.0,0.010149890396819572
3775.0,0.010194349063173958
3774.0,0.01023881228122181
3773.0,0.010283280051895272
3772.0,0.010283280051895272
3771.0,0.010194349063173958
3770.0,0.010149890396819572
3769.0,0.010149890396819572
3768.0,0.010194349063173958
3767.0,0.010283280051895272
3766.0,0.010283280051895272
3765.0,0.010283280051895272
3764.0,0.010283280051895272
3763.0,0.010327752376126709
3762.0,0.01037222925484893
3761.0,0.01037222925484893
3760.0,0.01037222925484893
3759.0,0.010416710688994968
3758.0,0.010416710688994968
3757.0,0.010416710688994968
3756.0,0.01046119667949763
3755.0,0.010550182333308289
3754.0,0.010594681998483901
3753.0,0.010594681998483901
3752.0,0.010505687227290839
3751.0,0.01037222925484893
3750.0,0.010194349063173958
3749.0,0.010060986715464404
3748.0,0.010194349063173958
3747.0,0.010505687227290839
3746.0,0.010639186223752484
3745.0,0.01046119667949763
3744.0,0.010283280051895272
3743.0,0.010149890396819572
3742.0,0.010194349063173958
3741.0,0.010194349063173958
3740.0,0.01023881228122181
3739.0,0.010327752376126709
3738.0,0.010327752376126709
3737.0,0.010327752376126709
3736.0,0.01037222925484893
3735.0,0.01046119667949763
3734.0,0.010505687227290839
3733.0,0.01037222925484893
3732.0,0.010149890396819572
3731.0,0.01001654169860089
3730.0,0.009972101229705377
3729.0,0.009972101229705377
3728.0,0.009972101229705377
3727.0,0.01001654169860089
3726.0,0.010149890396819572
3725.0,0.010327752376126709
3724.0,0.01046119667949763
3723.0,0.01046119667949763
3722.0,0.010416710688994968
3721.0,0.01037222925484893
3720.0,0.010416710688994968
3719.0,0.010505687227290839
3718.0,0.010594681998483901
3717.0,0.010683695010048622
3716.0,0.010683695010048622
3715.0,0.010683695010048622
3714.0,0.010594681998483901
3713.0,0.010505687227290839
3712.0,0.010594681998483901
3711.0,0.01077272626946324
3710.0,0.01086177578421088
3709.0,0.010817248744452446
3708.0,0.010728208358306901
3707.0,0.010639186223752484
3706.0,0.010639186223752484
3705.0,0.010728208358306901
3704.0,0.01086177578421088
3703.0,0.010995384301463185
3702.0,0.010995384301463185
3701.0,0.010995384301463185
3700.0,0.011039929609661936
3699.0,0.011084479487313281
3698.0,0.011084479487313281
3697.0,0.011084479487313281
3696.0,0.011084479487313281
3695.0,0.011129033935354915
3694.0,0.011262724711199823
3693.0,0.011396456654336085
3692.0,0.011574829993696856
3691.0,0.011797899741219142
3690.0,0.011931796607364653
3689.0,0.011887159731648111
3688.0,0.011797899741219142
3687.0,0.011708658092512314
3686.0,0.011753276624621556
3685.0,0.011797899741219142
3684.0,0.011887159731648111
3683.0,0.011931796607364653
3682.0,0.0119764380713403
3681.0,0.0119764380713403
3680.0,0.012021084124518078
3679.0,0.012199714248127602
3678.0,0.012467797270160563
3677.0,0.01264661126420652
3676.0,0.012825498912458322
3675.0,0.012870232340102872
3674.0,0.012959713020733288
3673.0,0.013049212141483357
3672.0,0.013049212141483357
3671.0,0.013004460275618523
3670.0,0.013093968619278806
3669.0,0.01318349541446362
3668.0,0.013273040668781544
3667.0,0.013273040668781544
3666.0,0.013317820220494436
3665.0,0.013362604389846044
3664.0,0.013496984613259544
3663.0,0.013631406429727155
3662.0,0.01372104409400876
3661.0,0.01381070026317599
3660.0,0.01385553528947936
3659.0,0.013990068146738865
3658.0,0.014079779876432497
3657.0,0.014169510141607944
3656.0,0.014304140310157809
3655.0,0.0144837121472845
3654.0,0.014753209197138295
3653.0,0.015022873584506602
3652.0,0.015292705517326866
3651.0,0.015427684378367834
3650.0,0.015697768020096703
3649.0,0.01596801972881945
3648.0,0.016148281008528276
3647.0,0.016193358021584725
3646.0,0.016193358021584725
3645.0,0.01628352608625061
3644.0,0.016373712875465518
3643.0,0.01646391839700767
3642.0,0.016644385668211692
3641.0,0.016870075265299933
3640.0,0.017050711425501408
3639.0,0.017231422748988034
3638.0,0.017457417697056554
3637.0,0.017638298366853045
3636.0,0.017864505196230507
3635.0,0.01800028587012159
3634.0,0.01809082990920774
3633.0,0.018181392829336396
3632.0,0.01831727262871463
3631.0,0.018362575344230914
3630.0,0.018498511851753108
3629.0,0.018861217359339655
3628.0,0.019178833355664393
3627.0,0.019451260640229506
3626.0,0.019678413991243593
3625.0,0.019814763052665052
3624.0,0.019996628416253603
3623.0,0.02022406727031445
3622.0,0.02045162529590483
3621.0,0.02067930261797568
3620.0,0.020861530453190058
3619.0,0.021135015652343103
3618.0,0.0214542995372613
3617.0,0.021819483062586187
3616.0,0.0221849739168134
3615.0,0.02245929405346514
3614.0,0.022688026603074007
3613.0,0.022871099419317753
3612.0,0.023054249440757957
3611.0,0.023191662661933732
3610.0,0.023374947949272418
3609.0,0.023604163388120325
3608.0,0.023971159908874107
3607.0,0.024338466818941473
3606.0,0.024660115394541604
3605.0,0.024936003904763915
3604.0,0.025074013910237447
3603.0,0.02521206778644225
3602.0,0.025350165561278004
3601.0,0.02553436426275746
3600.0,0.025718641122169483
3599.0,0.025856900097785074
3598.0,0.025995203102585407
3597.0,0.02613355016462182
3596.0,0.026271941311972746
3595.0,0.026502691267936695
3594.0,0.026733563891471412
3593.0,0.02691835039863255
3592.0,0.02710321556345563
3591.0,0.027334407733889066
3590.0,0.027565723042634938
3589.0,0.027843464140506313
3588.0,0.02812138297373412
3587.0,0.028353117935693284
3586.0,0.028538594975413334
3585.0,0.02872415126189476
3584.0,0.02890978686288448
3583.0,0.029141943003497595
3582.0,0.029374223311705583
3581.0,0.029653123769906697
3580.0,0.029885677714903025
3579.0,0.030118356253500123
3578.0,0.03030458888152676
3577.0,0.030537492025363155
3576.0,0.0307239045110681
3575.0,0.030910397045078586
3574.0,0.031096969696171817
3573.0,0.031236951802751545
3572.0,0.03137697904301118
3571.0,0.03151705144606498
3570.0,0.03170388495374454
3569.0,0.03193753992355086
3568.0,0.03226486821611996
3567.0,0.03263926003405038
3566.0,0.032920265855503006
3565.0,0.03310770413286357
3564.0,0.0332483359486222
3563.0,0.03338901331806565
3562.0,0.03352973627071565
3561.0,0.03362357691107709
3560.0,0.03376437590141812
3559.0,0.033952178923546183
3558.0,0.03414006319292828
3557.0,0.03442204208947208
3556.0,0.03465716443937783
3555.0,0.03484535401307465
3554.0,0.03503362516890207
3553.0,0.03522197797762394
3552.0,0.03545753392086315
3551.0,0.035693217696063595
3550.0,0.03588185684851508
3549.0,0.0360705779734416
3548.0,0.03621217265444465
3547.0,0.03644826642590382
3546.0,0.036731748473764814
3545.0,0.037062711569998186
3544.0,0.037299268295658994
3543.0,0.037583306554248797
3542.0,0.03782014709123227
3541.0,0.038057116858612794
3540.0,0.038199360808321536
3539.0,0.038341651362284734
3538.0,0.038436537637930535
3537.0,0.038531444649213764
3536.0,0.038721320914956836
3535.0,0.038958783046687984
3534.0,0.03914884628031379
3533.0,0.039338992729018196
3532.0,0.03948165721929198
3531.0,0.03962436858984186
3530.0,0.03981472339538916
3529.0,0.0400527842915015
3528.0,0.040338629726504704
3527.0,0.04057697805689475
3526.0,0.04076775094900409
3525.0,0.04091088563260792
3524.0,0.041149548320321694
3523.0,0.04138834223512067
3522.0,0.04167506835594681
3521.0,0.041914151478914974
3520.0,0.04215336629184985
3519.0,0.042344833056508824
3518.0,0.04248848854552012
3517.0,0.04263219156847242
3516.0,0.04282386959515394
3515.0,0.04301563225723992
3514.0,0.04320747962950522
3513.0,0.04339941178682327
3512.0,0.04359142880416744
3511.0,0.0437835307566099
3510.0,0.04402377775167454
3509.0,0.044312249686494276
3508.0,0.04460091336073302
3507.0,0.044793462458058375
3506.0,0.044937930324967956
3505.0,0.04513062893352182
3504.0,0.045323413081356456
3503.0,0.045660991397539874
3502.0,0.04595055323640551
3501.0,0.046192002334692894
3500.0,0.04638525830935958
3499.0,0.04657860031896477
3498.0,0.04667530361081473
3497.0,0.04677202844014605
3496.0,0.0469171560879138
3495.0,0.04711073508906982
3494.0,0.04730440041308315
3493.0,0.04754660357696672
3492.0,0.04774046340917959
3491.0,0.047885915093007325
3490.0,0.04807992647970649
3489.0,0.04832256265669943
3488.0,0.048565334467987054
3487.0,0.04885683989244738
3486.0,0.04909991063361274
3485.0,0.04934311749548925
3484.0,0.04948910701400333
3483.0,0.04963514562387683
3482.0,0.04987865248862655
3481.0,0.05012229596312534
3480.0,0.050317309204795935
3479.0,0.05051241005349638
3478.0,0.05065879322950262
3477.0,0.05085404758005607
3476.0,0.05100054597304693
3475.0,0.05119595406718891
3474.0,0.05134256785867963
3473.0,0.05153812993871654
3472.0,0.05173378011970464
3471.0,0.05192951848105887
3470.0,0.05217431555754937
3469.0,0.052419250695677544
3468.0,0.05266432405126009
3467.0,0.05290953578037816
3466.0,0.0531548860393769
3465.0,0.053351266093323746
3464.0,0.0534986094304124
3463.0,0.053646002773725554
3462.0,0.05379344615721715
3461.0,0.05394093961487645
3460.0,0.054088483180726676
3459.0,0.05428528594013993
3458.0,0.05443294655761144
3457.0,0.05458065739693696
3456.0,0.05477768336465916
3455.0,0.05502409158795207
3454.0,0.05531996611868961
3453.0,0.055566682299785564
3452.0,0.05581353871631256
3451.0,0.055912320584565744
3450.0,0.05601112492622806
3449.0,0.056159373598738904
3448.0,0.05635711724787096
3447.0,0.05665390164340933
3446.0,0.05690137699451481
3445.0,0.05709945885970602
3444.0,0.05724807957018618
3443.0,0.05734718830678798
3442.0,0.05749589383191922
3441.0,0.05764465029232335
3440.0,0.05779345772290467
3439.0,0.05799194697768684
3438.0,0.05824018618530458
3437.0,0.05848856736559682
3436.0,0.058737090681050264
3435.0,0.0588862729628985
3434.0,0.059035506507200575
3433.0,0.059135024033278416
3432.0,0.05933412752417122
3431.0,0.05953332233647113
3430.0,0.05973260855398799
3429.0,0.05988213325228142
3428.0,0.05993198626064755
3427.0,0.05998184499233683
3426.0,0.05998184499233683
3425.0,0.060131455540490375
3424.0,0.06033101647767336
3423.0,0.06058059667068294
3422.0,0.06078036414518184
3421.0,0.06093025007657582
3420.0,0.0611301784870133
3419.0,0.06133019897732073
3418.0,0.06153031163235467
3417.0,0.061680456657844385
3416.0,0.061780582187257016
3415.0,0.061830653609679764
3414.0,0.06193081377661436
3413.0,0.06203099704854709
3412.0,0.06218131530164395
3411.0,0.06223143295006417
3410.0,0.06223143295006417
3409.0,0.062281556382736136
3408.0,0.062331685600995
3407.0,0.062381820606176586
3406.0,0.06248210798265341
3405.0,0.06263258248271053
3404.0,0.0627329277885873
3403.0,0.06293368798257193
3402.0,0.06313454102437754
3401.0,0.06328524178879635
3400.0,0.06338573802478864
3399.0,0.06343599486473406
3398.0,0.06343599486473406
3397.0,0.06343599486473406
3396.0,0.06348625752110681
3395.0,0.06353652599525317
3394.0,0.06363708040225546
3393.0,0.0636873663378068
3392.0,0.06378795567975115
3391.0,0.06383825908884244
3390.0,0.06393888339001164
3389.0,0.06398920428479049
3388.0,0.06403953101083348
3387.0,0.06403953101083348
3386.0,0.06408986356949264
3385.0,0.06414020196211956
3384.0,0.06419054619006714
3383.0,0.06424089625468832
3382.0,0.06419054619006714
3381.0,0.06414020196211956
3380.0,0.06414020196211956
3379.0,0.06414020196211956
3378.0,0.06414020196211956
3377.0,0.06414020196211956
3376.0,0.06414020196211956
3375.0,0.06414020196211956
3374.0,0.06414020196211956
3373.0,0.06403953101083348
3372.0,0.06393888339001164
3371.0,0.06383825908884244
3370.0,0.06383825908884244
3369.0,0.06383825908884244
3368.0,0.06388856832514578
3367.0,0.06393888339001164
3366.0,0.06388856832514578
3365.0,0.06378795567975115
3364.0,0.0636873663378068
3363.0,0.06363708040225546
3362.0,0.06358680028852026
3361.0,0.06358680028852026
3360.0,0.06353652599525317
3359.0,0.06353652599525317
3358.0,0.06348625752110681
3357.0,0.06343599486473406
3356.0,0.06328524178879635
3355.0,0.06318476880236723
3354.0,0.0630843190547461
3353.0,0.06303410289212974
3352.0,0.06303410289212974
3351.0,0.06293368798257193
3350.0,0.06278310913729457
3349.0,0.06263258248271053
3348.0,0.06253226035662252
3347.0,0.06243196139961715
3346.0,0.062331685600995
3345.0,0.06218131530164395
3344.0,0.06208109735221967
3343.0,0.06193081377661436
3342.0,0.061830653609679764
3341.0,0.061830653609679764
3340.0,0.061830653609679764
3339.0,0.061830653609679764
3338.0,0.061780582187257016
3337.0,0.061680456657844385
3336.0,0.06153031163235467
3335.0,0.06133019897732073
3334.0,0.0611301784870133
3333.0,0.06093025007657582
3332.0,0.06078036414518184
3331.0,0.06063052992534024
3330.0,0.06048074738138154
3329.0,0.06038092104330195
3328.0,0.06033101647767336
3327.0,0.06028111764589528
3326.0,0.0601813371786204
3325.0,0.06003170944866376
3324.0,0.05983228596592505
3323.0,0.05963295401433477
3322.0,0.05948351506743288
3321.0,0.05938391766259232
3320.0,0.05923456436878238
3319.0,0.05908526241971446
3318.0,0.0588862729628985
3317.0,0.05868737463933793
3316.0,0.058538260652670315
3315.0,0.0583395216116076
3314.0,0.058190526991161784
3313.0,0.05814087347462649
3312.0,0.05804158346918653
3311.0,0.05794231615860479
3310.0,0.05784307153250956
3309.0,0.05764465029232335
3308.0,0.05749589383191922
3307.0,0.05734718830678798
3306.0,0.057198533682059516
3305.0,0.057049929922901255
3304.0,0.05690137699451481
3303.0,0.05680236993107379
3302.0,0.05665390164340933
3301.0,0.05655495097496965
3300.0,0.056406567231630955
3299.0,0.05625823416868636
3298.0,0.05606053552778367
3297.0,0.055912320584565744
3296.0,0.055764156206519866
3295.0,0.05566540802921782
3294.0,0.05551732784983132
3293.0,0.05536929814372171
3292.0,0.055172003656783764
3291.0,0.0549747987575373
3290.0,0.05482695382609992
3289.0,0.054728418492290265
3288.0,0.05458065739693696
3287.0,0.05443294655761144
3286.0,0.05428528594013993
3285.0,0.05413767551038262
3284.0,0.05399011523423525
3283.0,0.053842605077627725
3282.0,0.05369514500652506
3281.0,0.053596866100945384
3280.0,0.0534986094304124
3279.0,0.05340037498486727
3278.0,0.05330216275425803
3277.0,0.053203972728539606
3276.0,0.05305672930217464
3275.0,0.05286048235717078
3274.0,0.052762392129333646
3273.0,0.05266432405126009
3272.0,0.05261529831525902
3271.0,0.0525172634430815
3270.0,0.05237025261564554
3269.0,0.05222329153526162
3268.0,0.05207638016827354
3267.0,0.05197846685889629
3266.0,0.05188057561946402
3265.0,0.05178270644002936
3264.0,0.05173378011970464
3263.0,0.051684859310652254
3262.0,0.05163594401163074
3261.0,0.05148923116234294
3260.0,0.05139145012356372
3259.0,0.051244819831730126
3258.0,0.051049389754451946
3257.0,0.050902874887084115
3256.0,0.05075640943173498
3255.0,0.0506099933550872
3254.0,0.05051241005349638
3253.0,0.050463626623857394
3252.0,0.050414848673348
3251.0,0.05036607620073763
3250.0,0.05026854768429301
3249.0,0.05012229596312534
3248.0,0.049927370249842395
3247.0,0.04978123335813667
3246.0,0.04963514562387683
3245.0,0.04958646063061889
3244.0,0.04953778109440221
3243.0,0.04958646063061889
3242.0,0.04958646063061889
3241.0,0.04958646063061889
3240.0,0.04939177521576932
3239.0,0.049148541111453614
3238.0,0.048905443158337114
3237.0,0.0486139051197072
3236.0,0.04841965509660828
3235.0,0.04827402457540786
3234.0,0.04817696468408794
3233.0,0.04803141550708934
3232.0,0.047934409814949674
3231.0,0.04778894189133087
3230.0,0.047595060422975566
3229.0,0.04744970610179822
3228.0,0.04730440041308315
3227.0,0.04715914332429838
3226.0,0.04696554274964315
3225.0,0.04672366333269573
3224.0,0.04653025674659861
3223.0,0.04638525830935958
3222.0,0.04624030826677128
3221.0,0.04609540658654021
3220.0,0.04585401117045196
3219.0,0.045612749855485024
3218.0,0.04541983725624266
3217.0,0.04527520902093718
3216.0,0.0451788169482068
3215.0,0.04503426894157925
3214.0,0.04488976902944808
3213.0,0.04464904263234004
3212.0,0.044456557540257124
3211.0,0.04426415772233416
3210.0,0.04411991377462465
3209.0,0.04402377775167454
3208.0,0.0439276630048171
3207.0,0.0437835307566099
3206.0,0.04359142880416744
3205.0,0.043303435105349175
3204.0,0.043063586155803746
3203.0,0.04282386959515394
3202.0,0.04263219156847242
3201.0,0.04248848854552012
3200.0,0.04229695845116854
3199.0,0.04210551278710151
3198.0,0.04181850243505214
3197.0,0.041579471947481794
3196.0,0.04129280891271536
3195.0,0.041101805289228244
3194.0,0.04091088563260792
3193.0,0.04072004986906119
3192.0,0.04057697805689475
3191.0,0.04043395336207234
3190.0,0.0402909757535701
3189.0,0.04010041213405646
3188.0,0.03986232513620536
3187.0,0.03957679292217042
3186.0,0.03929144831144349
3185.0,0.03910132267333921
3184.0,0.038911280232103884
3183.0,0.038721320914956836
3182.0,0.038531444649213764
3181.0,0.03829421599749461
3180.0,0.03800971255993524
3179.0,0.03777276864991497
3178.0,0.037583306554248797
3177.0,0.03744126420403626
3176.0,0.037299268295658994
3175.0,0.0371573187987575
3174.0,0.0369681249461018
3173.0,0.036731748473764814
3172.0,0.03649550058570927
3171.0,0.03621217265444465
3170.0,0.03597620715996652
3169.0,0.035693217696063595
3168.0,0.03550466044490741
3167.0,0.03526907894637077
3166.0,0.03508070571335731
3165.0,0.0349394793888016
3164.0,0.03475124903287918
3163.0,0.03456310022373987
3162.0,0.03437503289075727
3161.0,0.03414006319292828
3160.0,0.033905220553829274
3159.0,0.03367050483612166
3158.0,0.03352973627071565
3157.0,0.03334211579824231
3156.0,0.033154576345083564
3155.0,0.03301397488206215
3154.0,0.03282657704446046
3153.0,0.032686081712916426
3152.0,0.03249882527715853
3151.0,0.032311649546687526
3150.0,0.03207779326948268
3149.0,0.03184406285002961
3148.0,0.031657169041054534
3147.0,0.03147035562516054
3146.0,0.03133029827960798
3145.0,0.031190286087141805
3144.0,0.031003673351687855
3143.0,0.03081714076773867
3142.0,0.03063068826647264
3141.0,0.030444315779156517
3140.0,0.030211462585061133
3139.0,0.03002526987828502
3138.0,0.029792641193145286
3137.0,0.02960662792039992
3136.0,0.02942069428514915
3135.0,0.029234840219232394
3134.0,0.02904906565457588
3133.0,0.028863370523193765
3132.0,0.028677754757187035
3131.0,0.02849221828874393
3130.0,0.02826040911222183
3129.0,0.028028723600243666
3128.0,0.027843464140506313
3127.0,0.0277045713888604
3126.0,0.027565723042634938
3125.0,0.02747318213414429
3124.0,0.027334407733889066
3123.0,0.027149444152769986
3122.0,0.02696455931306696
3121.0,0.02677975314776626
3120.0,0.02664120011360227
3119.0,0.026456531467510258
3118.0,0.026318081496016443
3117.0,0.02617967564731627
3116.0,0.026041313893296225
3115.0,0.025856900097785074
3114.0,0.025672564576383117
3113.0,0.02544225514642018
3112.0,0.02521206778644225
3111.0,0.025028005701930978
3110.0,0.024890010313838973
3109.0,0.02475205875931885
3108.0,0.02461415101053266
3107.0,0.024476287039668643
3106.0,0.02438440203310499
3105.0,0.024292536462819925
3104.0,0.024200690320592466
3103.0,0.024108863598207186
3102.0,0.023971159908874107
3101.0,0.023833499868024743
3100.0,0.02365002099672653
3099.0,0.023466619608062178
3098.0,0.023283295636617574
3097.0,0.02314585342378117
3096.0,0.02300845469384938
3095.0,0.022871099419317753
3094.0,0.022733787572707387
3093.0,0.02255077261765881
3092.0,0.022413561996148967
3091.0,0.022322112326006227
3090.0,0.0221849739168134
3089.0,0.02204787879853809
3088.0,0.021956506090037076
3087.0,0.021865152601710403
3086.0,0.021728158389364705
3085.0,0.02159120737696063
3084.0,0.02140867317992523
3083.0,0.02122621566987748
3082.0,0.021043834782408455
3081.0,0.020907099361673565
3080.0,0.020770406977844713
3079.0,0.02067930261797568
3078.0,0.020542681902151694
3077.0,0.02045162529590483
3076.0,0.02026956933771462
3075.0,0.020087589665283012
3074.0,0.01990568621470623
3073.0,0.019723858922159776
3072.0,0.01954210772389997
3071.0,0.019451260640229506
3070.0,0.019360432556262852
3069.0,0.0192242260373785
3068.0,0.0190880622231564
3067.0,0.018906576854070378
3066.0,0.018770512579999288
3065.0,0.018679826740892747
3064.0,0.01858915983411169
3063.0,0.018498511851753108
3062.0,0.018362575344230914
3061.0,0.018226681372252695
3060.0,0.018045555530026514
3059.0,0.017909760704207134
3058.0,0.017728766960431575
3057.0,0.017638298366853045
3056.0,0.017502630802287644
3055.0,0.017412209298337533
3054.0,0.01727661233145472
3053.0,0.017141057687924732
3052.0,0.017050711425501408
3051.0,0.016915227262211507
3050.0,0.01677978535189717
3049.0,0.016644385668211692
3048.0,0.01646391839700767
3047.0,0.016238439713835096
3046.0,0.016103208673694303
3045.0,0.01596801972881945
3044.0,0.01596801972881945
3043.0,0.015922966097169144
3042.0,0.015922966097169144
3041.0,0.015877917138889863
3040.0,0.015742798294583915
3039.0,0.015652742414136167
3038.0,0.015517693597737248
3037.0,0.015427684378367834
3036.0,0.015292705517326866
3035.0,0.015112798935672522
3034.0,0.014932966849499074
3033.0,0.014753209197138295
3032.0,0.014573525916998342
3031.0,0.014438812226654996
3030.0,0.014349026309051105
3029.0,0.014259258949925524
3028.0,0.014169510141607944
3027.0,0.014079779876432497
3026.0,0.013990068146738865
3025.0,0.013900374944870508
3024.0,0.013765869865004277
3023.0,0.013586594534531482
3022.0,0.013407393177789162
3021.0,0.01322826573375524
3020.0,0.013093968619278806
3019.0,0.012914970375878188
3018.0,0.012780770091995297
3017.0,0.01264661126420652
3016.0,0.012557195064198723
3015.0,0.012423105273012602
3014.0,0.012333735073725371
3013.0,0.012199714248127602
3012.0,0.012110390002254778
3011.0,0.0119764380713403
3010.0,0.011842527443247208
3009.0,0.011708658092512314
3008.0,0.011530229790124524
3007.0,0.011351874764248926
3006.0,0.01117359295472431
3005.0,0.011039929609661936
3004.0,0.010950843561779777
3003.0,0.01086177578421088
3002.0,0.01077272626946324
3001.0,0.010683695010048622
3000.0,0.010550182333308289
2999.0,0.010416710688994968
2998.0,0.010283280051895272
2997.0,0.010149890396819572
2996.0,0.010060986715464404
2995.0,0.009972101229705377
2994.0,0.009883233932095559
2993.0,0.009838807101520963
2992.0,0.009794384815193347
2991.0,0.009705553871561357
2990.0,0.009616741093766423
2989.0,0.009572341514736404
2988.0,0.009572341514736404
2987.0,0.009572341514736404
2986.0,0.009527946474380489
2985.0,0.009527946474380489
2984.0,0.009527946474380489
2983.0,0.009616741093766423
2982.0,0.00974996707218323
2981.0,0.009927665307847056
2980.0,0.010105436281226954
2979.0,0.010327752376126709
2978.0,0.010505687227290839
2977.0,0.01077272626946324
2976.0,0.011084479487313281
2975.0,0.011530229790124524
2974.0,0.012065734767841452
2973.0,0.01264661126420652
2972.0,0.01322826573375524
2971.0,0.01385553528947936
2970.0,0.01452861671041239
2969.0,0.015292705517326866
2968.0,0.016193358021584725
2967.0,0.017141057687924732
2966.0,0.01809082990920774
2965.0,0.01899731005860028
2964.0,0.019860222254245663
2963.0,0.020724852408976924
2962.0,0.021545566634771474
2961.0,0.02227639471115217
2960.0,0.02296266477531872
2959.0,0.02355831062115543
2958.0,0.024108863598207186
2957.0,0.02461415101053266
2956.0,0.02512002699306959
2955.0,0.02558042614771394
2954.0,0.025949097207122573
2953.0,0.026225806029419818
2952.0,0.026456531467510258
2951.0,0.02677975314776626
2950.0,0.027288159452933503
2949.0,0.028075050815808744
2948.0,0.029141943003497595
2947.0,0.030537492025363155
2946.0,0.032311649546687526
2945.0,0.034469056377139484
2944.0,0.0369681249461018
2943.0,0.03981472339538916
2942.0,0.042967683653061695
2941.0,0.04643358574299339
2940.0,0.05021979163799939
2939.0,0.05433450056786593
2938.0,0.058786812414678646
2937.0,0.06363708040225546
2936.0,0.06884736147670667
2935.0,0.07453319930846214
2934.0,0.08071265949561734
2933.0,0.0872466963286771
2932.0,0.09431203228814788
2931.0,0.10182351650232357
2930.0,0.11002636159600376
2929.0,0.11890078161098283
2928.0,0.12854382597704617
2927.0,0.13912320359670227
2926.0,0.15082636690117335
2925.0,0.16380251922107458
2924.0,0.17822453281653639
2923.0,0.19429529556613567
2922.0,0.2119731159041962
2921.0,0.23106605781321843
2920.0,0.2510371387438386
2919.0,0.27083521030723
2918.0,0.2884458317498304
2917.0,0.30120374820956886
2916.0,0.30680085484628283
2915.0,0.30434324006380975
2914.0,0.2946495371142881
2913.0,0.28008893580166117
2912.0,0.2634441528373641
2911.0,0.2467234298155816
2910.0,0.2312139530919859
2909.0,0.21745571598998992
2908.0,0.2054422487452383
2907.0,0.19517932127883775
2906.0,0.18641901143180806
2905.0,0.1789452449531117
2904.0,0.1725014918665413
2903.0,0.1667891197173912
2902.0,0.16171775008531153
2901.0,0.15714123755470633
2900.0,0.15298290206464582
2899.0,0.14917004015146906
2898.0,0.14551177495556966
2897.0,0.1419442819496357
2896.0,0.1384058553561347
2895.0,0.13483678049391368
2894.0,0.13123804178794973
2893.0,0.1276688787697493
2892.0,0.12407101507707297
2891.0,0.12050271275057156
2890.0,0.11690664142431006
2889.0,0.11328372588352176
2888.0,0.10969078310005154
2887.0,0.1060718734573931
2886.0,0.10242788617426934
2885.0,0.09886874864462802
2884.0,0.09539263618455207
2883.0,0.0919441259012328
2882.0,0.08862929288386212
2881.0,0.08533956941077814
2880.0,0.08217951800630297
2879.0,0.07925073872429178
2878.0,0.07649693305789551
2877.0,0.07406940213152868
2876.0,0.07186029312488018
2875.0,0.0699173666076287
2874.0,0.0681862960408608
2873.0,0.0666645899223488
2872.0,0.0654005617819271
2871.0,0.06434161389936577
2870.0,0.06343599486473406
2869.0,0.06278310913729457
2868.0,0.062381820606176586
2867.0,0.06243196139961715
2866.0,0.06303410289212974
2865.0,0.06429125215733666
2864.0,0.0663102910421054
2863.0,0.0692037370166998
2862.0,0.07293775650699996
2861.0,0.07779372256098371
2860.0,0.08380934001946239
2859.0,0.09130056764777605
2858.0,0.10045306890913297
2857.0,0.11153968196461372
2856.0,0.1249387366082999
2855.0,0.14122226269455074
2854.0,0.16083631708534996
2853.0,0.1840903491132253
2852.0,0.21034879120659045
2851.0,0.23739645043319646
2850.0,0.26098175411651914
2849.0,0.2756421957735735
2848.0,0.27753061411596924
2847.0,0.26672246606741834
2846.0,0.24703013497091586
2845.0,0.2235167441663184
2844.0,0.20003947259401644
2843.0,0.1788141173911546
2842.0,0.16039627052916305
2841.0,0.14484442282300614
2840.0,0.13176713157753506
2839.0,0.12084675381575383
2838.0,0.11159583226295333
2837.0,0.1038045895457893
2836.0,0.09712721455392082
2835.0,0.09140776115243066
2834.0,0.08650404038287651
2833.0,0.08228448344050654
2832.0,0.07867775641617802
2831.0,0.07551395626608493
2830.0,0.07262963696097646
2829.0,0.07001940948448526
2828.0,0.0676277178520861
2827.0,0.0655520510510299
2826.0,0.0636873663378068
2825.0,0.06198090252378963
2824.0,0.06033101647767336
2823.0,0.058786812414678646
2822.0,0.05734718830678798
2821.0,0.05606053552778367
2820.0,0.05482695382609992
2819.0,0.05374429280060267
2818.0,0.05266432405126009
2817.0,0.051684859310652254
2816.0,0.05075640943173498
2815.0,0.04987865248862655
2814.0,0.04905128560059957
2813.0,0.04827402457540786
2812.0,0.04754660357696672
2811.0,0.04686877481655505
2810.0,0.046192002334692894
2809.0,0.045564513671517703
2808.0,0.04488976902944808
2807.0,0.04426415772233416
2806.0,0.04363944632667782
2805.0,0.04301563225723992
2804.0,0.04244059810252043
2803.0,0.04186632432376469
2802.0,0.04129280891271536
2801.0,0.04081545726880842
2800.0,0.040338629726504704
2799.0,0.039909932095080425
2798.0,0.03952922246570112
2797.0,0.03905380426616856
2796.0,0.03857890593355173
2795.0,0.03810452633214956
2794.0,0.03763066432997886
2793.0,0.0371573187987575
2792.0,0.036779013477011624
2791.0,0.03644826642590382
2790.0,0.0360705779734416
2789.0,0.035740369803151095
2788.0,0.03531618502395939
2787.0,0.0349394793888016
2786.0,0.034516075754861264
2785.0,0.034187046963396917
2784.0,0.03385826726096752
2783.0,0.03357665405630694
2782.0,0.03334211579824231
2781.0,0.03301397488206215
2780.0,0.032686081712916426
2779.0,0.03235843591698884
2778.0,0.03207779326948268
2777.0,0.03179733185715028
2776.0,0.031563752288295444
2775.0,0.03137697904301118
2774.0,0.031143625385307683
2773.0,0.030910397045078586
2772.0,0.03063068826647264
2771.0,0.030397735151460825
2770.0,0.030211462585061133
2769.0,0.03002526987828502
2768.0,0.029839156962686353
2767.0,0.02960662792039992
2766.0,0.02942069428514915
2765.0,0.029234840219232394
2764.0,0.029095501846216454
2763.0,0.028956208163971375
2762.0,0.028863370523193765
2761.0,0.028677754757187035
2760.0,0.02849221828874393
2759.0,0.028306761050139073
2758.0,0.028075050815808744
2757.0,0.027936083991977778
2756.0,0.027797161620935595
2755.0,0.027658283674251827
2754.0,0.027565723042634938
2753.0,0.02747318213414429
2752.0,0.027334407733889066
2751.0,0.027195677663422346
2750.0,0.027010773144651168
2749.0,0.026872146400301444
2748.0,0.02677975314776626
2747.0,0.026687379547098322
2746.0,0.026687379547098322
2745.0,0.02664120011360227
2744.0,0.026595025589939425
2743.0,0.026456531467510258
2742.0,0.02636422658259252
2741.0,0.026271941311972746
2740.0,0.026225806029419818
2739.0,0.02617967564731627
2738.0,0.02617967564731627
2737.0,0.026087429580295085
2736.0,0.025995203102585407
2735.0,0.025810808881832736
2734.0,0.025672564576383117
2733.0,0.02553436426275746
2732.0,0.02544225514642018
2731.0,0.02539620791296726
2730.0,0.025304128090317013
2729.0,0.025258095499050004
2728.0,0.02516604495145991
2727.0,0.025074013910237447
2726.0,0.02498200236711723
2725.0,0.024936003904763915
2724.0,0.02484402159331056
2723.0,0.02475205875931885
2722.0,0.024660115394541604
2721.0,0.024568191490736968
2720.0,0.024476287039668643
2719.0,0.024338466818941473
2718.0,0.024200690320592466
2717.0,0.02406295751688936
2716.0,0.023971159908874107
2715.0,0.023879381700184332
2714.0,0.023787622882622816
2713.0,0.023695883447997224
2712.0,0.02365002099672653
2711.0,0.023604163388120325
2710.0,0.02355831062115543
2709.0,0.02351246269481
2708.0,0.023466619608062178
2707.0,0.02342078135989012
2706.0,0.023374947949272418
2705.0,0.023237476732539397
2704.0,0.023100049017062307
2703.0,0.02296266477531872
2702.0,0.022871099419317753
2701.0,0.02282532397981263
2700.0,0.022733787572707387
2699.0,0.022688026603074007
2698.0,0.02259651912656535
2697.0,0.022505030926963654
2696.0,0.02245929405346514
2695.0,0.02245929405346514
2694.0,0.02245929405346514
2693.0,0.02245929405346514
2692.0,0.022413561996148967
2691.0,0.022367834754000393
2690.0,0.022367834754000393
2689.0,0.022322112326006227
2688.0,0.022322112326006227
2687.0,0.02227639471115217
2686.0,0.022230681908425698
2685.0,0.022230681908425698
2684.0,0.0221849739168134
2683.0,0.0221849739168134
2682.0,0.022139270735302752
2681.0,0.022139270735302752
2680.0,0.022139270735302752
2679.0,0.022093572362881675
2678.0,0.022093572362881675
2677.0,0.022093572362881675
2676.0,0.02204787879853809
2675.0,0.02200219004126036
2674.0,0.02200219004126036
2673.0,0.02204787879853809
2672.0,0.022093572362881675
2671.0,0.022139270735302752
2670.0,0.0221849739168134
2669.0,0.022139270735302752
2668.0,0.022139270735302752
2667.0,0.022093572362881675
2666.0,0.02204787879853809
2665.0,0.02200219004126036
2664.0,0.021910826943857264
2663.0,0.021865152601710403
2662.0,0.021865152601710403
2661.0,0.021865152601710403
2660.0,0.021865152601710403
2659.0,0.021819483062586187
2658.0,0.021728158389364705
2657.0,0.021636852916117055
2656.0,0.02159120737696063
2655.0,0.021545566634771474
2654.0,0.021545566634771474
2653.0,0.021499930688540836
2652.0,0.0214542995372613
2651.0,0.02140867317992523
2650.0,0.021363051615525652
2649.0,0.021317434843055594
2648.0,0.021317434843055594
2647.0,0.021271822861508305
2646.0,0.021271822861508305
2645.0,0.021271822861508305
2644.0,0.02122621566987748
2643.0,0.0211806132671577
2642.0,0.0211806132671577
2641.0,0.0211806132671577
2640.0,0.0211806132671577
2639.0,0.021135015652343103
2638.0,0.021135015652343103
2637.0,0.021089422824428272
2636.0,0.021089422824428272
2635.0,0.021089422824428272
2634.0,0.021043834782408455
2633.0,0.0209982515252789
2632.0,0.020952673052035298
2631.0,0.020861530453190058
2630.0,0.02081596632558158
2629.0,0.020770406977844713
2628.0,0.020724852408976924
2627.0,0.02067930261797568
2626.0,0.020633757603838898
2625.0,0.02058821736556471
2624.0,0.020542681902151694
2623.0,0.02045162529590483
2622.0,0.02036058777709271
2621.0,0.02026956933771462
2620.0,0.02013307743509718
2619.0,0.019996628416253603
2618.0,0.01990568621470623
2617.0,0.019814763052665052
2616.0,0.019769308608968306
2615.0,0.019769308608968306
2614.0,0.019769308608968306
2613.0,0.019723858922159776
2612.0,0.019678413991243593
2611.0,0.019678413991243593
2610.0,0.019632973815224997
2609.0,0.01958753839310856
2608.0,0.01949668180660491
2607.0,0.019360432556262852
2606.0,0.0192242260373785
2605.0,0.019178833355664393
2604.0,0.019133445417920836
2603.0,0.0190880622231564
2602.0,0.019042683770379876
2601.0,0.01899731005860028
2600.0,0.018951941086827073
2599.0,0.018951941086827073
2598.0,0.018906576854070378
2597.0,0.018906576854070378
2596.0,0.018861217359339655
2595.0,0.018861217359339655
2594.0,0.018815862601645694
2593.0,0.018770512579999288
2592.0,0.018770512579999288
2591.0,0.018770512579999288
2590.0,0.018725167293411005
2589.0,0.018679826740892747
2588.0,0.018679826740892747
2587.0,0.01858915983411169
2586.0,0.018543833477873584
2585.0,0.01845319495476394
2584.0,0.018362575344230914
2583.0,0.01831727262871463
2582.0,0.018271974638383703
2581.0,0.018226681372252695
2580.0,0.01809082990920774
2579.0,0.018045555530026514
2578.0,0.01800028587012159
2577.0,0.01800028587012159
2576.0,0.01800028587012159
2575.0,0.018045555530026514
2574.0,0.01800028587012159
2573.0,0.017955020928509757
2572.0,0.017864505196230507
2571.0,0.01781925440359733
2570.0,0.017774008325325275
2569.0,0.017728766960431575
2568.0,0.017638298366853045
2567.0,0.017547848615010242
2566.0,0.017502630802287644
2565.0,0.017457417697056554
2564.0,0.017412209298337533
2563.0,0.017412209298337533
2562.0,0.017412209298337533
2561.0,0.017457417697056554
2560.0,0.017502630802287644
2559.0,0.017457417697056554
2558.0,0.017457417697056554
2557.0,0.017367005605150476
2556.0,0.017321806616515723
2555.0,0.017231422748988034
2554.0,0.017186237868137555
2553.0,0.017186237868137555
2552.0,0.017186237868137555
2551.0,0.017141057687924732
2550.0,0.017050711425501408
2549.0,0.017050711425501408
2548.0,0.017050711425501408
2547.0,0.017050711425501408
2546.0,0.017005545341335804
2545.0,0.016960383953898095
2544.0,0.016870075265299933
2543.0,0.016870075265299933
2542.0,0.016824927962187042
2541.0,0.016824927962187042
2540.0,0.01677978535189717
2539.0,0.016734647433454652
2538.0,0.016734647433454652
2537.0,0.016689514205884493
2536.0,0.016689514205884493
2535.0,0.016734647433454652
2534.0,0.01677978535189717
2533.0,0.016824927962187042
2532.0,0.016824927962187042
2531.0,0.016824927962187042
2530.0,0.01677978535189717
2529.0,0.016689514205884493
2528.0,0.016599261819461697
2527.0,0.016509028184833463
2526.0,0.01646391839700767
2525.0,0.01646391839700767
2524.0,0.01646391839700767
2523.0,0.016418813294209356
2522.0,0.016373712875465518
2521.0,0.01632861713980338
2520.0,0.01632861713980338
2519.0,0.01628352608625061
2518.0,0.01628352608625061
2517.0,0.016238439713835096
2516.0,0.016238439713835096
2515.0,0.016193358021584725
2514.0,0.016193358021584725
2513.0,0.016238439713835096
2512.0,0.016238439713835096
2511.0,0.016238439713835096
2510.0,0.016238439713835096
2509.0,0.016238439713835096
2508.0,0.016193358021584725
2507.0,0.016193358021584725
2506.0,0.016193358021584725
2505.0,0.016193358021584725
2504.0,0.016238439713835096
2503.0,0.016193358021584725
2502.0,0.016148281008528276
2501.0,0.016103208673694303
2500.0,0.016058141016111804
2499.0,0.01596801972881945
2498.0,0.015922966097169144
2497.0,0.015922966097169144
2496.0,0.015877917138889863
2495.0,0.015832872853011715
2494.0,0.015832872853011715
2493.0,0.015832872853011715
2492.0,0.015832872853011715
2491.0,0.015832872853011715
2490.0,0.01578783323856614
2489.0,0.015742798294583915
2488.0,0.01578783323856614
2487.0,0.015832872853011715
2486.0,0.015877917138889863
2485.0,0.015877917138889863
2484.0,0.015877917138889863
2483.0,0.015877917138889863
2482.0,0.015832872853011715
2481.0,0.01578783323856614
2480.0,0.015742798294583915
2479.0,0.015742798294583915
2478.0,0.015742798294583915
2477.0,0.015832872853011715
2476.0,0.015877917138889863
2475.0,0.015877917138889863
2474.0,0.015832872853011715
2473.0,0.01578783323856614
2472.0,0.015742798294583915
2471.0,0.015697768020096703
2470.0,0.015697768020096703
2469.0,0.015652742414136167
2468.0,0.015607721475734415
2467.0,0.015562705203923999
2466.0,0.015562705203923999
2465.0,0.015562705203923999
2464.0,0.015607721475734415
2463.0,0.015652742414136167
2462.0,0.015697768020096703
2461.0,0.015652742414136167
2460.0,0.015607721475734415
2459.0,0.015517693597737248
2458.0,0.015517693597737248
2457.0,0.015562705203923999
2456.0,0.015607721475734415
2455.0,0.015607721475734415
2454.0,0.015562705203923999
2453.0,0.015517693597737248
2452.0,0.015517693597737248
2451.0,0.01547268665620738
2450.0,0.015427684378367834
2449.0,0.015337693809893471
2448.0,0.015292705517326866
2447.0,0.015292705517326866
2446.0,0.015337693809893471
2445.0,0.01538268676325183
2444.0,0.01547268665620738
2443.0,0.01547268665620738
2442.0,0.015517693597737248
2441.0,0.015517693597737248
2440.0,0.01547268665620738
2439.0,0.015427684378367834
2438.0,0.01538268676325183
2437.0,0.01538268676325183
2436.0,0.015427684378367834
2435.0,0.01547268665620738
2434.0,0.015517693597737248
2433.0,0.01547268665620738
2432.0,0.01547268665620738
2431.0,0.01538268676325183
2430.0,0.01538268676325183
2429.0,0.01538268676325183
2428.0,0.01538268676325183
2427.0,0.01538268676325183
2426.0,0.01538268676325183
2425.0,0.01538268676325183
2424.0,0.01538268676325183
2423.0,0.015427684378367834
2422.0,0.01547268665620738
2421.0,0.015517693597737248
2420.0,0.015517693597737248
2419.0,0.015562705203923999
2418.0,0.015562705203923999
2417.0,0.015562705203923999
2416.0,0.01547268665620738
2415.0,0.015427684378367834
2414.0,0.01538268676325183
2413.0,0.01538268676325183
2412.0,0.015427684378367834
2411.0,0.01547268665620738
2410.0,0.01547268665620738
2409.0,0.015427684378367834
2408.0,0.015427684378367834
2407.0,0.015427684378367834
2406.0,0.015427684378367834
2405.0,0.015427684378367834
2404.0,0.01547268665620738
2403.0,0.01547268665620738
2402.0,0.01547268665620738
2401.0,0.01547268665620738
2400.0,0.01547268665620738
2399.0,0.015427684378367834
2398.0,0.015427684378367834
2397.0,0.015427684378367834
2396.0,0.01547268665620738
2395.0,0.01547268665620738
2394.0,0.015517693597737248
2393.0,0.015517693597737248
2392.0,0.015517693597737248
2391.0,0.01547268665620738
2390.0,0.015427684378367834
2389.0,0.01538268676325183
2388.0,0.01538268676325183
2387.0,0.01538268676325183
2386.0,0.01538268676325183
2385.0,0.01538268676325183
2384.0,0.015427684378367834
2383.0,0.015517693597737248
2382.0,0.015652742414136167
2381.0,0.01578783323856614
2380.0,0.015922966097169144
2379.0,0.016058141016111804
2378.0,0.016148281008528276
2377.0,0.016238439713835096
2376.0,0.01632861713980338
2375.0,0.01628352608625061
2374.0,0.016148281008528276
2373.0,0.015922966097169144
2372.0,0.015697768020096703
2371.0,0.01538268676325183
2370.0,0.014932966849499074
2369.0,0.014573525916998342
2368.0,0.014349026309051105
2367.0,0.01381070026317599
2366.0,0.013049212141483357
2365.0,0.013273040668781544
2364.0,0.015112798935672522
2363.0,0.017909760704207134
2362.0,0.020315076172974234
2361.0,0.021545566634771474
2360.0,0.022093572362881675
2359.0,0.02245929405346514
2358.0,0.02245929405346514
2357.0,0.02159120737696063
2356.0,0.019769308608968306
2355.0,0.017774008325325275
2354.0,0.01646391839700767
2353.0,0.016148281008528276
2352.0,0.016509028184833463
2351.0,0.016824927962187042
2350.0,0.016644385668211692
2349.0,0.015877917138889863
2348.0,0.014753209197138295
2347.0,0.013765869865004277
2346.0,0.013273040668781544
2345.0,0.013586594534531482
2344.0,0.014618439768003144
2343.0,0.015922966097169144
2342.0,0.017141057687924732
2341.0,0.017955020928509757
2340.0,0.01809082990920774
2339.0,0.01768353030793479
2338.0,0.017141057687924732
2337.0,0.016824927962187042
2336.0,0.016960383953898095
2335.0,0.017321806616515723
2334.0,0.01768353030793479
2333.0,0.017638298366853045
2332.0,0.017095882207371904
2331.0,0.016193358021584725
2330.0,0.015607721475734415
2329.0,0.015697768020096703
2328.0,0.016238439713835096
2327.0,0.017005545341335804
2326.0,0.017728766960431575
2325.0,0.01831727262871463
2324.0,0.018498511851753108
2323.0,0.018362575344230914
2322.0,0.018045555530026514
2321.0,0.017774008325325275
2320.0,0.01759307113620534
2319.0,0.017412209298337533
2318.0,0.01727661233145472
2317.0,0.017050711425501408
2316.0,0.01677978535189717
2315.0,0.016418813294209356
2314.0,0.016238439713835096
2313.0,0.016103208673694303
2312.0,0.016103208673694303
2311.0,0.016148281008528276
2310.0,0.016193358021584725
2309.0,0.016193358021584725
2308.0,0.016148281008528276
2307.0,0.016058141016111804
2306.0,0.015877917138889863
2305.0,0.015742798294583915
2304.0,0.015607721475734415
2303.0,0.015562705203923999
2302.0,0.015562705203923999
2301.0,0.015562705203923999
2300.0,0.01547268665620738
2299.0,0.015337693809893471
2298.0,0.015247721884586563
2297.0,0.015202742910707112
2296.0,0.015202742910707112
2295.0,0.015157768594724175
2294.0,0.015112798935672522
2293.0,0.015157768594724175
2292.0,0.015157768594724175
2291.0,0.015157768594724175
2290.0,0.015157768594724175
2289.0,0.015157768594724175
2288.0,0.015202742910707112
2287.0,0.015292705517326866
2286.0,0.015337693809893471
2285.0,0.01538268676325183
2284.0,0.015337693809893471
2283.0,0.015292705517326866
2282.0,0.015247721884586563
2281.0,0.015202742910707112
2280.0,0.015157768594724175
2279.0,0.015112798935672522
2278.0,0.015067833932588037
2277.0,0.015112798935672522
2276.0,0.015112798935672522
2275.0,0.015157768594724175
2274.0,0.015112798935672522
2273.0,0.015112798935672522
2272.0,0.015112798935672522
2271.0,0.015112798935672522
2270.0,0.015157768594724175
2269.0,0.015157768594724175
2268.0,0.015157768594724175
2267.0,0.015112798935672522
2266.0,0.015022873584506602
2265.0,0.014977917890464765
2264.0,0.014932966849499074
2263.0,0.014932966849499074
2262.0,0.014932966849499074
2261.0,0.014932966849499074
2260.0,0.014977917890464765
2259.0,0.014977917890464765
2258.0,0.014977917890464765
2257.0,0.014932966849499074
2256.0,0.014888020460646079
2255.0,0.014932966849499074
2254.0,0.014977917890464765
2253.0,0.015067833932588037
2252.0,0.015112798935672522
2251.0,0.015067833932588037
2250.0,0.014977917890464765
2249.0,0.014932966849499074
2248.0,0.014977917890464765
2247.0,0.015022873584506602
2246.0,0.015022873584506602
2245.0,0.015022873584506602
2244.0,0.014977917890464765
2243.0,0.014932966849499074
2242.0,0.014888020460646079
2241.0,0.014888020460646079
2240.0,0.014932966849499074
2239.0,0.014977917890464765
2238.0,0.014977917890464765
2237.0,0.014932966849499074
2236.0,0.014932966849499074
2235.0,0.014888020460646079
2234.0,0.014888020460646079
2233.0,0.014843078722943437
2232.0,0.014843078722943437
2231.0,0.014843078722943437
2230.0,0.014843078722943437
2229.0,0.014843078722943437
2228.0,0.014843078722943437
2227.0,0.014753209197138295
2226.0,0.014708281407112
2225.0,0.014708281407112
2224.0,0.014708281407112
2223.0,0.014708281407112
2222.0,0.014663358264387139
2221.0,0.014618439768003144
2220.0,0.014618439768003144
2219.0,0.014573525916998342
2218.0,0.014573525916998342
2217.0,0.014618439768003144
2216.0,0.014663358264387139
2215.0,0.014663358264387139
2214.0,0.014663358264387139
2213.0,0.014663358264387139
2212.0,0.014663358264387139
2211.0,0.014663358264387139
2210.0,0.014663358264387139
2209.0,0.014708281407112
2208.0,0.014708281407112
2207.0,0.014663358264387139
2206.0,0.014708281407112
2205.0,0.014708281407112
2204.0,0.014708281407112
2203.0,0.014708281407112
2202.0,0.014663358264387139
2201.0,0.014663358264387139
2200.0,0.014618439768003144
2199.0,0.014618439768003144
2198.0,0.014663358264387139
2197.0,0.014663358264387139
2196.0,0.014663358264387139
2195.0,0.014618439768003144
2194.0,0.014573525916998342
2193.0,0.014573525916998342
2192.0,0.014573525916998342
2191.0,0.014573525916998342
2190.0,0.014573525916998342
2189.0,0.014618439768003144
2188.0,0.014663358264387139
2187.0,0.014663358264387139
2186.0,0.014663358264387139
2185.0,0.014663358264387139
2184.0,0.014663358264387139
2183.0,0.014618439768003144
2182.0,0.014573525916998342
2181.0,0.0144837121472845
2180.0,0.014438812226654996
2179.0,0.014393916947563534
2178.0,0.014393916947563534
2177.0,0.014393916947563534
2176.0,0.014438812226654996
2175.0,0.0144837121472845
2174.0,0.0144837121472845
2173.0,0.01452861671041239
2172.0,0.01452861671041239
2171.0,0.01452861671041239
2170.0,0.0144837121472845
2169.0,0.014438812226654996
2168.0,0.014349026309051105
2167.0,0.014349026309051105
2166.0,0.014349026309051105
2165.0,0.014393916947563534
2164.0,0.014438812226654996
2163.0,0.0144837121472845
2162.0,0.0144837121472845
2161.0,0.01452861671041239
2160.0,0.014573525916998342
2159.0,0.014573525916998342
2158.0,0.014573525916998342
2157.0,0.014573525916998342
2156.0,0.014573525916998342
2155.0,0.01452861671041239
2154.0,0.0144837121472845
2153.0,0.014438812226654996
2152.0,0.014438812226654996
2151.0,0.014393916947563534
2150.0,0.014393916947563534
2149.0,0.014438812226654996
2148.0,0.014438812226654996
2147.0,0.0144837121472845
2146.0,0.0144837121472845
2145.0,0.01452861671041239
2144.0,0.0144837121472845
2143.0,0.014438812226654996
2142.0,0.014393916947563534
2141.0,0.014349026309051105
2140.0,0.014393916947563534
2139.0,0.014393916947563534
2138.0,0.014393916947563534
2137.0,0.014393916947563534
2136.0,0.014393916947563534
2135.0,0.014393916947563534
2134.0,0.014393916947563534
2133.0,0.014393916947563534
2132.0,0.014393916947563534
2131.0,0.014393916947563534
2130.0,0.014393916947563534
2129.0,0.014393916947563534
2128.0,0.014349026309051105
2127.0,0.014349026309051105
2126.0,0.014349026309051105
2125.0,0.014304140310157809
2124.0,0.014304140310157809
2123.0,0.014304140310157809
2122.0,0.014349026309051105
2121.0,0.014349026309051105
2120.0,0.014393916947563534
2119.0,0.014393916947563534
2118.0,0.014393916947563534
2117.0,0.014393916947563534
2116.0,0.014393916947563534
2115.0,0.014393916947563534
2114.0,0.014393916947563534
2113.0,0.014393916947563534
2112.0,0.014393916947563534
2111.0,0.014349026309051105
2110.0,0.014259258949925524
2109.0,0.014214382227394795
2108.0,0.014169510141607944
2107.0,0.014214382227394795
2106.0,0.014304140310157809
2105.0,0.014349026309051105
2104.0,0.014349026309051105
2103.0,0.014304140310157809
2102.0,0.014214382227394795
2101.0,0.014169510141607944
2100.0,0.014169510141607944
2099.0,0.014169510141607944
2098.0,0.014169510141607944
2097.0,0.014169510141607944
2096.0,0.014169510141607944
2095.0,0.014214382227394795
2094.0,0.014214382227394795
2093.0,0.014259258949925524
2092.0,0.014214382227394795
2091.0,0.014169510141607944
2090.0,0.014169510141607944
2089.0,0.014124642691606404
2088.0,0.014124642691606404
2087.0,0.014169510141607944
2086.0,0.014169510141607944
2085.0,0.014169510141607944
2084.0,0.014169510141607944
2083.0,0.014124642691606404
2082.0,0.014124642691606404
2081.0,0.014124642691606404
2080.0,0.014169510141607944
2079.0,0.014169510141607944
2078.0,0.014169510141607944
2077.0,0.014169510141607944
2076.0,0.014169510141607944
2075.0,0.014169510141607944
2074.0,0.014124642691606404
2073.0,0.014079779876432497
2072.0,0.014079779876432497
2071.0,0.014079779876432497
2070.0,0.01403492169512921
2069.0,0.014079779876432497
2068.0,0.014124642691606404
2067.0,0.014124642691606404
2066.0,0.014169510141607944
2065.0,0.014124642691606404
2064.0,0.014079779876432497
2063.0,0.01403492169512921
2062.0,0.01403492169512921
2061.0,0.01403492169512921
2060.0,0.014079779876432497
2059.0,0.014079779876432497
2058.0,0.014079779876432497
2057.0,0.014079779876432497
2056.0,0.014079779876432497
2055.0,0.014079779876432497
2054.0,0.01403492169512921
2053.0,0.014079779876432497
2052.0,0.014079779876432497
2051.0,0.014079779876432497
2050.0,0.01403492169512921
2049.0,0.013990068146738865
2048.0,0.01403492169512921
2047.0,0.01403492169512921
2046.0,0.014079779876432497
2045.0,0.014079779876432497
2044.0,0.014124642691606404
2043.0,0.014079779876432497
2042.0,0.014079779876432497
2041.0,0.014079779876432497
2040.0,0.014124642691606404
2039.0,0.014079779876432497
2038.0,0.014079779876432497
2037.0,0.014079779876432497
2036.0,0.014079779876432497
2035.0,0.014079779876432497
2034.0,0.01403492169512921
2033.0,0.01403492169512921
2032.0,0.01403492169512921
2031.0,0.01403492169512921
2030.0,0.013990068146738865
2029.0,0.013990068146738865
2028.0,0.013990068146738865
2027.0,0.013990068146738865
2026.0,0.01403492169512921
2025.0,0.01403492169512921
2024.0,0.01403492169512921
2023.0,0.01403492169512921
2022.0,0.014079779876432497
2021.0,0.014079779876432497
2020.0,0.014124642691606404
2019.0,0.014124642691606404
2018.0,0.014124642691606404
2017.0,0.014079779876432497
2016.0,0.01403492169512921
2015.0,0.013990068146738865
2014.0,0.013900374944870508
2013.0,0.013900374944870508
2012.0,0.01385553528947936
2011.0,0.01381070026317599
2010.0,0.013765869865004277
2009.0,0.013765869865004277
2008.0,0.013765869865004277
2007.0,0.01372104409400876
2006.0,0.01372104409400876
2005.0,0.013676222949234651
2004.0,0.013676222949234651
2003.0,0.013631406429727155
2002.0,0.013586594534531482
2001.0,0.013541787262693505
2000.0,0.013541787262693505
1999.0,0.013541787262693505
1998.0,0.013541787262693505
1997.0,0.013541787262693505
1996.0,0.013541787262693505
1995.0,0.013541787262693505
1994.0,0.013541787262693505
1993.0,0.013496984613259544
1992.0,0.013496984613259544
1991.0,0.013496984613259544
1990.0,0.013496984613259544
1989.0,0.013496984613259544
1988.0,0.013541787262693505
1987.0,0.013541787262693505
1986.0,0.013541787262693505
1985.0,0.013541787262693505
1984.0,0.013541787262693505
1983.0,0.013541787262693505
1982.0,0.013496984613259544
1981.0,0.013452186585275916
1980.0,0.013407393177789162
1979.0,0.013362604389846044
1978.0,0.013362604389846044
1977.0,0.013362604389846044
1976.0,0.013407393177789162
1975.0,0.013407393177789162
1974.0,0.013362604389846044
1973.0,0.013407393177789162
1972.0,0.013407393177789162
1971.0,0.013407393177789162
1970.0,0.013407393177789162
1969.0,0.013362604389846044
1968.0,0.013362604389846044
1967.0,0.013362604389846044
1966.0,0.013362604389846044
1965.0,0.013362604389846044
1964.0,0.013362604389846044
1963.0,0.013362604389846044
1962.0,0.013317820220494436
1961.0,0.013273040668781544
1960.0,0.013273040668781544
1959.0,0.01322826573375524
1958.0,0.01322826573375524
1957.0,0.01322826573375524
1956.0,0.01322826573375524
1955.0,0.013273040668781544
1954.0,0.013273040668781544
1953.0,0.013273040668781544
1952.0,0.013273040668781544
1951.0,0.01322826573375524
1950.0,0.013273040668781544
1949.0,0.013273040668781544
1948.0,0.013317820220494436
1947.0,0.013362604389846044
1946.0,0.013407393177789162
1945.0,0.013407393177789162
1944.0,0.013452186585275916
1943.0,0.013407393177789162
1942.0,0.013407393177789162
1941.0,0.013407393177789162
1940.0,0.013362604389846044
1939.0,0.013362604389846044
1938.0,0.013317820220494436
1937.0,0.013317820220494436
1936.0,0.013317820220494436
1935.0,0.013317820220494436
1934.0,0.013317820220494436
1933.0,0.013317820220494436
1932.0,0.013317820220494436
1931.0,0.013317820220494436
1930.0,0.013317820220494436
1929.0,0.013317820220494436
1928.0,0.013317820220494436
1927.0,0.013362604389846044
1926.0,0.013362604389846044
1925.0,0.013407393177789162
1924.0,0.013452186585275916
1923.0,0.013541787262693505
1922.0,0.013586594534531482
1921.0,0.013586594534531482
1920.0,0.013586594534531482
1919.0,0.013541787262693505
1918.0,0.013496984613259544
1917.0,0.013452186585275916
1916.0,0.013452186585275916
1915.0,0.013452186585275916
1914.0,0.013452186585275916
1913.0,0.013452186585275916
1912.0,0.013496984613259544
1911.0,0.013496984613259544
1910.0,0.013541787262693505
1909.0,0.013541787262693505
1908.0,0.013496984613259544
1907.0,0.013496984613259544
1906.0,0.013496984613259544
1905.0,0.013541787262693505
1904.0,0.013631406429727155
1903.0,0.013676222949234651
1902.0,0.013676222949234651
1901.0,0.013676222949234651
1900.0,0.013676222949234651
1899.0,0.013631406429727155
1898.0,0.013676222949234651
1897.0,0.01372104409400876
1896.0,0.013765869865004277
1895.0,0.013765869865004277
1894.0,0.01381070026317599
1893.0,0.01381070026317599
1892.0,0.01381070026317599
1891.0,0.013765869865004277
1890.0,0.01372104409400876
1889.0,0.013676222949234651
1888.0,0.013631406429727155
1887.0,0.013541787262693505
1886.0,0.013496984613259544
1885.0,0.013496984613259544
1884.0,0.013496984613259544
1883.0,0.013541787262693505
1882.0,0.013541787262693505
1881.0,0.013541787262693505
1880.0,0.013496984613259544
1879.0,0.013407393177789162
1878.0,0.013362604389846044
1877.0,0.013362604389846044
1876.0,0.013407393177789162
1875.0,0.013452186585275916
1874.0,0.013496984613259544
1873.0,0.013541787262693505
1872.0,0.013586594534531482
1871.0,0.013541787262693505
1870.0,0.013496984613259544
1869.0,0.013452186585275916
1868.0,0.013496984613259544
1867.0,0.013452186585275916
1866.0,0.013452186585275916
1865.0,0.013496984613259544
1864.0,0.013541787262693505
1863.0,0.013496984613259544
1862.0,0.013496984613259544
1861.0,0.013496984613259544
1860.0,0.013496984613259544
1859.0,0.013496984613259544
1858.0,0.013496984613259544
1857.0,0.013452186585275916
1856.0,0.013407393177789162
1855.0,0.013362604389846044
1854.0,0.013362604389846044
1853.0,0.013362604389846044
1852.0,0.013452186585275916
1851.0,0.013452186585275916
1850.0,0.013452186585275916
1849.0,0.013496984613259544
1848.0,0.013496984613259544
1847.0,0.013541787262693505
1846.0,0.013496984613259544
1845.0,0.013496984613259544
1844.0,0.013541787262693505
1843.0,0.013541787262693505
1842.0,0.013586594534531482
1841.0,0.013586594534531482
1840.0,0.013631406429727155
1839.0,0.013631406429727155
1838.0,0.013586594534531482
1837.0,0.013586594534531482
1836.0,0.013541787262693505
1835.0,0.013496984613259544
1834.0,0.013496984613259544
1833.0,0.013496984613259544
1832.0,0.013541787262693505
1831.0,0.013586594534531482
1830.0,0.013676222949234651
1829.0,0.013765869865004277
1828.0,0.01381070026317599
1827.0,0.01381070026317599
1826.0,0.01381070026317599
1825.0,0.013765869865004277
1824.0,0.01372104409400876
1823.0,0.01372104409400876
1822.0,0.013676222949234651
1821.0,0.01372104409400876
1820.0,0.01372104409400876
1819.0,0.01372104409400876
1818.0,0.01372104409400876
1817.0,0.01372104409400876
1816.0,0.013765869865004277
1815.0,0.013765869865004277
1814.0,0.013765869865004277
1813.0,0.013765869865004277
1812.0,0.013765869865004277
1811.0,0.013765869865004277
1810.0,0.01381070026317599
1809.0,0.01385553528947936
1808.0,0.013900374944870508
1807.0,0.013945219230304673
1806.0,0.013945219230304673
1805.0,0.01403492169512921
1804.0,0.014079779876432497
1803.0,0.014079779876432497
1802.0,0.014079779876432497
1801.0,0.014079779876432497
1800.0,0.014079779876432497
1799.0,0.014079779876432497
1798.0,0.01403492169512921
1797.0,0.01403492169512921
1796.0,0.014079779876432497
1795.0,0.014079779876432497
1794.0,0.01403492169512921
1793.0,0.01403492169512921
1792.0,0.014124642691606404
1791.0,0.014169510141607944
1790.0,0.014169510141607944
1789.0,0.014214382227394795
1788.0,0.014259258949925524
1787.0,0.014304140310157809
1786.0,0.014349026309051105
1785.0,0.014393916947563534
1784.0,0.014349026309051105
1783.0,0.014259258949925524
1782.0,0.014169510141607944
1781.0,0.014214382227394795
1780.0,0.014304140310157809
1779.0,0.014393916947563534
1778.0,0.014438812226654996
1777.0,0.0144837121472845
1776.0,0.01452861671041239
1775.0,0.014573525916998342
1774.0,0.0144837121472845
1773.0,0.014438812226654996
1772.0,0.0144837121472845
1771.0,0.014618439768003144
1770.0,0.014708281407112
1769.0,0.014798141635428141
1768.0,0.014843078722943437
1767.0,0.014843078722943437
1766.0,0.014843078722943437
1765.0,0.014843078722943437
1764.0,0.014888020460646079
1763.0,0.014888020460646079
1762.0,0.014932966849499074
1761.0,0.015022873584506602
1760.0,0.015067833932588037
1759.0,0.015112798935672522
1758.0,0.015112798935672522
1757.0,0.015157768594724175
1756.0,0.015292705517326866
1755.0,0.015427684378367834
1754.0,0.01547268665620738
1753.0,0.015562705203923999
1752.0,0.015652742414136167
1751.0,0.01578783323856614
1750.0,0.015922966097169144
1749.0,0.016058141016111804
1748.0,0.016148281008528276
1747.0,0.016238439713835096
1746.0,0.01628352608625061
1745.0,0.016373712875465518
1744.0,0.016509028184833463
1743.0,0.016599261819461697
1742.0,0.016599261819461697
1741.0,0.016599261819461697
1740.0,0.016734647433454652
1739.0,0.016870075265299933
1738.0,0.016960383953898095
1737.0,0.017050711425501408
1736.0,0.017050711425501408
1735.0,0.017005545341335804
1734.0,0.017095882207371904
1733.0,0.01727661233145472
1732.0,0.017457417697056554
1731.0,0.01768353030793479
1730.0,0.017864505196230507
1729.0,0.01800028587012159
1728.0,0.018136109008649592
1727.0,0.018271974638383703
1726.0,0.01845319495476394
1725.0,0.018679826740892747
1724.0,0.01899731005860028
1723.0,0.019269623464054586
1722.0,0.01949668180660491
1721.0,0.019678413991243593
1720.0,0.019860222254245663
1719.0,0.01990568621470623
1718.0,0.02004210665933459
1717.0,0.020315076172974234
1716.0,0.020497151212598652
1715.0,0.020633757603838898
1714.0,0.020724852408976924
1713.0,0.02081596632558158
1712.0,0.020861530453190058
1711.0,0.020907099361673565
1710.0,0.0209982515252789
1709.0,0.021089422824428272
1708.0,0.0211806132671577
1707.0,0.02122621566987748
1706.0,0.021363051615525652
1705.0,0.021636852916117055
1704.0,0.021910826943857264
1703.0,0.022093572362881675
1702.0,0.022093572362881675
1701.0,0.022139270735302752
1700.0,0.022413561996148967
1699.0,0.02259651912656535
1698.0,0.02277955336461468
1697.0,0.023100049017062307
1696.0,0.02351246269481
1695.0,0.023833499868024743
1694.0,0.023971159908874107
1693.0,0.024200690320592466
1692.0,0.024430342106337877
1691.0,0.024660115394541604
1690.0,0.02498200236711723
1689.0,0.02539620791296726
1688.0,0.025810808881832736
1687.0,0.026087429580295085
1686.0,0.026271941311972746
1685.0,0.026687379547098322
1684.0,0.02751945012352408
1683.0,0.028028723600243666
1682.0,0.028306761050139073
1681.0,0.02858497661500481
1680.0,0.028956208163971375
1679.0,0.029281296279810798
1678.0,0.029513651152349718
1677.0,0.029746130405213123
1676.0,0.030071810571884017
1675.0,0.03058408764601861
1674.0,0.031003673351687855
1673.0,0.03133029827960798
1672.0,0.03161045815293173
1671.0,0.03189079887180224
1670.0,0.03226486821611996
1669.0,0.03277974021703267
1668.0,0.033295223342125535
1667.0,0.03362357691107709
1666.0,0.0338113190438627
1665.0,0.03399914237121604
1664.0,0.03428102975577918
1663.0,0.03465716443937783
1662.0,0.03508070571335731
1661.0,0.03541041251009669
1660.0,0.035740369803151095
1659.0,0.03597620715996652
1658.0,0.03621217265444465
1657.0,0.03644826642590382
1656.0,0.03658998431977123
1655.0,0.03649550058570927
1654.0,0.03635381351515665
1653.0,0.036873558918095295
1652.0,0.037346595106788616
1651.0,0.037583306554248797
1650.0,0.03772539537668518
1649.0,0.03777276864991497
1648.0,0.03777276864991497
1647.0,0.03791491948264003
1646.0,0.03800971255993524
1645.0,0.03810452633214956
1644.0,0.038151940981675736
1643.0,0.038199360808321536
1642.0,0.03810452633214956
1641.0,0.038057116858612794
1640.0,0.03796231343498735
1639.0,0.03782014709123227
1638.0,0.037583306554248797
1637.0,0.03720463014276687
1636.0,0.03692083935817303
1635.0,0.036779013477011624
1634.0,0.03663723389626394
1633.0,0.036542739883292485
1632.0,0.03644826642590382
1631.0,0.03625938114211591
1630.0,0.03597620715996652
1629.0,0.035646070707806565
1628.0,0.03531618502395939
1627.0,0.03503362516890207
1626.0,0.03479829897408804
1625.0,0.03442204208947208
1624.0,0.034046110897937076
1623.0,0.03371743783253667
1622.0,0.033482823553208085
1621.0,0.03334211579824231
1620.0,0.033154576345083564
1619.0,0.032873418923587305
1618.0,0.03240522732811035
1617.0,0.03193753992355086
1616.0,0.031563752288295444
1615.0,0.03128362253321426
1614.0,0.03105031901865729
1613.0,0.03081714076773867
1612.0,0.030444315779156517
1611.0,0.030071810571884017
1610.0,0.02969962459782227
1609.0,0.029281296279810798
1608.0,0.02890978686288448
1607.0,0.028538594975413334
1606.0,0.028167720075074953
1605.0,0.027843464140506313
1604.0,0.02747318213414429
1603.0,0.027149444152769986
1602.0,0.026872146400301444
1601.0,0.026595025589939425
1600.0,0.026271941311972746
1599.0,0.025995203102585407
1598.0,0.025718641122169483
1597.0,0.025488307262671706
1596.0,0.025304128090317013
1595.0,0.025074013910237447
1594.0,0.024798037742147727
1593.0,0.02461415101053266
1592.0,0.02438440203310499
1591.0,0.024154774532432866
1590.0,0.023971159908874107
1589.0,0.023787622882622816
1588.0,0.02365002099672653
1587.0,0.02342078135989012
1586.0,0.023237476732539397
1585.0,0.023054249440757957
1584.0,0.022871099419317753
1583.0,0.022688026603074007
1582.0,0.02255077261765881
1581.0,0.022413561996148967
1580.0,0.02227639471115217
1579.0,0.0221849739168134
1578.0,0.02200219004126036
1577.0,0.021773818325474092
1576.0,0.02159120737696063
1575.0,0.02140867317992523
1574.0,0.021317434843055594
1573.0,0.02122621566987748
1572.0,0.021089422824428272
1571.0,0.02081596632558158
1570.0,0.020633757603838898
1569.0,0.020542681902151694
1568.0,0.020497151212598652
1567.0,0.020406104151069693
1566.0,0.020315076172974234
1565.0,0.02022406727031445
1564.0,0.02022406727031445
1563.0,0.020178569969774962
1562.0,0.02013307743509718
1561.0,0.019860222254245663
1560.0,0.01949668180660491
1559.0,0.01949668180660491
1558.0,0.01958753839310856
1557.0,0.01954210772389997
1556.0,0.01949668180660491
1555.0,0.019451260640229506
1554.0,0.019360432556262852
1553.0,0.019315025636685412
1552.0,0.019269623464054586
1551.0,0.019178833355664393
1550.0,0.0190880622231564
1549.0,0.019042683770379876
1548.0,0.018951941086827073
1547.0,0.018861217359339655
1546.0,0.018770512579999288
1545.0,0.018679826740892747
1544.0,0.018634490921455527
1543.0,0.01845319495476394
1542.0,0.01809082990920774
1541.0,0.01800028587012159
1540.0,0.018226681372252695
1539.0,0.01831727262871463
1538.0,0.018271974638383703
1537.0,0.01831727262871463
1536.0,0.01831727262871463
1535.0,0.018226681372252695
1534.0,0.018045555530026514
1533.0,0.018045555530026514
1532.0,0.01800028587012159
1531.0,0.017864505196230507
1530.0,0.017728766960431575
1529.0,0.017728766960431575
1528.0,0.017728766960431575
1527.0,0.01768353030793479
1526.0,0.01768353030793479
1525.0,0.017728766960431575
1524.0,0.01781925440359733
1523.0,0.01768353030793479
1522.0,0.017502630802287644
1521.0,0.017457417697056554
1520.0,0.017412209298337533
1519.0,0.01727661233145472
1518.0,0.017141057687924732
1517.0,0.017186237868137555
1516.0,0.01727661233145472
1515.0,0.017231422748988034
1514.0,0.017141057687924732
1513.0,0.017141057687924732
1512.0,0.017186237868137555
1511.0,0.017186237868137555
1510.0,0.017141057687924732
1509.0,0.017141057687924732
1508.0,0.017186237868137555
1507.0,0.017141057687924732
1506.0,0.016960383953898095
1505.0,0.016915227262211507
1504.0,0.016915227262211507
1503.0,0.016915227262211507
1502.0,0.016915227262211507
1501.0,0.016960383953898095
1500.0,0.017005545341335804
1499.0,0.016960383953898095
1498.0,0.016824927962187042
1497.0,0.016870075265299933
1496.0,0.016960383953898095
1495.0,0.016915227262211507
1494.0,0.016915227262211507
1493.0,0.017005545341335804
1492.0,0.017050711425501408
1491.0,0.016870075265299933
1490.0,0.016689514205884493
1489.0,0.01677978535189717
1488.0,0.016915227262211507
1487.0,0.016824927962187042
1486.0,0.016689514205884493
1485.0,0.016734647433454652
1484.0,0.016870075265299933
1483.0,0.017005545341335804
1482.0,0.017231422748988034
1481.0,0.017774008325325275
1480.0,0.018634490921455527
1479.0,0.01995115493504329
1478.0,0.02277955336461468
1477.0,0.028863370523193765
1476.0,0.038911280232103884
1475.0,0.052419250695677544
1474.0,0.06864384953207203
1473.0,0.08317771540408803
1472.0,0.08916223500731646
1471.0,0.0880970039559672
1470.0,0.0861331881037608
1469.0,0.08560394787021397
1468.0,0.08639805027084257
1467.0,0.08889568219596411
1466.0,0.09496007192378841
1465.0,0.10463271122663809
1464.0,0.1128329791052256
1463.0,0.11492161585077598
1462.0,0.11109074073646874
1461.0,0.10352889952072264
1460.0,0.09409623378338305
1459.0,0.08428366205400617
1458.0,0.0756173227980268
1457.0,0.06930561233546473
1456.0,0.0654005617819271
1455.0,0.06268275223750575
1454.0,0.060131455540490375
1453.0,0.05744631966579017
1452.0,0.054679159207724926
1451.0,0.05232126006306337
1450.0,0.050463626623857394
1449.0,0.048808242065293994
1448.0,0.04730440041308315
1447.0,0.046143701775014145
1446.0,0.04527520902093718
1445.0,0.04450467081587295
1444.0,0.043735497301724546
1443.0,0.043063586155803746
1442.0,0.04248848854552012
1441.0,0.04186632432376469
1440.0,0.04124505013091051
1439.0,0.040672354027829094
1438.0,0.040005161671583744
1437.0,0.03919637508823026
1436.0,0.03838909190871931
1435.0,0.03772539537668518
1434.0,0.037062711569998186
1433.0,0.03630659476198117
1432.0,0.03545753392086315
1431.0,0.03456310022373987
1430.0,0.03371743783253667
1429.0,0.03282657704446046
1428.0,0.032031037121307726
1427.0,0.03133029827960798
1426.0,0.0307239045110681
1425.0,0.030118356253500123
1424.0,0.029560137048236124
1423.0,0.029234840219232394
1422.0,0.028956208163971375
1421.0,0.02863136320857662
1420.0,0.028353117935693284
1419.0,0.028167720075074953
1418.0,0.028075050815808744
1417.0,0.027843464140506313
1416.0,0.02751945012352408
1415.0,0.027334407733889066
1414.0,0.027149444152769986
1413.0,0.02691835039863255
1412.0,0.026733563891471412
1411.0,0.02654885597506529
1410.0,0.026456531467510258
1409.0,0.026271941311972746
1408.0,0.026087429580295085
1407.0,0.025949097207122573
1406.0,0.025810808881832736
1405.0,0.02558042614771394
1404.0,0.025350165561278004
1403.0,0.02521206778644225
1402.0,0.02512002699306959
1401.0,0.024936003904763915
1400.0,0.02475205875931885
1399.0,0.024706084643793647
1398.0,0.024706084643793647
1397.0,0.02461415101053266
1396.0,0.024476287039668643
1395.0,0.02438440203310499
1394.0,0.024292536462819925
1393.0,0.024154774532432866
1392.0,0.024017056287453542
1391.0,0.023971159908874107
1390.0,0.023925268380126097
1389.0,0.023925268380126097
1388.0,0.023925268380126097
1387.0,0.02406295751688936
1386.0,0.024338466818941473
1385.0,0.02461415101053266
1384.0,0.025074013910237447
1383.0,0.025718641122169483
1382.0,0.02664120011360227
1381.0,0.0277045713888604
1380.0,0.028770552723758724
1379.0,0.029653123769906697
1378.0,0.030211462585061133
1377.0,0.03025802323714588
1376.0,0.029978734171634214
1375.0,0.02960662792039992
1374.0,0.029374223311705583
1373.0,0.029234840219232394
1372.0,0.029188389127482228
1371.0,0.029188389127482228
1370.0,0.029281296279810798
1369.0,0.02932775731028059
1368.0,0.029281296279810798
1367.0,0.029141943003497595
1366.0,0.028956208163971375
1365.0,0.028677754757187035
1364.0,0.02839947976994095
1363.0,0.028167720075074953
1362.0,0.027936083991977778
1361.0,0.027658283674251827
1360.0,0.02738066094037661
1359.0,0.027149444152769986
1358.0,0.027010773144651168
1357.0,0.02696455931306696
1356.0,0.02691835039863255
1355.0,0.02696455931306696
1354.0,0.027056991894431892
1353.0,0.02710321556345563
1352.0,0.027056991894431892
1351.0,0.027056991894431892
1350.0,0.02696455931306696
1349.0,0.026872146400301444
1348.0,0.026733563891471412
1347.0,0.026595025589939425
1346.0,0.026456531467510258
1345.0,0.026318081496016443
1344.0,0.02617967564731627
1343.0,0.026041313893296225
1342.0,0.025949097207122573
1341.0,0.025902996205869
1340.0,0.025810808881832736
1339.0,0.025718641122169483
1338.0,0.02558042614771394
1337.0,0.025350165561278004
1336.0,0.025074013910237447
1335.0,0.02484402159331056
1334.0,0.024706084643793647
1333.0,0.024568191490736968
1332.0,0.024476287039668643
1331.0,0.02438440203310499
1330.0,0.024338466818941473
1329.0,0.024338466818941473
1328.0,0.024338466818941473
1327.0,0.024338466818941473
1326.0,0.024430342106337877
1325.0,0.024476287039668643
1324.0,0.024568191490736968
1323.0,0.024660115394541604
1322.0,0.02475205875931885
1321.0,0.024890010313838973
1320.0,0.02498200236711723
1319.0,0.02512002699306959
1318.0,0.025304128090317013
1317.0,0.02539620791296726
1316.0,0.02553436426275746
1315.0,0.025672564576383117
1314.0,0.025810808881832736
1313.0,0.025949097207122573
1312.0,0.026041313893296225
1311.0,0.02613355016462182
1310.0,0.026271941311972746
1309.0,0.026410376572743033
1308.0,0.02654885597506529
1307.0,0.026687379547098322
1306.0,0.02677975314776626
1305.0,0.02682594731702781
1304.0,0.026872146400301444
1303.0,0.02691835039863255
1302.0,0.02696455931306696
1301.0,0.02696455931306696
1300.0,0.02696455931306696
1299.0,0.02696455931306696
1298.0,0.02696455931306696
1297.0,0.027010773144651168
1296.0,0.027010773144651168
1295.0,0.027010773144651168
1294.0,0.02696455931306696
1293.0,0.02691835039863255
1292.0,0.02682594731702781
1291.0,0.02677975314776626
1290.0,0.026733563891471412
1289.0,0.026733563891471412
1288.0,0.026687379547098322
1287.0,0.026687379547098322
1286.0,0.026733563891471412
1285.0,0.026733563891471412
1284.0,0.026733563891471412
1283.0,0.026733563891471412
1282.0,0.02677975314776626
1281.0,0.026733563891471412
1280.0,0.026733563891471412
1279.0,0.02677975314776626
1278.0,0.02682594731702781
1277.0,0.02691835039863255
1276.0,0.02691835039863255
1275.0,0.02696455931306696
1274.0,0.027010773144651168
1273.0,0.02710321556345563
1272.0,0.027195677663422346
1271.0,0.02724191609646076
1270.0,0.027334407733889066
1269.0,0.02738066094037661
1268.0,0.027426919073445077
1267.0,0.02747318213414429
1266.0,0.02751945012352408
1265.0,0.027565723042634938
1264.0,0.027612000892527133
1263.0,0.0277045713888604
1262.0,0.027797161620935595
1261.0,0.027843464140506313
1260.0,0.027889771597169544
1259.0,0.027889771597169544
1258.0,0.027889771597169544
1257.0,0.027889771597169544
1256.0,0.027889771597169544
1255.0,0.027936083991977778
1254.0,0.028028723600243666
1253.0,0.02812138297373412
1252.0,0.028167720075074953
1251.0,0.028214062120885508
1250.0,0.028306761050139073
1249.0,0.02839947976994095
1248.0,0.02849221828874393
1247.0,0.02858497661500481
1246.0,0.02863136320857662
1245.0,0.02872415126189476
1244.0,0.028770552723758724
1243.0,0.028863370523193765
1242.0,0.029002634427514717
1241.0,0.029141943003497595
1240.0,0.029281296279810798
1239.0,0.02942069428514915
1238.0,0.029513651152349718
1237.0,0.02960662792039992
1236.0,0.02969962459782227
1235.0,0.029839156962686353
1234.0,0.029978734171634214
1233.0,0.030071810571884017
1232.0,0.030164906924202484
1231.0,0.03025802323714588
1230.0,0.030397735151460825
1229.0,0.030490901403433135
1228.0,0.03058408764601861
1227.0,0.0307239045110681
1226.0,0.030863766403287585
1225.0,0.030957032694186815
1224.0,0.031096969696171817
1223.0,0.031190286087141805
1222.0,0.03128362253321426
1221.0,0.03142366482450232
1220.0,0.03151705144606498
1219.0,0.03161045815293173
1218.0,0.03170388495374454
1217.0,0.03179733185715028
1216.0,0.03189079887180224
1215.0,0.032031037121307726
1214.0,0.03217132066984485
1213.0,0.03226486821611996
1212.0,0.03240522732811035
1211.0,0.03249882527715853
1210.0,0.032592443402527316
1209.0,0.03273290844021437
1208.0,0.032873418923587305
1207.0,0.03301397488206215
1206.0,0.033201453616638954
1205.0,0.03334211579824231
1204.0,0.03343591590268957
1203.0,0.03357665405630694
1202.0,0.03371743783253667
1201.0,0.03385826726096752
1200.0,0.03399914237121604
1199.0,0.034187046963396917
1198.0,0.03432802877989327
1197.0,0.034516075754861264
1196.0,0.03475124903287918
1195.0,0.0349394793888016
1194.0,0.03512779136222477
1193.0,0.03526907894637077
1192.0,0.03545753392086315
1191.0,0.035646070707806565
1190.0,0.03583468937826462
1189.0,0.03597620715996652
1188.0,0.03616496929785207
1187.0,0.036401037402758574
1186.0,0.036731748473764814
1185.0,0.037062711569998186
1184.0,0.037346595106788616
1183.0,0.037583306554248797
1182.0,0.03777276864991497
1181.0,0.03800971255993524
1180.0,0.038199360808321536
1179.0,0.03848398855105106
1178.0,0.03876880295533702
1177.0,0.03905380426616856
1176.0,0.03929144831144349
1175.0,0.03952922246570112
1174.0,0.039719535563357944
1173.0,0.039909932095080425
1172.0,0.04010041213405646
1171.0,0.040338629726504704
1170.0,0.04062466342415694
1169.0,0.04086316882962593
1168.0,0.041101805289228244
1167.0,0.04124505013091051
1166.0,0.04138834223512067
1165.0,0.04153168163305643
1164.0,0.04167506835594681
1163.0,0.04186632432376469
1162.0,0.042057664554595586
1161.0,0.04224908912272074
1160.0,0.04244059810252043
1159.0,0.042584285277331047
1158.0,0.04268010314465909
1157.0,0.04282386959515394
1156.0,0.04301563225723992
1155.0,0.04320747962950522
1154.0,0.04344740808260106
1153.0,0.04359142880416744
1152.0,0.043735497301724546
1151.0,0.04383156952463674
1150.0,0.04397571771932274
1149.0,0.04411991377462465
1148.0,0.04426415772233416
1147.0,0.04440844959427559
1146.0,0.04460091336073302
1145.0,0.044793462458058375
1144.0,0.044937930324967956
1143.0,0.04513062893352182
1142.0,0.04527520902093718
1141.0,0.04541983725624266
1140.0,0.045564513671517703
1139.0,0.04570923829887308
1138.0,0.04585401117045196
1137.0,0.04595055323640551
1136.0,0.04609540658654021
1135.0,0.04624030826677128
1134.0,0.04638525830935958
1133.0,0.04653025674659861
1132.0,0.04662694927330402
1131.0,0.04672366333269573
1130.0,0.04682039893436585
1129.0,0.04686877481655505
1128.0,0.0469171560879138
1127.0,0.04701393480294458
1126.0,0.04711073508906982
1125.0,0.04725597598510167
1124.0,0.04740126547022694
1123.0,0.04749815213697639
1122.0,0.04754660357696672
1121.0,0.047595060422975566
1120.0,0.047643522676209304
1119.0,0.04774046340917959
1118.0,0.0478374257855374
1117.0,0.047885915093007325
1116.0,0.047982909952573705
1115.0,0.04803141550708934
1114.0,0.048128442871635535
1113.0,0.04827402457540786
1112.0,0.04837110616336182
1111.0,0.048468209457651845
1110.0,0.04851676924770687
1109.0,0.0486139051197072
1108.0,0.0486139051197072
1107.0,0.04866248120408234
1106.0,0.04866248120408234
1105.0,0.04871106272232795
1104.0,0.048808242065293994
1103.0,0.048905443158337114
1102.0,0.048954051864180226
1101.0,0.04900266601119507
1100.0,0.04900266601119507
1099.0,0.04905128560059957
1098.0,0.04905128560059957
1097.0,0.04909991063361274
1096.0,0.049148541111453614
1095.0,0.04919717703534143
1094.0,0.04919717703534143
1093.0,0.04919717703534143
1092.0,0.04919717703534143
1091.0,0.04919717703534143
1090.0,0.04919717703534143
1089.0,0.049148541111453614
1088.0,0.04909991063361274
1087.0,0.04900266601119507
1086.0,0.048954051864180226
1085.0,0.04885683989244738
1084.0,0.04885683989244738
1083.0,0.048808242065293994
1082.0,0.04875964967565971
1081.0,0.0486139051197072
1080.0,0.048468209457651845
1079.0,0.04827402457540786
1078.0,0.048128442871635535
1077.0,0.047934409814949674
1076.0,0.04778894189133087
1075.0,0.04754660357696672
1074.0,0.04730440041308315
1073.0,0.047062332249019345
1072.0,0.04677202844014605
1071.0,0.04653025674659861
1070.0,0.046192002334692894
1069.0,0.04580574818413763
1068.0,0.0454680573730859
1067.0,0.04513062893352182
1066.0,0.04488976902944808
1065.0,0.04469717723830824
1064.0,0.04440844959427559
1063.0,0.04411991377462465
1062.0,0.043735497301724546
1061.0,0.0433514207947967
1060.0,0.04287180232318688
1059.0,0.04244059810252043
1058.0,0.042057664554595586
1057.0,0.04167506835594681
1056.0,0.041340572947066834
1055.0,0.041006334969674096
1054.0,0.04057697805689475
1053.0,0.04010041213405646
1052.0,0.03967194946985697
1051.0,0.039338992729018196
1050.0,0.039006291057664066
1049.0,0.038721320914956836
1048.0,0.038436537637930535
1047.0,0.038151940981675736
1046.0,0.03786753070176463
1045.0,0.037583306554248797
1044.0,0.037299268295658994
1043.0,0.03701541568300293
1042.0,0.036779013477011624
1041.0,0.036542739883292485
1040.0,0.03635381351515665
1039.0,0.036117771071222604
1038.0,0.03592902944204468
1037.0,0.035740369803151095
1036.0,0.035646070707806565
1035.0,0.03555179208333925
1034.0,0.03541041251009669
1033.0,0.03522197797762394
1032.0,0.0349394793888016
1031.0,0.03475124903287918
1030.0,0.034516075754861264
1029.0,0.03432802877989327
1028.0,0.03409308450480819
1027.0,0.033952178923546183
1026.0,0.0338113190438627
1025.0,0.03367050483612166
1024.0,0.03357665405630694
1023.0,0.03343591590268957
1022.0,0.03334211579824231
1021.0,0.0332483359486222
1020.0,0.033154576345083564
1019.0,0.033154576345083564
1018.0,0.033201453616638954
1017.0,0.0332483359486222
1016.0,0.0332483359486222
1015.0,0.0332483359486222
1014.0,0.033295223342125535
1013.0,0.033295223342125535
1012.0,0.03338901331806565
1011.0,0.03343591590268957
1010.0,0.033482823553208085
1009.0,0.03357665405630694
1008.0,0.03371743783253667
1007.0,0.03385826726096752
1006.0,0.03399914237121604
1005.0,0.034046110897937076
1004.0,0.034046110897937076
1003.0,0.033952178923546183
1002.0,0.033905220553829274
1001.0,0.0338113190438627
1000.0,0.03371743783253667
999.0,0.03367050483612166
998.0,0.03357665405630694
997.0,0.033482823553208085
996.0,0.033295223342125535
995.0,0.033060836978886954
994.0,0.03282657704446046
993.0,0.032592443402527316
992.0,0.03235843591698884
991.0,0.03217132066984485
990.0,0.031984286006358165
989.0,0.03179733185715028
988.0,0.031563752288295444
987.0,0.03142366482450232
986.0,0.03133029827960798
985.0,0.031190286087141805
984.0,0.03105031901865729
983.0,0.030910397045078586
982.0,0.030770520137356927
981.0,0.03063068826647264
980.0,0.030537492025363155
979.0,0.030397735151460825
978.0,0.03030458888152676
977.0,0.030164906924202484
976.0,0.03002526987828502
975.0,0.029932203450862893
974.0,0.029839156962686353
973.0,0.02969962459782227
972.0,0.029653123769906697
971.0,0.02960662792039992
970.0,0.02960662792039992
969.0,0.02960662792039992
968.0,0.029560137048236124
967.0,0.029467170231675777
966.0,0.02942069428514915
965.0,0.02932775731028059
964.0,0.029281296279810798
963.0,0.029234840219232394
962.0,0.029188389127482228
961.0,0.029188389127482228
960.0,0.029141943003497595
959.0,0.029095501846216454
958.0,0.02904906565457588
957.0,0.029002634427514717
956.0,0.02890978686288448
955.0,0.028863370523193765
954.0,0.028816959143838528
953.0,0.028770552723758724
952.0,0.02872415126189476
951.0,0.02872415126189476
950.0,0.02872415126189476
949.0,0.02872415126189476
948.0,0.02872415126189476
947.0,0.028770552723758724
946.0,0.028770552723758724
945.0,0.02872415126189476
944.0,0.02872415126189476
943.0,0.028770552723758724
942.0,0.028816959143838528
941.0,0.028816959143838528
940.0,0.028770552723758724
939.0,0.028677754757187035
938.0,0.02858497661500481
937.0,0.028538594975413334
936.0,0.028538594975413334
935.0,0.02858497661500481
934.0,0.028677754757187035
933.0,0.02872415126189476
932.0,0.02872415126189476
931.0,0.02872415126189476
930.0,0.028770552723758724
929.0,0.028770552723758724
928.0,0.028770552723758724
927.0,0.028770552723758724
926.0,0.028770552723758724
925.0,0.028770552723758724
924.0,0.02872415126189476
923.0,0.028677754757187035
922.0,0.028677754757187035
921.0,0.028677754757187035
920.0,0.02863136320857662
919.0,0.028677754757187035
918.0,0.02872415126189476
917.0,0.028816959143838528
916.0,0.028863370523193765
915.0,0.028956208163971375
914.0,0.029002634427514717
913.0,0.029095501846216454
912.0,0.029141943003497595
911.0,0.029188389127482228
910.0,0.029234840219232394
909.0,0.029234840219232394
908.0,0.029234840219232394
907.0,0.029281296279810798
906.0,0.02932775731028059
905.0,0.029374223311705583
904.0,0.02932775731028059
903.0,0.02932775731028059
902.0,0.02932775731028059
901.0,0.02942069428514915
900.0,0.029560137048236124
899.0,0.02969962459782227
898.0,0.029746130405213123
897.0,0.029792641193145286
896.0,0.029792641193145286
895.0,0.029792641193145286
894.0,0.029792641193145286
893.0,0.029792641193145286
892.0,0.029885677714903025
891.0,0.029978734171634214
890.0,0.030164906924202484
889.0,0.03030458888152676
888.0,0.030444315779156517
887.0,0.030537492025363155
886.0,0.03058408764601861
885.0,0.03067729388779794
884.0,0.0307239045110681
883.0,0.030770520137356927
882.0,0.03081714076773867
881.0,0.030863766403287585
880.0,0.030910397045078586
879.0,0.030957032694186815
878.0,0.031003673351687855
877.0,0.03105031901865729
876.0,0.031143625385307683
875.0,0.031190286087141805
874.0,0.031190286087141805
873.0,0.031143625385307683
872.0,0.03105031901865729
871.0,0.030957032694186815
870.0,0.030863766403287585
869.0,0.03081714076773867
868.0,0.03081714076773867
867.0,0.030910397045078586
866.0,0.031003673351687855
865.0,0.03105031901865729
864.0,0.03105031901865729
863.0,0.03105031901865729
862.0,0.031003673351687855
861.0,0.03105031901865729
860.0,0.031143625385307683
859.0,0.031190286087141805
858.0,0.03128362253321426
857.0,0.03133029827960798
856.0,0.03137697904301118
855.0,0.03142366482450232
854.0,0.03147035562516054
853.0,0.03147035562516054
852.0,0.03147035562516054
851.0,0.03151705144606498
850.0,0.031657169041054534
849.0,0.03175060589208267
848.0,0.03189079887180224
847.0,0.032031037121307726
846.0,0.03217132066984485
845.0,0.032218091924200776
844.0,0.032218091924200776
843.0,0.032218091924200776
842.0,0.03217132066984485
841.0,0.032218091924200776
840.0,0.03226486821611996
839.0,0.03240522732811035
838.0,0.032592443402527316
837.0,0.03273290844021437
836.0,0.03282657704446046
835.0,0.03282657704446046
834.0,0.03282657704446046
833.0,0.032873418923587305
832.0,0.032920265855503006
831.0,0.0329671178412978
830.0,0.033060836978886954
829.0,0.033154576345083564
828.0,0.0332483359486222
827.0,0.03338901331806565
826.0,0.033482823553208085
825.0,0.03352973627071565
824.0,0.03357665405630694
823.0,0.03371743783253667
822.0,0.033905220553829274
821.0,0.034046110897937076
820.0,0.03414006319292828
819.0,0.03414006319292828
818.0,0.03414006319292828
817.0,0.03414006319292828
816.0,0.03423403581731388
815.0,0.03437503289075727
814.0,0.034469056377139484
813.0,0.03461012978487776
812.0,0.03479829897408804
811.0,0.0349394793888016
810.0,0.03503362516890207
809.0,0.03517488211661135
808.0,0.03526907894637077
807.0,0.035363296211498474
806.0,0.03550466044490741
805.0,0.035740369803151095
804.0,0.03592902944204468
803.0,0.036117771071222604
802.0,0.03621217265444465
801.0,0.03635381351515665
800.0,0.03644826642590382
799.0,0.03658998431977123
798.0,0.03668448861388862
797.0,0.03682628362474838
796.0,0.037062711569998186
795.0,0.037299268295658994
794.0,0.03753595394209874
793.0,0.03777276864991497
792.0,0.03791491948264003
791.0,0.038057116858612794
790.0,0.03824678581321739
789.0,0.03848398855105106
788.0,0.038673844065289176
787.0,0.038816290187564384
786.0,0.038816290187564384
785.0,0.03886378261277468
784.0,0.038958783046687984
783.0,0.03910132267333921
782.0,0.03938654235209116
781.0,0.03967194946985697
780.0,0.039909932095080425
779.0,0.04010041213405646
778.0,0.040243327009005014
777.0,0.040338629726504704
776.0,0.040529297924893015
775.0,0.04076775094900409
774.0,0.04091088563260792
773.0,0.04105406750606355
772.0,0.041149548320321694
771.0,0.041340572947066834
770.0,0.041579471947481794
769.0,0.04181850243505214
768.0,0.041914151478914974
767.0,0.04196198390166317
766.0,0.04200982159316968
765.0,0.04210551278710151
764.0,0.04229695845116854
763.0,0.04244059810252043
762.0,0.04248848854552012
761.0,0.04248848854552012
760.0,0.04263219156847242
759.0,0.04282386959515394
758.0,0.04301563225723992
757.0,0.04320747962950522
756.0,0.04339941178682327
755.0,0.043495409683302455
754.0,0.04368746915880539
753.0,0.04397571771932274
752.0,0.04426415772233416
751.0,0.04455278942230456
750.0,0.044793462458058375
749.0,0.044937930324967956
748.0,0.04503426894157925
747.0,0.04513062893352182
746.0,0.04522701031028298
745.0,0.04537162249272897
744.0,0.045564513671517703
743.0,0.045564513671517703
742.0,0.045564513671517703
741.0,0.04575749056067524
740.0,0.046143701775014145
739.0,0.04662694927330402
738.0,0.04715914332429838
737.0,0.047934409814949674
736.0,0.04934311749548925
735.0,0.05227227303668425
734.0,0.05794231615860479
733.0,0.0675769736232612
732.0,0.08034671768963575
731.0,0.09296504751658308
730.0,0.10100072911021085
729.0,0.10237290870955862
728.0,0.09875969792669093
727.0,0.09382663635595145
726.0,0.09060445403289452
725.0,0.09039048950983108
724.0,0.0935033402006471
723.0,0.10034361969436434
722.0,0.11187669270209155
721.0,0.1276688787697493
720.0,0.1427881576831076
719.0,0.1500894416985039
718.0,0.146788665496683
717.0,0.13632033212410222
716.0,0.12337808396572703
715.0,0.11120293254331926
714.0,0.10116516193172598
713.0,0.09334178232840018
712.0,0.08745911720936239
711.0,0.08291480935943274
710.0,0.07919861817434581
709.0,0.07592757008963713
708.0,0.07319468988839395
707.0,0.07109230975604719
706.0,0.06956040523329987
705.0,0.06823711151882228
704.0,0.06701917807680191
703.0,0.06590573164451952
702.0,0.06499684854634524
701.0,0.06414020196211956
700.0,0.06333548699992453
699.0,0.06253226035662252
698.0,0.061780582187257016
697.0,0.06103020277710969
696.0,0.060430831344098435
695.0,0.06003170944866376
694.0,0.05983228596592505
693.0,0.05953332233647113
692.0,0.059135024033278416
691.0,0.05868737463933793
690.0,0.05824018618530458
689.0,0.05789269101064454
688.0,0.05754547365752294
687.0,0.05729763111133224
686.0,0.0571489934456626
685.0,0.0571489934456626
684.0,0.05734718830678798
683.0,0.0575950591438934
682.0,0.05769424710410598
681.0,0.0575950591438934
680.0,0.057396751157843484
679.0,0.057198533682059516
678.0,0.05709945885970602
677.0,0.056950888991593285
676.0,0.05680236993107379
675.0,0.05660442349104544
674.0,0.05625823416868636
673.0,0.05581353871631256
672.0,0.05546797900801881
671.0,0.05566540802921782
670.0,0.05650548409389744
669.0,0.0583891978463662
668.0,0.06068046892176193
667.0,0.060880282351513104
666.0,0.05933412752417122
665.0,0.057743849580535134
664.0,0.05685187064143715
663.0,0.05655495097496965
662.0,0.056456022846545606
661.0,0.056406567231630955
660.0,0.056406567231630955
659.0,0.05635711724787096
658.0,0.05630767289398331
657.0,0.05610995175152733
656.0,0.055912320584565744
655.0,0.05586292684190197
654.0,0.05586292684190197
653.0,0.055961719945581745
652.0,0.05606053552778367
651.0,0.056159373598738904
650.0,0.05630767289398331
649.0,0.05630767289398331
648.0,0.05620880107069848
647.0,0.05610995175152733
646.0,0.055961719945581745
645.0,0.05601112492622806
644.0,0.05635711724787096
643.0,0.05685187064143715
642.0,0.05724807957018618
641.0,0.05729763111133224
640.0,0.057198533682059516
639.0,0.05744631966579017
638.0,0.0583395216116076
637.0,0.05968277842578207
636.0,0.060880282351513104
635.0,0.06118017497378969
634.0,0.06028111764589528
633.0,0.058786812414678646
632.0,0.05754547365752294
631.0,0.05690137699451481
630.0,0.0567528748621382
629.0,0.05680236993107379
628.0,0.05690137699451481
627.0,0.05685187064143715
626.0,0.056406567231630955
625.0,0.055764156206519866
624.0,0.055122694036304765
623.0,0.05477768336465916
622.0,0.05477768336465916
621.0,0.05502409158795207
620.0,0.05551732784983132
619.0,0.05606053552778367
618.0,0.05665390164340933
617.0,0.05724807957018618
616.0,0.05784307153250956
615.0,0.058190526991161784
614.0,0.05814087347462649
613.0,0.05779345772290467
612.0,0.057396751157843484
611.0,0.05734718830678798
610.0,0.05769424710410598
609.0,0.0583891978463662
608.0,0.05943371350990989
607.0,0.06063052992534024
606.0,0.061680456657844385
605.0,0.06253226035662252
604.0,0.06353652599525317
603.0,0.06474471821595262
602.0,0.06600683616875758
601.0,0.06722192993944942
600.0,0.06828793294324442
