cm-1,A
4000.0,0.0098
3999.0,0.0098
3998.0,0.0098
3997.0,0.0099
3996.0,0.0099
3995.0,0.01
3994.0,0.0101
3993.0,0.0101
3992.0,0.0102
3991.0,0.0102
3990.0,0.0101
3989.0,0.01
3988.0,0.0099
3987.0,0.0098
3986.0,0.0098
3985.0,0.0099
3984.0,0.01
3983.0,0.01
3982.0,0.01
3981.0,0.01
3980.0,0.0099
3979.0,0.0099
3978.0,0.0099
3977.0,0.01
3976.0,0.0101
3975.0,0.0102
3974.0,0.0103
3973.0,0.0103
3972.0,0.0102
3971.0,0.0101
3970.0,0.0101
3969.0,0.01
3968.0,0.0099
3967.0,0.0098
3966.0,0.0097
3965.0,0.0098
3964.0,0.0099
3963.0,0.01
3962.0,0.0101
3961.0,0.0101
3960.0,0.01
3959.0,0.01
3958.0,0.0099
3957.0,0.0099
3956.0,0.0099
3955.0,0.01
3954.0,0.01
3953.0,0.01
3952.0,0.01
3951.0,0.01
3950.0,0.0101
3949.0,0.0102
3948.0,0.0103
3947.0,0.0104
3946.0,0.0103
3945.0,0.0102
3944.0,0.0101
3943.0,0.0101
3942.0,0.01
3941.0,0.0101
3940.0,0.0101
3939.0,0.0101
3938.0,0.0101
3937.0,0.0101
3936.0,0.0101
3935.0,0.0101
3934.0,0.0101
3933.0,0.0101
3932.0,0.0102
3931.0,0.0103
3930.0,0.0104
3929.0,0.0104
3928.0,0.0104
3927.0,0.0104
3926.0,0.0103
3925.0,0.0102
3924.0,0.0101
3923.0,0.01
3922.0,0.01
3921.0,0.01
3920.0,0.0101
3919.0,0.0101
3918.0,0.0101
3917.0,0.01
3916.0,0.01
3915.0,0.0101
3914.0,0.0101
3913.0,0.0101
3912.0,0.0101
3911.0,0.0101
3910.0,0.0102
3909.0,0.0103
3908.0,0.0105
3907.0,0.0106
3906.0,0.0107
3905.0,0.0107
3904.0,0.0106
3903.0,0.0106
3902.0,0.0106
3901.0,0.0106
3900.0,0.0106
3899.0,0.0105
3898.0,0.0104
3897.0,0.0103
3896.0,0.0102
3895.0,0.0102
3894.0,0.0102
3893.0,0.0103
3892.0,0.0103
3891.0,0.0103
3890.0,0.0104
3889.0,0.0105
3888.0,0.0106
3887.0,0.0105
3886.0,0.0104
3885.0,0.0104
3884.0,0.0105
3883.0,0.0106
3882.0,0.0106
3881.0,0.0106
3880.0,0.0105
3879.0,0.0104
3878.0,0.0104
3877.0,0.0103
3876.0,0.0102
3875.0,0.0101
3874.0,0.0101
3873.0,0.0104
3872.0,0.0106
3871.0,0.0107
3870.0,0.0106
3869.0,0.0105
3868.0,0.0105
3867.0,0.0104
3866.0,0.0104
3865.0,0.0105
3864.0,0.0107
3863.0,0.0108
3862.0,0.0106
3861.0,0.0104
3860.0,0.0102
3859.0,0.01
3858.0,0.01
3857.0,0.0101
3856.0,0.01
3855.0,0.0098
3854.0,0.0098
3853.0,0.0101
3852.0,0.0103
3851.0,0.0104
3850.0,0.0105
3849.0,0.0104
3848.0,0.0104
3847.0,0.0104
3846.0,0.0105
3845.0,0.0105
3844.0,0.0105
3843.0,0.0105
3842.0,0.0106
3841.0,0.0106
3840.0,0.0106
3839.0,0.0105
3838.0,0.0105
3837.0,0.0105
3836.0,0.0105
3835.0,0.0106
3834.0,0.0107
3833.0,0.0108
3832.0,0.0109
3831.0,0.0109
3830.0,0.0109
3829.0,0.0108
3828.0,0.0107
3827.0,0.0106
3826.0,0.0105
3825.0,0.0106
3824.0,0.0108
3823.0,0.0109
3822.0,0.011
3821.0,0.011
3820.0,0.011
3819.0,0.011
3818.0,0.011
3817.0,0.0108
3816.0,0.0107
3815.0,0.0106
3814.0,0.0106
3813.0,0.0106
3812.0,0.0105
3811.0,0.0104
3810.0,0.0104
3809.0,0.0103
3808.0,0.0101
3807.0,0.0101
3806.0,0.0103
3805.0,0.0106
3804.0,0.0109
3803.0,0.0109
3802.0,0.0109
3801.0,0.0108
3800.0,0.0107
3799.0,0.0106
3798.0,0.0106
3797.0,0.0106
3796.0,0.0106
3795.0,0.0106
3794.0,0.0106
3793.0,0.0106
3792.0,0.0105
3791.0,0.0105
3790.0,0.0105
3789.0,0.0105
3788.0,0.0105
3787.0,0.0105
3786.0,0.0105
3785.0,0.0106
3784.0,0.0106
3783.0,0.0107
3782.0,0.0106
3781.0,0.0105
3780.0,0.0104
3779.0,0.0104
3778.0,0.0105
3777.0,0.0105
3776.0,0.0104
3775.0,0.0104
3774.0,0.0103
3773.0,0.0104
3772.0,0.0104
3771.0,0.0105
3770.0,0.0105
3769.0,0.0105
3768.0,0.0106
3767.0,0.0107
3766.0,0.0108
3765.0,0.0109
3764.0,0.0109
3763.0,0.0109
3762.0,0.0108
3761.0,0.0106
3760.0,0.0106
3759.0,0.0106
3758.0,0.0106
3757.0,0.0106
3756.0,0.0106
3755.0,0.0107
3754.0,0.0108
3753.0,0.0108
3752.0,0.0109
3751.0,0.011
3750.0,0.011
3749.0,0.0109
3748.0,0.0109
3747.0,0.0109
3746.0,0.0108
3745.0,0.0107
3744.0,0.0106
3743.0,0.0106
3742.0,0.0106
3741.0,0.0106
3740.0,0.0106
3739.0,0.0108
3738.0,0.0112
3737.0,0.0114
3736.0,0.0114
3735.0,0.0112
3734.0,0.0109
3733.0,0.0107
3732.0,0.0106
3731.0,0.0106
3730.0,0.0106
3729.0,0.0106
3728.0,0.0106
3727.0,0.0106
3726.0,0.0107
3725.0,0.0108
3724.0,0.011
3723.0,0.011
3722.0,0.0109
3721.0,0.0109
3720.0,0.0108
3719.0,0.0108
3718.0,0.0108
3717.0,0.0108
3716.0,0.0108
3715.0,0.0108
3714.0,0.0109
3713.0,0.0109
3712.0,0.011
3711.0,0.0111
3710.0,0.011
3709.0,0.0109
3708.0,0.0108
3707.0,0.0107
3706.0,0.0106
3705.0,0.0106
3704.0,0.0107
3703.0,0.0107
3702.0,0.0107
3701.0,0.0106
3700.0,0.0106
3699.0,0.0105
3698.0,0.0105
3697.0,0.0105
3696.0,0.0106
3695.0,0.0107
3694.0,0.0107
3693.0,0.0108
3692.0,0.0108
3691.0,0.0108
3690.0,0.0108
3689.0,0.0108
3688.0,0.0108
3687.0,0.0108
3686.0,0.0108
3685.0,0.0107
3684.0,0.0107
3683.0,0.0107
3682.0,0.0108
3681.0,0.0109
3680.0,0.0109
3679.0,0.011
3678.0,0.0112
3677.0,0.0114
3676.0,0.0116
3675.0,0.0117
3674.0,0.0117
3673.0,0.0116
3672.0,0.0114
3671.0,0.0113
3670.0,0.0113
3669.0,0.0113
3668.0,0.0112
3667.0,0.0111
3666.0,0.011
3665.0,0.011
3664.0,0.011
3663.0,0.011
3662.0,0.011
3661.0,0.011
3660.0,0.0109
3659.0,0.0109
3658.0,0.0109
3657.0,0.0109
3656.0,0.0109
3655.0,0.011
3654.0,0.0112
3653.0,0.0114
3652.0,0.0114
3651.0,0.0115
3650.0,0.0118
3649.0,0.012
3648.0,0.012
3647.0,0.0118
3646.0,0.0116
3645.0,0.0115
3644.0,0.0113
3643.0,0.0113
3642.0,0.0113
3641.0,0.0114
3640.0,0.0114
3639.0,0.0115
3638.0,0.0115
3637.0,0.0115
3636.0,0.0115
3635.0,0.0115
3634.0,0.0114
3633.0,0.0113
3632.0,0.0112
3631.0,0.0112
3630.0,0.0112
3629.0,0.0113
3628.0,0.0115
3627.0,0.0116
3626.0,0.0116
3625.0,0.0117
3624.0,0.0117
3623.0,0.0118
3622.0,0.0118
3621.0,0.0118
3620.0,0.0118
3619.0,0.0118
3618.0,0.0119
3617.0,0.012
3616.0,0.0121
3615.0,0.0121
3614.0,0.0122
3613.0,0.0122
3612.0,0.0122
3611.0,0.0122
3610.0,0.0124
3609.0,0.0125
3608.0,0.0126
3607.0,0.0127
3606.0,0.0127
3605.0,0.0127
3604.0,0.0127
3603.0,0.0126
3602.0,0.0125
3601.0,0.0125
3600.0,0.0125
3599.0,0.0126
3598.0,0.0126
3597.0,0.0126
3596.0,0.0126
3595.0,0.0125
3594.0,0.0125
3593.0,0.0126
3592.0,0.0126
3591.0,0.0127
3590.0,0.0128
3589.0,0.0128
3588.0,0.0128
3587.0,0.0126
3586.0,0.0125
3585.0,0.0123
3584.0,0.0122
3583.0,0.0121
3582.0,0.0122
3581.0,0.0123
3580.0,0.0124
3579.0,0.0125
3578.0,0.0125
3577.0,0.0125
3576.0,0.0126
3575.0,0.0126
3574.0,0.0126
3573.0,0.0125
3572.0,0.0126
3571.0,0.0126
3570.0,0.0127
3569.0,0.0128
3568.0,0.013
3567.0,0.0133
3566.0,0.0135
3565.0,0.0134
3564.0,0.0131
3563.0,0.0129
3562.0,0.0127
3561.0,0.0126
3560.0,0.0126
3559.0,0.0127
3558.0,0.0127
3557.0,0.0127
3556.0,0.0127
3555.0,0.0127
3554.0,0.0127
3553.0,0.0127
3552.0,0.0127
3551.0,0.0127
3550.0,0.0127
3549.0,0.0128
3548.0,0.0129
3547.0,0.013
3546.0,0.013
3545.0,0.013
3544.0,0.0129
3543.0,0.0129
3542.0,0.0129
3541.0,0.0128
3540.0,0.0128
3539.0,0.0128
3538.0,0.0129
3537.0,0.0131
3536.0,0.0132
3535.0,0.0133
3534.0,0.0134
3533.0,0.0134
3532.0,0.0132
3531.0,0.0131
3530.0,0.013
3529.0,0.0129
3528.0,0.013
3527.0,0.0131
3526.0,0.0132
3525.0,0.0133
3524.0,0.0133
3523.0,0.0134
3522.0,0.0133
3521.0,0.0132
3520.0,0.0131
3519.0,0.0132
3518.0,0.0132
3517.0,0.0132
3516.0,0.0132
3515.0,0.0132
3514.0,0.0131
3513.0,0.013
3512.0,0.013
3511.0,0.0131
3510.0,0.0131
3509.0,0.0132
3508.0,0.0133
3507.0,0.0133
3506.0,0.0134
3505.0,0.0134
3504.0,0.0134
3503.0,0.0133
3502.0,0.0133
3501.0,0.0133
3500.0,0.0133
3499.0,0.0133
3498.0,0.0132
3497.0,0.0132
3496.0,0.0133
3495.0,0.0135
3494.0,0.0136
3493.0,0.0137
3492.0,0.0137
3491.0,0.0137
3490.0,0.0137
3489.0,0.0136
3488.0,0.0136
3487.0,0.0136
3486.0,0.0136
3485.0,0.0136
3484.0,0.0136
3483.0,0.0136
3482.0,0.0136
3481.0,0.0135
3480.0,0.0135
3479.0,0.0135
3478.0,0.0136
3477.0,0.0136
3476.0,0.0136
3475.0,0.0136
3474.0,0.0137
3473.0,0.0137
3472.0,0.0137
3471.0,0.0137
3470.0,0.0136
3469.0,0.0136
3468.0,0.0138
3467.0,0.0139
3466.0,0.014
3465.0,0.014
3464.0,0.014
3463.0,0.0139
3462.0,0.0138
3461.0,0.0138
3460.0,0.0139
3459.0,0.0139
3458.0,0.014
3457.0,0.0141
3456.0,0.014
3455.0,0.014
3454.0,0.0139
3453.0,0.0138
3452.0,0.0137
3451.0,0.0137
3450.0,0.0136
3449.0,0.0135
3448.0,0.0135
3447.0,0.0136
3446.0,0.0137
3445.0,0.0139
3444.0,0.0141
3443.0,0.0141
3442.0,0.014
3441.0,0.0139
3440.0,0.0138
3439.0,0.0137
3438.0,0.0138
3437.0,0.0138
3436.0,0.0138
3435.0,0.0139
3434.0,0.0139
3433.0,0.014
3432.0,0.0141
3431.0,0.0141
3430.0,0.0141
3429.0,0.014
3428.0,0.0139
3427.0,0.0138
3426.0,0.0138
3425.0,0.0138
3424.0,0.0138
3423.0,0.0139
3422.0,0.0139
3421.0,0.0139
3420.0,0.014
3419.0,0.0142
3418.0,0.0143
3417.0,0.0143
3416.0,0.0143
3415.0,0.0142
3414.0,0.0141
3413.0,0.0141
3412.0,0.014
3411.0,0.0139
3410.0,0.0138
3409.0,0.0138
3408.0,0.0137
3407.0,0.0138
3406.0,0.014
3405.0,0.014
3404.0,0.014
3403.0,0.0139
3402.0,0.0139
3401.0,0.0139
3400.0,0.0139
3399.0,0.014
3398.0,0.014
3397.0,0.0139
3396.0,0.0138
3395.0,0.0136
3394.0,0.0136
3393.0,0.0136
3392.0,0.0137
3391.0,0.0138
3390.0,0.0139
3389.0,0.0139
3388.0,0.014
3387.0,0.014
3386.0,0.0141
3385.0,0.0141
3384.0,0.0141
3383.0,0.0141
3382.0,0.014
3381.0,0.0139
3380.0,0.0139
3379.0,0.0139
3378.0,0.0138
3377.0,0.0138
3376.0,0.0138
3375.0,0.0139
3374.0,0.014
3373.0,0.014
3372.0,0.014
3371.0,0.014
3370.0,0.014
3369.0,0.014
3368.0,0.014
3367.0,0.0139
3366.0,0.0138
3365.0,0.0138
3364.0,0.0137
3363.0,0.0136
3362.0,0.0135
3361.0,0.0136
3360.0,0.0136
3359.0,0.0137
3358.0,0.0138
3357.0,0.0138
3356.0,0.0138
3355.0,0.0138
3354.0,0.0138
3353.0,0.0138
3352.0,0.0137
3351.0,0.0136
3350.0,0.0136
3349.0,0.0136
3348.0,0.0137
3347.0,0.0137
3346.0,0.0138
3345.0,0.0137
3344.0,0.0137
3343.0,0.0136
3342.0,0.0136
3341.0,0.0135
3340.0,0.0135
3339.0,0.0134
3338.0,0.0133
3337.0,0.0132
3336.0,0.0132
3335.0,0.0132
3334.0,0.0132
3333.0,0.0132
3332.0,0.0132
3331.0,0.0132
3330.0,0.0132
3329.0,0.0131
3328.0,0.013
3327.0,0.0129
3326.0,0.013
3325.0,0.0131
3324.0,0.0131
3323.0,0.0131
3322.0,0.0131
3321.0,0.013
3320.0,0.013
3319.0,0.013
3318.0,0.0129
3317.0,0.013
3316.0,0.013
3315.0,0.0131
3314.0,0.0131
3313.0,0.0131
3312.0,0.013
3311.0,0.013
3310.0,0.013
3309.0,0.013
3308.0,0.0129
3307.0,0.0128
3306.0,0.0128
3305.0,0.0127
3304.0,0.0127
3303.0,0.0127
3302.0,0.0128
3301.0,0.0128
3300.0,0.0128
3299.0,0.0128
3298.0,0.0128
3297.0,0.0128
3296.0,0.0127
3295.0,0.0127
3294.0,0.0127
3293.0,0.0127
3292.0,0.0127
3291.0,0.0126
3290.0,0.0126
3289.0,0.0126
3288.0,0.0127
3287.0,0.0127
3286.0,0.0128
3285.0,0.0128
3284.0,0.0127
3283.0,0.0126
3282.0,0.0125
3281.0,0.0124
3280.0,0.0123
3279.0,0.0122
3278.0,0.0122
3277.0,0.0123
3276.0,0.0123
3275.0,0.0124
3274.0,0.0123
3273.0,0.0123
3272.0,0.0122
3271.0,0.0121
3270.0,0.0121
3269.0,0.0121
3268.0,0.012
3267.0,0.012
3266.0,0.012
3265.0,0.012
3264.0,0.0121
3263.0,0.0122
3262.0,0.0122
3261.0,0.0121
3260.0,0.012
3259.0,0.0119
3258.0,0.0119
3257.0,0.0119
3256.0,0.012
3255.0,0.012
3254.0,0.012
3253.0,0.0119
3252.0,0.0118
3251.0,0.0117
3250.0,0.0116
3249.0,0.0116
3248.0,0.0116
3247.0,0.0117
3246.0,0.0117
3245.0,0.0116
3244.0,0.0116
3243.0,0.0116
3242.0,0.0117
3241.0,0.0118
3240.0,0.0119
3239.0,0.0118
3238.0,0.0118
3237.0,0.0116
3236.0,0.0115
3235.0,0.0115
3234.0,0.0115
3233.0,0.0115
3232.0,0.0115
3231.0,0.0115
3230.0,0.0115
3229.0,0.0115
3228.0,0.0115
3227.0,0.0115
3226.0,0.0115
3225.0,0.0114
3224.0,0.0113
3223.0,0.0112
3222.0,0.0111
3221.0,0.0111
3220.0,0.0111
3219.0,0.0111
3218.0,0.0112
3217.0,0.0113
3216.0,0.0113
3215.0,0.0112
3214.0,0.0111
3213.0,0.011
3212.0,0.0109
3211.0,0.0109
3210.0,0.0109
3209.0,0.0108
3208.0,0.0108
3207.0,0.0108
3206.0,0.0108
3205.0,0.0108
3204.0,0.0107
3203.0,0.0107
3202.0,0.0107
3201.0,0.0107
3200.0,0.0107
3199.0,0.0108
3198.0,0.0108
3197.0,0.0108
3196.0,0.0108
3195.0,0.0108
3194.0,0.0108
3193.0,0.0107
3192.0,0.0106
3191.0,0.0105
3190.0,0.0105
3189.0,0.0104
3188.0,0.0103
3187.0,0.0103
3186.0,0.0103
3185.0,0.0103
3184.0,0.0103
3183.0,0.0102
3182.0,0.0102
3181.0,0.0102
3180.0,0.0102
3179.0,0.0103
3178.0,0.0103
3177.0,0.0103
3176.0,0.0102
3175.0,0.0101
3174.0,0.0101
3173.0,0.01
3172.0,0.0099
3171.0,0.0099
3170.0,0.0099
3169.0,0.0099
3168.0,0.0098
3167.0,0.0097
3166.0,0.0096
3165.0,0.0096
3164.0,0.0097
3163.0,0.0096
3162.0,0.0096
3161.0,0.0096
3160.0,0.0095
3159.0,0.0094
3158.0,0.0093
3157.0,0.0093
3156.0,0.0093
3155.0,0.0093
3154.0,0.0093
3153.0,0.0093
3152.0,0.0094
3151.0,0.0094
3150.0,0.0094
3149.0,0.0094
3148.0,0.0094
3147.0,0.0094
3146.0,0.0093
3145.0,0.0093
3144.0,0.0092
3143.0,0.0092
3142.0,0.0091
3141.0,0.009
3140.0,0.0089
3139.0,0.0089
3138.0,0.009
3137.0,0.009
3136.0,0.009
3135.0,0.0089
3134.0,0.0088
3133.0,0.0088
3132.0,0.0087
3131.0,0.0087
3130.0,0.0087
3129.0,0.0086
3128.0,0.0086
3127.0,0.0085
3126.0,0.0085
3125.0,0.0085
3124.0,0.0085
3123.0,0.0085
3122.0,0.0085
3121.0,0.0084
3120.0,0.0084
3119.0,0.0083
3118.0,0.0083
3117.0,0.0082
3116.0,0.0081
3115.0,0.0081
3114.0,0.008
3113.0,0.0079
3112.0,0.0078
3111.0,0.0078
3110.0,0.0078
3109.0,0.0079
3108.0,0.0079
3107.0,0.0079
3106.0,0.0079
3105.0,0.0078
3104.0,0.0078
3103.0,0.0078
3102.0,0.0078
3101.0,0.0079
3100.0,0.008
3099.0,0.008
3098.0,0.008
3097.0,0.008
3096.0,0.008
3095.0,0.0081
3094.0,0.0081
3093.0,0.0082
3092.0,0.0082
3091.0,0.0081
3090.0,0.008
3089.0,0.0078
3088.0,0.0077
3087.0,0.0076
3086.0,0.0076
3085.0,0.0075
3084.0,0.0075
3083.0,0.0075
3082.0,0.0075
3081.0,0.0076
3080.0,0.0076
3079.0,0.0076
3078.0,0.0076
3077.0,0.0076
3076.0,0.0076
3075.0,0.0075
3074.0,0.0073
3073.0,0.0073
3072.0,0.0072
3071.0,0.0071
3070.0,0.0071
3069.0,0.007
3068.0,0.007
3067.0,0.007
3066.0,0.0069
3065.0,0.0068
3064.0,0.0067
3063.0,0.0067
3062.0,0.0067
3061.0,0.0067
3060.0,0.0068
3059.0,0.0069
3058.0,0.0069
3057.0,0.0068
3056.0,0.0068
3055.0,0.0067
3054.0,0.0066
3053.0,0.0065
3052.0,0.0064
3051.0,0.0063
3050.0,0.0063
3049.0,0.0064
3048.0,0.0064
3047.0,0.0064
3046.0,0.0064
3045.0,0.0064
3044.0,0.0062
3043.0,0.0061
3042.0,0.006
3041.0,0.0059
3040.0,0.006
3039.0,0.0061
3038.0,0.0061
3037.0,0.0061
3036.0,0.0061
3035.0,0.006
3034.0,0.006
3033.0,0.006
3032.0,0.0059
3031.0,0.0058
3030.0,0.0058
3029.0,0.0056
3028.0,0.0055
3027.0,0.0054
3026.0,0.0053
3025.0,0.0052
3024.0,0.0052
3023.0,0.0051
3022.0,0.0051
3021.0,0.005
3020.0,0.005
3019.0,0.0049
3018.0,0.0048
3017.0,0.0047
3016.0,0.0046
3015.0,0.0045
3014.0,0.0044
3013.0,0.0044
3012.0,0.0044
3011.0,0.0043
3010.0,0.0042
3009.0,0.0041
3008.0,0.004
3007.0,0.004
3006.0,0.0039
3005.0,0.0038
3004.0,0.0037
3003.0,0.0035
3002.0,0.0034
3001.0,0.0033
3000.0,0.0032
2999.0,0.0032
2998.0,0.0032
2997.0,0.0032
2996.0,0.0032
2995.0,0.0032
2994.0,0.0032
2993.0,0.0033
2992.0,0.0032
2991.0,0.0031
2990.0,0.003
2989.0,0.0029
2988.0,0.0028
2987.0,0.0029
2986.0,0.003
2985.0,0.0031
2984.0,0.0032
2983.0,0.0032
2982.0,0.0034
2981.0,0.0036
2980.0,0.0038
2979.0,0.0041
2978.0,0.0043
2977.0,0.0046
2976.0,0.0051
2975.0,0.0055
2974.0,0.006
2973.0,0.0066
2972.0,0.0072
2971.0,0.0078
2970.0,0.0086
2969.0,0.0094
2968.0,0.0103
2967.0,0.0112
2966.0,0.0122
2965.0,0.0132
2964.0,0.0142
2963.0,0.0151
2962.0,0.0159
2961.0,0.0167
2960.0,0.0174
2959.0,0.0181
2958.0,0.0186
2957.0,0.0191
2956.0,0.0195
2955.0,0.0198
2954.0,0.02
2953.0,0.0202
2952.0,0.0203
2951.0,0.0206
2950.0,0.0211
2949.0,0.0219
2948.0,0.0229
2947.0,0.0243
2946.0,0.026
2945.0,0.0281
2944.0,0.0306
2943.0,0.0335
2942.0,0.0367
2941.0,0.0402
2940.0,0.0442
2939.0,0.0485
2938.0,0.0532
2937.0,0.0583
2936.0,0.0638
2935.0,0.0697
2934.0,0.076
2933.0,0.0828
2932.0,0.09
2931.0,0.0977
2930.0,0.1061
2929.0,0.1152
2928.0,0.1252
2927.0,0.1359
2926.0,0.1476
2925.0,0.1605
2924.0,0.1748
2923.0,0.1904
2922.0,0.2073
2921.0,0.2253
2920.0,0.2438
2919.0,0.2615
2918.0,0.2765
2917.0,0.2865
2916.0,0.2897
2915.0,0.2854
2914.0,0.2749
2913.0,0.2605
2912.0,0.2447
2911.0,0.2292
2910.0,0.2151
2909.0,0.2027
2908.0,0.1921
2907.0,0.183
2906.0,0.1753
2905.0,0.1686
2904.0,0.1628
2903.0,0.1577
2902.0,0.1533
2901.0,0.1493
2900.0,0.1456
2899.0,0.1421
2898.0,0.1387
2897.0,0.1355
2896.0,0.1322
2895.0,0.1289
2894.0,0.1255
2893.0,0.1221
2892.0,0.1188
2891.0,0.1154
2890.0,0.112
2889.0,0.1085
2888.0,0.1051
2887.0,0.1016
2886.0,0.0982
2885.0,0.0948
2884.0,0.0914
2883.0,0.0881
2882.0,0.085
2881.0,0.082
2880.0,0.0791
2879.0,0.0763
2878.0,0.0736
2877.0,0.0712
2876.0,0.069
2875.0,0.0672
2874.0,0.0657
2873.0,0.0643
2872.0,0.0631
2871.0,0.0621
2870.0,0.0612
2869.0,0.0605
2868.0,0.0602
2867.0,0.0603
2866.0,0.0609
2865.0,0.0622
2864.0,0.0642
2863.0,0.0669
2862.0,0.0706
2861.0,0.0754
2860.0,0.0814
2859.0,0.0888
2858.0,0.0979
2857.0,0.1089
2856.0,0.1221
2855.0,0.138
2854.0,0.1567
2853.0,0.1784
2852.0,0.2023
2851.0,0.2261
2850.0,0.246
2849.0,0.2573
2848.0,0.2572
2847.0,0.2462
2846.0,0.2279
2845.0,0.2068
2844.0,0.1861
2843.0,0.1673
2842.0,0.1509
2841.0,0.137
2840.0,0.1253
2839.0,0.1155
2838.0,0.1072
2837.0,0.1002
2836.0,0.0941
2835.0,0.0889
2834.0,0.0844
2833.0,0.0806
2832.0,0.0771
2831.0,0.0741
2830.0,0.0713
2829.0,0.0688
2828.0,0.0666
2827.0,0.0646
2826.0,0.0628
2825.0,0.0611
2824.0,0.0596
2823.0,0.0582
2822.0,0.057
2821.0,0.0558
2820.0,0.0547
2819.0,0.0536
2818.0,0.0526
2817.0,0.0516
2816.0,0.0506
2815.0,0.0498
2814.0,0.0489
2813.0,0.0481
2812.0,0.0474
2811.0,0.0467
2810.0,0.046
2809.0,0.0454
2808.0,0.0448
2807.0,0.0442
2806.0,0.0436
2805.0,0.043
2804.0,0.0424
2803.0,0.042
2802.0,0.0415
2801.0,0.041
2800.0,0.0405
2799.0,0.0401
2798.0,0.0397
2797.0,0.0393
2796.0,0.0389
2795.0,0.0385
2794.0,0.038
2793.0,0.0376
2792.0,0.0372
2791.0,0.0368
2790.0,0.0365
2789.0,0.0362
2788.0,0.0359
2787.0,0.0356
2786.0,0.0353
2785.0,0.035
2784.0,0.0346
2783.0,0.0343
2782.0,0.034
2781.0,0.0337
2780.0,0.0334
2779.0,0.0331
2778.0,0.0329
2777.0,0.0326
2776.0,0.0324
2775.0,0.0322
2774.0,0.032
2773.0,0.0318
2772.0,0.0316
2771.0,0.0314
2770.0,0.0311
2769.0,0.0309
2768.0,0.0307
2767.0,0.0305
2766.0,0.0303
2765.0,0.0301
2764.0,0.03
2763.0,0.0298
2762.0,0.0297
2761.0,0.0296
2760.0,0.0295
2759.0,0.0293
2758.0,0.0292
2757.0,0.0289
2756.0,0.0287
2755.0,0.0286
2754.0,0.0285
2753.0,0.0284
2752.0,0.0284
2751.0,0.0283
2750.0,0.0282
2749.0,0.0281
2748.0,0.0281
2747.0,0.028
2746.0,0.028
2745.0,0.0279
2744.0,0.0278
2743.0,0.0277
2742.0,0.0276
2741.0,0.0275
2740.0,0.0273
2739.0,0.0272
2738.0,0.0271
2737.0,0.027
2736.0,0.0269
2735.0,0.0269
2734.0,0.0268
2733.0,0.0267
2732.0,0.0266
2731.0,0.0265
2730.0,0.0265
2729.0,0.0264
2728.0,0.0264
2727.0,0.0263
2726.0,0.0262
2725.0,0.0261
2724.0,0.026
2723.0,0.0258
2722.0,0.0257
2721.0,0.0255
2720.0,0.0254
2719.0,0.0254
2718.0,0.0253
2717.0,0.0253
2716.0,0.0253
2715.0,0.0252
2714.0,0.0251
2713.0,0.025
2712.0,0.0249
2711.0,0.0249
2710.0,0.0248
2709.0,0.0248
2708.0,0.0248
2707.0,0.0247
2706.0,0.0247
2705.0,0.0246
2704.0,0.0245
2703.0,0.0244
2702.0,0.0244
2701.0,0.0244
2700.0,0.0243
2699.0,0.0242
2698.0,0.0241
2697.0,0.024
2696.0,0.024
2695.0,0.0239
2694.0,0.0239
2693.0,0.0238
2692.0,0.0237
2691.0,0.0237
2690.0,0.0237
2689.0,0.0237
2688.0,0.0237
2687.0,0.0237
2686.0,0.0237
2685.0,0.0237
2684.0,0.0237
2683.0,0.0237
2682.0,0.0237
2681.0,0.0236
2680.0,0.0236
2679.0,0.0235
2678.0,0.0234
2677.0,0.0233
2676.0,0.0233
2675.0,0.0234
2674.0,0.0234
2673.0,0.0236
2672.0,0.0237
2671.0,0.0237
2670.0,0.0237
2669.0,0.0237
2668.0,0.0236
2667.0,0.0235
2666.0,0.0235
2665.0,0.0234
2664.0,0.0234
2663.0,0.0233
2662.0,0.0233
2661.0,0.0233
2660.0,0.0232
2659.0,0.0231
2658.0,0.023
2657.0,0.0229
2656.0,0.0229
2655.0,0.023
2654.0,0.0231
2653.0,0.0231
2652.0,0.023
2651.0,0.023
2650.0,0.023
2649.0,0.023
2648.0,0.023
2647.0,0.0229
2646.0,0.0229
2645.0,0.0229
2644.0,0.023
2643.0,0.023
2642.0,0.023
2641.0,0.0229
2640.0,0.0228
2639.0,0.0228
2638.0,0.0228
2637.0,0.0228
2636.0,0.0227
2635.0,0.0226
2634.0,0.0225
2633.0,0.0225
2632.0,0.0224
2631.0,0.0223
2630.0,0.0222
2629.0,0.0222
2628.0,0.0222
2627.0,0.0221
2626.0,0.0221
2625.0,0.0221
2624.0,0.022
2623.0,0.022
2622.0,0.0219
2621.0,0.0219
2620.0,0.0218
2619.0,0.0218
2618.0,0.0217
2617.0,0.0216
2616.0,0.0216
2615.0,0.0216
2614.0,0.0215
2613.0,0.0214
2612.0,0.0213
2611.0,0.0212
2610.0,0.0211
2609.0,0.0211
2608.0,0.021
2607.0,0.021
2606.0,0.0209
2605.0,0.0209
2604.0,0.0209
2603.0,0.0209
2602.0,0.0208
2601.0,0.0206
2600.0,0.0206
2599.0,0.0205
2598.0,0.0205
2597.0,0.0204
2596.0,0.0204
2595.0,0.0203
2594.0,0.0203
2593.0,0.0203
2592.0,0.0203
2591.0,0.0202
2590.0,0.0201
2589.0,0.0201
2588.0,0.0201
2587.0,0.0201
2586.0,0.0201
2585.0,0.02
2584.0,0.02
2583.0,0.0199
2582.0,0.0198
2581.0,0.0198
2580.0,0.0196
2579.0,0.0195
2578.0,0.0194
2577.0,0.0194
2576.0,0.0194
2575.0,0.0194
2574.0,0.0194
2573.0,0.0194
2572.0,0.0194
2571.0,0.0193
2570.0,0.0192
2569.0,0.0192
2568.0,0.0192
2567.0,0.0192
2566.0,0.0193
2565.0,0.0192
2564.0,0.0192
2563.0,0.0192
2562.0,0.0192
2561.0,0.0192
2560.0,0.0192
2559.0,0.0191
2558.0,0.019
2557.0,0.0189
2556.0,0.0188
2555.0,0.0188
2554.0,0.0188
2553.0,0.0188
2552.0,0.0187
2551.0,0.0187
2550.0,0.0186
2549.0,0.0186
2548.0,0.0186
2547.0,0.0186
2546.0,0.0186
2545.0,0.0186
2544.0,0.0186
2543.0,0.0185
2542.0,0.0185
2541.0,0.0184
2540.0,0.0183
2539.0,0.0182
2538.0,0.0182
2537.0,0.0183
2536.0,0.0183
2535.0,0.0182
2534.0,0.0182
2533.0,0.0181
2532.0,0.0182
2531.0,0.0182
2530.0,0.0182
2529.0,0.0181
2528.0,0.0181
2527.0,0.0181
2526.0,0.0181
2525.0,0.0181
2524.0,0.0181
2523.0,0.0181
2522.0,0.018
2521.0,0.018
2520.0,0.0179
2519.0,0.0178
2518.0,0.0177
2517.0,0.0176
2516.0,0.0176
2515.0,0.0175
2514.0,0.0175
2513.0,0.0175
2512.0,0.0176
2511.0,0.0177
2510.0,0.0177
2509.0,0.0177
2508.0,0.0176
2507.0,0.0175
2506.0,0.0174
2505.0,0.0174
2504.0,0.0174
2503.0,0.0175
2502.0,0.0175
2501.0,0.0174
2500.0,0.0174
2499.0,0.0174
2498.0,0.0174
2497.0,0.0173
2496.0,0.0173
2495.0,0.0173
2494.0,0.0173
2493.0,0.0174
2492.0,0.0174
2491.0,0.0174
2490.0,0.0173
2489.0,0.0173
2488.0,0.0172
2487.0,0.0172
2486.0,0.0173
2485.0,0.0173
2484.0,0.0173
2483.0,0.0173
2482.0,0.0172
2481.0,0.0171
2480.0,0.0171
2479.0,0.0171
2478.0,0.0172
2477.0,0.0173
2476.0,0.0173
2475.0,0.0173
2474.0,0.0172
2473.0,0.0172
2472.0,0.0172
2471.0,0.0171
2470.0,0.0171
2469.0,0.0171
2468.0,0.0171
2467.0,0.0171
2466.0,0.017
2465.0,0.0169
2464.0,0.0168
2463.0,0.0168
2462.0,0.0168
2461.0,0.0168
2460.0,0.0168
2459.0,0.0168
2458.0,0.0168
2457.0,0.0168
2456.0,0.0168
2455.0,0.0167
2454.0,0.0167
2453.0,0.0166
2452.0,0.0166
2451.0,0.0166
2450.0,0.0167
2449.0,0.0167
2448.0,0.0167
2447.0,0.0166
2446.0,0.0165
2445.0,0.0164
2444.0,0.0164
2443.0,0.0163
2442.0,0.0164
2441.0,0.0165
2440.0,0.0165
2439.0,0.0166
2438.0,0.0166
2437.0,0.0167
2436.0,0.0166
2435.0,0.0166
2434.0,0.0166
2433.0,0.0165
2432.0,0.0165
2431.0,0.0165
2430.0,0.0165
2429.0,0.0165
2428.0,0.0165
2427.0,0.0165
2426.0,0.0165
2425.0,0.0165
2424.0,0.0165
2423.0,0.0165
2422.0,0.0165
2421.0,0.0165
2420.0,0.0165
2419.0,0.0166
2418.0,0.0166
2417.0,0.0166
2416.0,0.0165
2415.0,0.0164
2414.0,0.0163
2413.0,0.0163
2412.0,0.0163
2411.0,0.0164
2410.0,0.0164
2409.0,0.0164
2408.0,0.0164
2407.0,0.0163
2406.0,0.0163
2405.0,0.0163
2404.0,0.0164
2403.0,0.0164
2402.0,0.0163
2401.0,0.0162
2400.0,0.0162
2399.0,0.0161
2398.0,0.0161
2397.0,0.0161
2396.0,0.0162
2395.0,0.0162
2394.0,0.0162
2393.0,0.0162
2392.0,0.0162
2391.0,0.0162
2390.0,0.0162
2389.0,0.0162
2388.0,0.0162
2387.0,0.0162
2386.0,0.0162
2385.0,0.0161
2384.0,0.0159
2383.0,0.0157
2382.0,0.0156
2381.0,0.0155
2380.0,0.0155
2379.0,0.0156
2378.0,0.0157
2377.0,0.0157
2376.0,0.0156
2375.0,0.0155
2374.0,0.0154
2373.0,0.0152
2372.0,0.0149
2371.0,0.0146
2370.0,0.0148
2369.0,0.0154
2368.0,0.016
2367.0,0.0162
2366.0,0.0157
2365.0,0.0153
2364.0,0.0152
2363.0,0.0153
2362.0,0.0151
2361.0,0.0146
2360.0,0.0144
2359.0,0.0147
2358.0,0.0154
2357.0,0.0156
2356.0,0.0153
2355.0,0.0146
2354.0,0.0142
2353.0,0.0142
2352.0,0.0147
2351.0,0.0152
2350.0,0.0153
2349.0,0.015
2348.0,0.0146
2347.0,0.0145
2346.0,0.0151
2345.0,0.0161
2344.0,0.0167
2343.0,0.0169
2342.0,0.017
2341.0,0.0169
2340.0,0.0167
2339.0,0.0162
2338.0,0.0157
2337.0,0.0153
2336.0,0.0151
2335.0,0.0149
2334.0,0.0148
2333.0,0.0149
2332.0,0.015
2331.0,0.0153
2330.0,0.0156
2329.0,0.0157
2328.0,0.0156
2327.0,0.0157
2326.0,0.016
2325.0,0.0166
2324.0,0.0172
2323.0,0.0176
2322.0,0.0177
2321.0,0.0175
2320.0,0.0171
2319.0,0.0168
2318.0,0.0166
2317.0,0.0165
2316.0,0.0165
2315.0,0.0165
2314.0,0.0165
2313.0,0.0165
2312.0,0.0165
2311.0,0.0164
2310.0,0.0164
2309.0,0.0163
2308.0,0.0163
2307.0,0.0162
2306.0,0.0162
2305.0,0.0162
2304.0,0.0162
2303.0,0.0161
2302.0,0.016
2301.0,0.0159
2300.0,0.0159
2299.0,0.0159
2298.0,0.0159
2297.0,0.016
2296.0,0.016
2295.0,0.0159
2294.0,0.0159
2293.0,0.0158
2292.0,0.0158
2291.0,0.0158
2290.0,0.0158
2289.0,0.0158
2288.0,0.0158
2287.0,0.0158
2286.0,0.0157
2285.0,0.0157
2284.0,0.0157
2283.0,0.0157
2282.0,0.0157
2281.0,0.0157
2280.0,0.0157
2279.0,0.0157
2278.0,0.0156
2277.0,0.0155
2276.0,0.0155
2275.0,0.0155
2274.0,0.0155
2273.0,0.0156
2272.0,0.0156
2271.0,0.0155
2270.0,0.0154
2269.0,0.0155
2268.0,0.0155
2267.0,0.0155
2266.0,0.0155
2265.0,0.0155
2264.0,0.0155
2263.0,0.0154
2262.0,0.0154
2261.0,0.0154
2260.0,0.0154
2259.0,0.0154
2258.0,0.0154
2257.0,0.0154
2256.0,0.0155
2255.0,0.0154
2254.0,0.0154
2253.0,0.0153
2252.0,0.0153
2251.0,0.0154
2250.0,0.0154
2249.0,0.0154
2248.0,0.0153
2247.0,0.0153
2246.0,0.0153
2245.0,0.0153
2244.0,0.0153
2243.0,0.0154
2242.0,0.0153
2241.0,0.0153
2240.0,0.0153
2239.0,0.0153
2238.0,0.0153
2237.0,0.0153
2236.0,0.0152
2235.0,0.0151
2234.0,0.015
2233.0,0.015
2232.0,0.015
2231.0,0.0151
2230.0,0.0152
2229.0,0.0152
2228.0,0.0152
2227.0,0.0151
2226.0,0.0151
2225.0,0.015
2224.0,0.015
2223.0,0.0149
2222.0,0.0149
2221.0,0.0149
2220.0,0.0149
2219.0,0.015
2218.0,0.015
2217.0,0.0151
2216.0,0.0151
2215.0,0.015
2214.0,0.0149
2213.0,0.0149
2212.0,0.0148
2211.0,0.0148
2210.0,0.0148
2209.0,0.0149
2208.0,0.015
2207.0,0.015
2206.0,0.0149
2205.0,0.0149
2204.0,0.0149
2203.0,0.0149
2202.0,0.015
2201.0,0.0151
2200.0,0.0151
2199.0,0.0151
2198.0,0.015
2197.0,0.015
2196.0,0.015
2195.0,0.0149
2194.0,0.0149
2193.0,0.0149
2192.0,0.0148
2191.0,0.0147
2190.0,0.0147
2189.0,0.0147
2188.0,0.0148
2187.0,0.0148
2186.0,0.0148
2185.0,0.0148
2184.0,0.0149
2183.0,0.0149
2182.0,0.0149
2181.0,0.0149
2180.0,0.015
2179.0,0.015
2178.0,0.015
2177.0,0.0149
2176.0,0.0148
2175.0,0.0148
2174.0,0.0148
2173.0,0.0148
2172.0,0.0148
2171.0,0.0148
2170.0,0.0148
2169.0,0.0148
2168.0,0.0149
2167.0,0.0149
2166.0,0.0148
2165.0,0.0148
2164.0,0.0148
2163.0,0.0148
2162.0,0.0149
2161.0,0.0149
2160.0,0.0149
2159.0,0.0149
2158.0,0.0149
2157.0,0.0149
2156.0,0.0149
2155.0,0.0148
2154.0,0.0148
2153.0,0.0148
2152.0,0.0148
2151.0,0.0149
2150.0,0.0149
2149.0,0.0149
2148.0,0.015
2147.0,0.015
2146.0,0.015
2145.0,0.0149
2144.0,0.0149
2143.0,0.0148
2142.0,0.0147
2141.0,0.0147
2140.0,0.0148
2139.0,0.0148
2138.0,0.0149
2137.0,0.0149
2136.0,0.0149
2135.0,0.0148
2134.0,0.0148
2133.0,0.0147
2132.0,0.0147
2131.0,0.0147
2130.0,0.0146
2129.0,0.0146
2128.0,0.0146
2127.0,0.0145
2126.0,0.0145
2125.0,0.0145
2124.0,0.0145
2123.0,0.0146
2122.0,0.0146
2121.0,0.0146
2120.0,0.0146
2119.0,0.0146
2118.0,0.0146
2117.0,0.0146
2116.0,0.0146
2115.0,0.0146
2114.0,0.0146
2113.0,0.0145
2112.0,0.0145
2111.0,0.0145
2110.0,0.0145
2109.0,0.0145
2108.0,0.0145
2107.0,0.0145
2106.0,0.0145
2105.0,0.0145
2104.0,0.0144
2103.0,0.0144
2102.0,0.0145
2101.0,0.0146
2100.0,0.0146
2099.0,0.0146
2098.0,0.0145
2097.0,0.0145
2096.0,0.0144
2095.0,0.0144
2094.0,0.0144
2093.0,0.0144
2092.0,0.0145
2091.0,0.0145
2090.0,0.0145
2089.0,0.0145
2088.0,0.0144
2087.0,0.0144
2086.0,0.0144
2085.0,0.0145
2084.0,0.0145
2083.0,0.0146
2082.0,0.0146
2081.0,0.0146
2080.0,0.0146
2079.0,0.0146
2078.0,0.0146
2077.0,0.0146
2076.0,0.0146
2075.0,0.0146
2074.0,0.0146
2073.0,0.0146
2072.0,0.0145
2071.0,0.0145
2070.0,0.0145
2069.0,0.0145
2068.0,0.0145
2067.0,0.0145
2066.0,0.0145
2065.0,0.0145
2064.0,0.0146
2063.0,0.0147
2062.0,0.0147
2061.0,0.0146
2060.0,0.0146
2059.0,0.0145
2058.0,0.0145
2057.0,0.0145
2056.0,0.0145
2055.0,0.0145
2054.0,0.0146
2053.0,0.0145
2052.0,0.0145
2051.0,0.0145
2050.0,0.0145
2049.0,0.0145
2048.0,0.0146
2047.0,0.0146
2046.0,0.0147
2045.0,0.0147
2044.0,0.0146
2043.0,0.0146
2042.0,0.0146
2041.0,0.0145
2040.0,0.0145
2039.0,0.0145
2038.0,0.0146
2037.0,0.0146
2036.0,0.0147
2035.0,0.0148
2034.0,0.0149
2033.0,0.0149
2032.0,0.0148
2031.0,0.0147
2030.0,0.0146
2029.0,0.0146
2028.0,0.0146
2027.0,0.0147
2026.0,0.0147
2025.0,0.0148
2024.0,0.0148
2023.0,0.0148
2022.0,0.0148
2021.0,0.0149
2020.0,0.0149
2019.0,0.0149
2018.0,0.0149
2017.0,0.0148
2016.0,0.0148
2015.0,0.0148
2014.0,0.0148
2013.0,0.0148
2012.0,0.0148
2011.0,0.0147
2010.0,0.0146
2009.0,0.0146
2008.0,0.0145
2007.0,0.0146
2006.0,0.0146
2005.0,0.0147
2004.0,0.0146
2003.0,0.0145
2002.0,0.0144
2001.0,0.0143
2000.0,0.0143
1999.0,0.0143
1998.0,0.0143
1997.0,0.0144
1996.0,0.0143
1995.0,0.0143
1994.0,0.0144
1993.0,0.0144
1992.0,0.0144
1991.0,0.0144
1990.0,0.0144
1989.0,0.0143
1988.0,0.0142
1987.0,0.0142
1986.0,0.0142
1985.0,0.0142
1984.0,0.0142
1983.0,0.0143
1982.0,0.0143
1981.0,0.0143
1980.0,0.0143
1979.0,0.0143
1978.0,0.0143
1977.0,0.0143
1976.0,0.0143
1975.0,0.0143
1974.0,0.0143
1973.0,0.0144
1972.0,0.0144
1971.0,0.0144
1970.0,0.0145
1969.0,0.0144
1968.0,0.0144
1967.0,0.0144
1966.0,0.0143
1965.0,0.0143
1964.0,0.0142
1963.0,0.0142
1962.0,0.0143
1961.0,0.0143
1960.0,0.0143
1959.0,0.0143
1958.0,0.0143
1957.0,0.0143
1956.0,0.0142
1955.0,0.0143
1954.0,0.0143
1953.0,0.0142
1952.0,0.0142
1951.0,0.0142
1950.0,0.0142
1949.0,0.0142
1948.0,0.0142
1947.0,0.0142
1946.0,0.0143
1945.0,0.0143
1944.0,0.0143
1943.0,0.0144
1942.0,0.0143
1941.0,0.0143
1940.0,0.0143
1939.0,0.0143
1938.0,0.0144
1937.0,0.0144
1936.0,0.0143
1935.0,0.0142
1934.0,0.0142
1933.0,0.0142
1932.0,0.0142
1931.0,0.0143
1930.0,0.0143
1929.0,0.0143
1928.0,0.0144
1927.0,0.0144
1926.0,0.0145
1925.0,0.0145
1924.0,0.0145
1923.0,0.0145
1922.0,0.0144
1921.0,0.0144
1920.0,0.0144
1919.0,0.0144
1918.0,0.0144
1917.0,0.0143
1916.0,0.0143
1915.0,0.0143
1914.0,0.0144
1913.0,0.0144
1912.0,0.0145
1911.0,0.0145
1910.0,0.0145
1909.0,0.0145
1908.0,0.0145
1907.0,0.0145
1906.0,0.0146
1905.0,0.0146
1904.0,0.0146
1903.0,0.0145
1902.0,0.0145
1901.0,0.0145
1900.0,0.0145
1899.0,0.0146
1898.0,0.0146
1897.0,0.0146
1896.0,0.0146
1895.0,0.0145
1894.0,0.0145
1893.0,0.0145
1892.0,0.0145
1891.0,0.0144
1890.0,0.0144
1889.0,0.0143
1888.0,0.0143
1887.0,0.0143
1886.0,0.0143
1885.0,0.0143
1884.0,0.0143
1883.0,0.0143
1882.0,0.0143
1881.0,0.0143
1880.0,0.0143
1879.0,0.0143
1878.0,0.0143
1877.0,0.0143
1876.0,0.0142
1875.0,0.0141
1874.0,0.0141
1873.0,0.0141
1872.0,0.0141
1871.0,0.0142
1870.0,0.0142
1869.0,0.0142
1868.0,0.0142
1867.0,0.0142
1866.0,0.0142
1865.0,0.0142
1864.0,0.0142
1863.0,0.0141
1862.0,0.0141
1861.0,0.0141
1860.0,0.0141
1859.0,0.0141
1858.0,0.0141
1857.0,0.0142
1856.0,0.0142
1855.0,0.0142
1854.0,0.0142
1853.0,0.0141
1852.0,0.0141
1851.0,0.0141
1850.0,0.0141
1849.0,0.0141
1848.0,0.0141
1847.0,0.0141
1846.0,0.0141
1845.0,0.0141
1844.0,0.0141
1843.0,0.0141
1842.0,0.0141
1841.0,0.0141
1840.0,0.0141
1839.0,0.0141
1838.0,0.0141
1837.0,0.0141
1836.0,0.0141
1835.0,0.0141
1834.0,0.0141
1833.0,0.0141
1832.0,0.0142
1831.0,0.0142
1830.0,0.0142
1829.0,0.0141
1828.0,0.0141
1827.0,0.0142
1826.0,0.0142
1825.0,0.0141
1824.0,0.0141
1823.0,0.0141
1822.0,0.0141
1821.0,0.0141
1820.0,0.0141
1819.0,0.0141
1818.0,0.0141
1817.0,0.0142
1816.0,0.0142
1815.0,0.0142
1814.0,0.0143
1813.0,0.0143
1812.0,0.0143
1811.0,0.0143
1810.0,0.0143
1809.0,0.0143
1808.0,0.0143
1807.0,0.0143
1806.0,0.0143
1805.0,0.0142
1804.0,0.0142
1803.0,0.0143
1802.0,0.0143
1801.0,0.0143
1800.0,0.0143
1799.0,0.0143
1798.0,0.0143
1797.0,0.0143
1796.0,0.0143
1795.0,0.0142
1794.0,0.0142
1793.0,0.0141
1792.0,0.0141
1791.0,0.0142
1790.0,0.0143
1789.0,0.0143
1788.0,0.0143
1787.0,0.0143
1786.0,0.0143
1785.0,0.0142
1784.0,0.0142
1783.0,0.0142
1782.0,0.0142
1781.0,0.0142
1780.0,0.0142
1779.0,0.0142
1778.0,0.0142
1777.0,0.0142
1776.0,0.0142
1775.0,0.0142
1774.0,0.0142
1773.0,0.0141
1772.0,0.0142
1771.0,0.0142
1770.0,0.0143
1769.0,0.0143
1768.0,0.0143
1767.0,0.0143
1766.0,0.0143
1765.0,0.0143
1764.0,0.0142
1763.0,0.0142
1762.0,0.0142
1761.0,0.0142
1760.0,0.0142
1759.0,0.0143
1758.0,0.0144
1757.0,0.0145
1756.0,0.0144
1755.0,0.0144
1754.0,0.0144
1753.0,0.0144
1752.0,0.0144
1751.0,0.0145
1750.0,0.0147
1749.0,0.0149
1748.0,0.015
1747.0,0.0151
1746.0,0.0151
1745.0,0.0151
1744.0,0.0151
1743.0,0.0152
1742.0,0.0154
1741.0,0.0154
1740.0,0.0154
1739.0,0.0154
1738.0,0.0153
1737.0,0.0152
1736.0,0.0151
1735.0,0.015
1734.0,0.015
1733.0,0.015
1732.0,0.0151
1731.0,0.0152
1730.0,0.0153
1729.0,0.0153
1728.0,0.0153
1727.0,0.0153
1726.0,0.0153
1725.0,0.0153
1724.0,0.0153
1723.0,0.0153
1722.0,0.0153
1721.0,0.0153
1720.0,0.0153
1719.0,0.0153
1718.0,0.0153
1717.0,0.0153
1716.0,0.0153
1715.0,0.0153
1714.0,0.0153
1713.0,0.0153
1712.0,0.0153
1711.0,0.0153
1710.0,0.0153
1709.0,0.0153
1708.0,0.0153
1707.0,0.0152
1706.0,0.0152
1705.0,0.0152
1704.0,0.0152
1703.0,0.0152
1702.0,0.0152
1701.0,0.0151
1700.0,0.0152
1699.0,0.0153
1698.0,0.0155
1697.0,0.0156
1696.0,0.0155
1695.0,0.0153
1694.0,0.0153
1693.0,0.0154
1692.0,0.0155
1691.0,0.0155
1690.0,0.0156
1689.0,0.0157
1688.0,0.0157
1687.0,0.0158
1686.0,0.0159
1685.0,0.0159
1684.0,0.016
1683.0,0.0161
1682.0,0.0161
1681.0,0.0162
1680.0,0.0162
1679.0,0.0162
1678.0,0.0162
1677.0,0.0162
1676.0,0.0162
1675.0,0.0162
1674.0,0.0162
1673.0,0.0162
1672.0,0.0162
1671.0,0.0163
1670.0,0.0164
1669.0,0.0165
1668.0,0.0165
1667.0,0.0165
1666.0,0.0165
1665.0,0.0166
1664.0,0.0165
1663.0,0.0165
1662.0,0.0166
1661.0,0.0166
1660.0,0.0167
1659.0,0.0167
1658.0,0.0168
1657.0,0.0168
1656.0,0.0169
1655.0,0.0169
1654.0,0.017
1653.0,0.0171
1652.0,0.0169
1651.0,0.0169
1650.0,0.017
1649.0,0.0171
1648.0,0.0171
1647.0,0.0171
1646.0,0.017
1645.0,0.017
1644.0,0.0169
1643.0,0.0169
1642.0,0.0169
1641.0,0.0169
1640.0,0.0168
1639.0,0.0168
1638.0,0.0167
1637.0,0.0168
1636.0,0.0169
1635.0,0.017
1634.0,0.0169
1633.0,0.0168
1632.0,0.0168
1631.0,0.0168
1630.0,0.0167
1629.0,0.0166
1628.0,0.0166
1627.0,0.0165
1626.0,0.0165
1625.0,0.0165
1624.0,0.0165
1623.0,0.0164
1622.0,0.0164
1621.0,0.0163
1620.0,0.0162
1619.0,0.0161
1618.0,0.0161
1617.0,0.0161
1616.0,0.0161
1615.0,0.0161
1614.0,0.0161
1613.0,0.0161
1612.0,0.0161
1611.0,0.0161
1610.0,0.0161
1609.0,0.0161
1608.0,0.0161
1607.0,0.0161
1606.0,0.0161
1605.0,0.0161
1604.0,0.0161
1603.0,0.016
1602.0,0.016
1601.0,0.016
1600.0,0.016
1599.0,0.016
1598.0,0.016
1597.0,0.0159
1596.0,0.0159
1595.0,0.0158
1594.0,0.0159
1593.0,0.0159
1592.0,0.016
1591.0,0.016
1590.0,0.016
1589.0,0.016
1588.0,0.016
1587.0,0.0159
1586.0,0.0159
1585.0,0.0158
1584.0,0.0158
1583.0,0.0157
1582.0,0.0157
1581.0,0.0157
1580.0,0.0156
1579.0,0.0156
1578.0,0.0155
1577.0,0.0155
1576.0,0.0155
1575.0,0.0155
1574.0,0.0155
1573.0,0.0156
1572.0,0.0156
1571.0,0.0156
1570.0,0.0156
1569.0,0.0155
1568.0,0.0155
1567.0,0.0154
1566.0,0.0154
1565.0,0.0154
1564.0,0.0154
1563.0,0.0155
1562.0,0.0156
1561.0,0.0156
1560.0,0.0155
1559.0,0.0155
1558.0,0.0156
1557.0,0.0155
1556.0,0.0156
1555.0,0.0157
1554.0,0.0157
1553.0,0.0157
1552.0,0.0157
1551.0,0.0157
1550.0,0.0157
1549.0,0.0156
1548.0,0.0156
1547.0,0.0156
1546.0,0.0156
1545.0,0.0156
1544.0,0.0156
1543.0,0.0154
1542.0,0.0152
1541.0,0.0154
1540.0,0.0158
1539.0,0.0157
1538.0,0.0154
1537.0,0.0152
1536.0,0.0152
1535.0,0.0152
1534.0,0.0151
1533.0,0.0152
1532.0,0.0152
1531.0,0.0152
1530.0,0.0151
1529.0,0.0151
1528.0,0.0151
1527.0,0.0153
1526.0,0.0153
1525.0,0.0154
1524.0,0.0154
1523.0,0.0155
1522.0,0.0155
1521.0,0.0155
1520.0,0.0154
1519.0,0.0153
1518.0,0.0152
1517.0,0.0152
1516.0,0.0152
1515.0,0.015
1514.0,0.0148
1513.0,0.0148
1512.0,0.0148
1511.0,0.0147
1510.0,0.0147
1509.0,0.0147
1508.0,0.0149
1507.0,0.0149
1506.0,0.0147
1505.0,0.0145
1504.0,0.0145
1503.0,0.0145
1502.0,0.0145
1501.0,0.0145
1500.0,0.0146
1499.0,0.0145
1498.0,0.0144
1497.0,0.0144
1496.0,0.0144
1495.0,0.0142
1494.0,0.0141
1493.0,0.0142
1492.0,0.0143
1491.0,0.0143
1490.0,0.0142
1489.0,0.0143
1488.0,0.0144
1487.0,0.0143
1486.0,0.0141
1485.0,0.0141
1484.0,0.0143
1483.0,0.0144
1482.0,0.0146
1481.0,0.0151
1480.0,0.0159
1479.0,0.0171
1478.0,0.0198
1477.0,0.0254
1476.0,0.0347
1475.0,0.0469
1474.0,0.0614
1473.0,0.0743
1472.0,0.0797
1471.0,0.0791
1470.0,0.078
1469.0,0.078
1468.0,0.0791
1467.0,0.0816
1466.0,0.0872
1465.0,0.0959
1464.0,0.1031
1463.0,0.1048
1462.0,0.1012
1461.0,0.0943
1460.0,0.0856
1459.0,0.0766
1458.0,0.0686
1457.0,0.0627
1456.0,0.059
1455.0,0.0565
1454.0,0.0541
1453.0,0.0515
1452.0,0.0488
1451.0,0.0465
1450.0,0.0447
1449.0,0.0432
1448.0,0.0418
1447.0,0.0407
1446.0,0.0399
1445.0,0.0392
1444.0,0.0384
1443.0,0.0378
1442.0,0.0372
1441.0,0.0365
1440.0,0.0359
1439.0,0.0353
1438.0,0.0346
1437.0,0.0338
1436.0,0.033
1435.0,0.0324
1434.0,0.0319
1433.0,0.0312
1432.0,0.0304
1431.0,0.0296
1430.0,0.0287
1429.0,0.0278
1428.0,0.0269
1427.0,0.0263
1426.0,0.0257
1425.0,0.0251
1424.0,0.0246
1423.0,0.0242
1422.0,0.0239
1421.0,0.0235
1420.0,0.0231
1419.0,0.023
1418.0,0.0229
1417.0,0.0227
1416.0,0.0225
1415.0,0.0223
1414.0,0.0221
1413.0,0.0219
1412.0,0.0217
1411.0,0.0216
1410.0,0.0215
1409.0,0.0213
1408.0,0.0211
1407.0,0.021
1406.0,0.021
1405.0,0.0209
1404.0,0.0209
1403.0,0.0208
1402.0,0.0207
1401.0,0.0206
1400.0,0.0205
1399.0,0.0205
1398.0,0.0205
1397.0,0.0205
1396.0,0.0204
1395.0,0.0204
1394.0,0.0204
1393.0,0.0204
1392.0,0.0204
1391.0,0.0204
1390.0,0.0205
1389.0,0.0205
1388.0,0.0206
1387.0,0.0208
1386.0,0.021
1385.0,0.0213
1384.0,0.0217
1383.0,0.0223
1382.0,0.0231
1381.0,0.0242
1380.0,0.0253
1379.0,0.0262
1378.0,0.0268
1377.0,0.0269
1376.0,0.0266
1375.0,0.0262
1374.0,0.0259
1373.0,0.0258
1372.0,0.0257
1371.0,0.0258
1370.0,0.026
1369.0,0.0261
1368.0,0.0261
1367.0,0.026
1366.0,0.0259
1365.0,0.0257
1364.0,0.0255
1363.0,0.0252
1362.0,0.0249
1361.0,0.0246
1360.0,0.0244
1359.0,0.0242
1358.0,0.0241
1357.0,0.024
1356.0,0.024
1355.0,0.024
1354.0,0.0241
1353.0,0.0242
1352.0,0.0242
1351.0,0.0242
1350.0,0.0241
1349.0,0.024
1348.0,0.0238
1347.0,0.0236
1346.0,0.0234
1345.0,0.0233
1344.0,0.0231
1343.0,0.023
1342.0,0.0229
1341.0,0.0228
1340.0,0.0228
1339.0,0.0227
1338.0,0.0225
1337.0,0.0223
1336.0,0.0221
1335.0,0.0218
1334.0,0.0216
1333.0,0.0215
1332.0,0.0213
1331.0,0.0212
1330.0,0.0212
1329.0,0.0212
1328.0,0.0212
1327.0,0.0212
1326.0,0.0212
1325.0,0.0212
1324.0,0.0212
1323.0,0.0213
1322.0,0.0213
1321.0,0.0214
1320.0,0.0215
1319.0,0.0216
1318.0,0.0217
1317.0,0.0218
1316.0,0.022
1315.0,0.0222
1314.0,0.0223
1313.0,0.0224
1312.0,0.0226
1311.0,0.0227
1310.0,0.0228
1309.0,0.0229
1308.0,0.0229
1307.0,0.023
1306.0,0.023
1305.0,0.023
1304.0,0.0231
1303.0,0.0231
1302.0,0.0232
1301.0,0.0231
1300.0,0.0231
1299.0,0.023
1298.0,0.023
1297.0,0.0229
1296.0,0.0229
1295.0,0.0229
1294.0,0.0228
1293.0,0.0227
1292.0,0.0226
1291.0,0.0225
1290.0,0.0224
1289.0,0.0223
1288.0,0.0222
1287.0,0.0222
1286.0,0.0221
1285.0,0.0221
1284.0,0.022
1283.0,0.0221
1282.0,0.0221
1281.0,0.022
1280.0,0.022
1279.0,0.022
1278.0,0.0221
1277.0,0.0221
1276.0,0.0222
1275.0,0.0222
1274.0,0.0222
1273.0,0.0222
1272.0,0.0221
1271.0,0.0221
1270.0,0.0221
1269.0,0.0221
1268.0,0.0221
1267.0,0.0221
1266.0,0.0221
1265.0,0.0221
1264.0,0.0221
1263.0,0.0221
1262.0,0.0221
1261.0,0.0221
1260.0,0.022
1259.0,0.022
1258.0,0.0219
1257.0,0.0218
1256.0,0.0218
1255.0,0.0218
1254.0,0.0218
1253.0,0.0217
1252.0,0.0216
1251.0,0.0215
1250.0,0.0214
1249.0,0.0214
1248.0,0.0214
1247.0,0.0214
1246.0,0.0214
1245.0,0.0214
1244.0,0.0213
1243.0,0.0213
1242.0,0.0213
1241.0,0.0213
1240.0,0.0213
1239.0,0.0214
1238.0,0.0214
1237.0,0.0214
1236.0,0.0214
1235.0,0.0214
1234.0,0.0213
1233.0,0.0213
1232.0,0.0213
1231.0,0.0213
1230.0,0.0212
1229.0,0.0212
1228.0,0.0212
1227.0,0.0211
1226.0,0.0211
1225.0,0.0212
1224.0,0.0213
1223.0,0.0213
1222.0,0.0213
1221.0,0.0213
1220.0,0.0212
1219.0,0.0212
1218.0,0.0212
1217.0,0.0212
1216.0,0.0212
1215.0,0.0213
1214.0,0.0213
1213.0,0.0213
1212.0,0.0213
1211.0,0.0212
1210.0,0.0212
1209.0,0.0212
1208.0,0.0212
1207.0,0.0212
1206.0,0.0212
1205.0,0.0212
1204.0,0.0211
1203.0,0.0211
1202.0,0.0211
1201.0,0.0212
1200.0,0.0212
1199.0,0.0214
1198.0,0.0215
1197.0,0.0216
1196.0,0.0217
1195.0,0.0218
1194.0,0.0218
1193.0,0.0217
1192.0,0.0217
1191.0,0.0216
1190.0,0.0215
1189.0,0.0214
1188.0,0.0213
1187.0,0.0214
1186.0,0.0215
1185.0,0.0216
1184.0,0.0218
1183.0,0.0219
1182.0,0.022
1181.0,0.0222
1180.0,0.0223
1179.0,0.0223
1178.0,0.0223
1177.0,0.0222
1176.0,0.0221
1175.0,0.0221
1174.0,0.0221
1173.0,0.0221
1172.0,0.0221
1171.0,0.0221
1170.0,0.0221
1169.0,0.0221
1168.0,0.0221
1167.0,0.0221
1166.0,0.0221
1165.0,0.0222
1164.0,0.0221
1163.0,0.0221
1162.0,0.0221
1161.0,0.0221
1160.0,0.0221
1159.0,0.0222
1158.0,0.0222
1157.0,0.0222
1156.0,0.0223
1155.0,0.0223
1154.0,0.0223
1153.0,0.0222
1152.0,0.0221
1151.0,0.0221
1150.0,0.0221
1149.0,0.0221
1148.0,0.0222
1147.0,0.0222
1146.0,0.0222
1145.0,0.0222
1144.0,0.0223
1143.0,0.0224
1142.0,0.0224
1141.0,0.0224
1140.0,0.0224
1139.0,0.0224
1138.0,0.0223
1137.0,0.0224
1136.0,0.0224
1135.0,0.0225
1134.0,0.0225
1133.0,0.0225
1132.0,0.0225
1131.0,0.0224
1130.0,0.0224
1129.0,0.0224
1128.0,0.0224
1127.0,0.0224
1126.0,0.0224
1125.0,0.0223
1124.0,0.0223
1123.0,0.0223
1122.0,0.0223
1121.0,0.0224
1120.0,0.0224
1119.0,0.0224
1118.0,0.0224
1117.0,0.0224
1116.0,0.0224
1115.0,0.0224
1114.0,0.0224
1113.0,0.0225
1112.0,0.0226
1111.0,0.0227
1110.0,0.0228
1109.0,0.0228
1108.0,0.0228
1107.0,0.0228
1106.0,0.0228
1105.0,0.0228
1104.0,0.0228
1103.0,0.0227
1102.0,0.0227
1101.0,0.0227
1100.0,0.0227
1099.0,0.0227
1098.0,0.0228
1097.0,0.0228
1096.0,0.023
1095.0,0.0231
1094.0,0.0232
1093.0,0.0233
1092.0,0.0233
1091.0,0.0233
1090.0,0.0233
1089.0,0.0233
1088.0,0.0233
1087.0,0.0233
1086.0,0.0233
1085.0,0.0233
1084.0,0.0234
1083.0,0.0234
1082.0,0.0235
1081.0,0.0236
1080.0,0.0237
1079.0,0.0237
1078.0,0.0236
1077.0,0.0236
1076.0,0.0235
1075.0,0.0234
1074.0,0.0233
1073.0,0.0233
1072.0,0.0233
1071.0,0.0233
1070.0,0.0234
1069.0,0.0234
1068.0,0.0234
1067.0,0.0234
1066.0,0.0234
1065.0,0.0234
1064.0,0.0234
1063.0,0.0234
1062.0,0.0234
1061.0,0.0234
1060.0,0.0235
1059.0,0.0234
1058.0,0.0234
1057.0,0.0234
1056.0,0.0234
1055.0,0.0234
1054.0,0.0234
1053.0,0.0234
1052.0,0.0234
1051.0,0.0234
1050.0,0.0234
1049.0,0.0234
1048.0,0.0235
1047.0,0.0235
1046.0,0.0235
1045.0,0.0235
1044.0,0.0235
1043.0,0.0235
1042.0,0.0235
1041.0,0.0235
1040.0,0.0235
1039.0,0.0235
1038.0,0.0235
1037.0,0.0236
1036.0,0.0237
1035.0,0.0238
1034.0,0.0238
1033.0,0.024
1032.0,0.0241
1031.0,0.0241
1030.0,0.0241
1029.0,0.024
1028.0,0.0239
1027.0,0.024
1026.0,0.024
1025.0,0.0241
1024.0,0.0242
1023.0,0.0243
1022.0,0.0244
1021.0,0.0244
1020.0,0.0244
1019.0,0.0243
1018.0,0.0242
1017.0,0.0242
1016.0,0.0242
1015.0,0.0242
1014.0,0.0241
1013.0,0.024
1012.0,0.0239
1011.0,0.0239
1010.0,0.0239
1009.0,0.024
1008.0,0.0241
1007.0,0.0241
1006.0,0.0241
1005.0,0.0241
1004.0,0.0241
1003.0,0.024
1002.0,0.0239
1001.0,0.0238
1000.0,0.0238
999.0,0.0237
998.0,0.0237
997.0,0.0237
996.0,0.0238
995.0,0.0238
994.0,0.0238
993.0,0.0238
992.0,0.0237
991.0,0.0237
990.0,0.0236
989.0,0.0236
988.0,0.0235
987.0,0.0234
986.0,0.0233
985.0,0.0233
984.0,0.0233
983.0,0.0233
982.0,0.0233
981.0,0.0234
980.0,0.0234
979.0,0.0234
978.0,0.0234
977.0,0.0234
976.0,0.0234
975.0,0.0234
974.0,0.0234
973.0,0.0234
972.0,0.0234
971.0,0.0234
970.0,0.0235
969.0,0.0236
968.0,0.0236
967.0,0.0236
966.0,0.0236
965.0,0.0236
964.0,0.0236
963.0,0.0235
962.0,0.0235
961.0,0.0234
960.0,0.0234
959.0,0.0234
958.0,0.0235
957.0,0.0235
956.0,0.0236
955.0,0.0237
954.0,0.0236
953.0,0.0235
952.0,0.0235
951.0,0.0235
950.0,0.0236
949.0,0.0237
948.0,0.0237
947.0,0.0238
946.0,0.0238
945.0,0.0237
944.0,0.0237
943.0,0.0236
942.0,0.0236
941.0,0.0236
940.0,0.0237
939.0,0.0237
938.0,0.0238
937.0,0.0238
936.0,0.0238
935.0,0.0237
934.0,0.0236
933.0,0.0236
932.0,0.0237
931.0,0.0237
930.0,0.0237
929.0,0.0237
928.0,0.0236
927.0,0.0236
926.0,0.0237
925.0,0.0237
924.0,0.0237
923.0,0.0237
922.0,0.0236
921.0,0.0236
920.0,0.0236
919.0,0.0236
918.0,0.0237
917.0,0.0238
916.0,0.0239
915.0,0.024
914.0,0.024
913.0,0.0241
912.0,0.0241
911.0,0.024
910.0,0.024
909.0,0.024
908.0,0.0241
907.0,0.0241
906.0,0.024
905.0,0.024
904.0,0.0239
903.0,0.0241
902.0,0.0242
901.0,0.0243
900.0,0.0243
899.0,0.0243
898.0,0.0242
897.0,0.0243
896.0,0.0244
895.0,0.0245
894.0,0.0246
893.0,0.0247
892.0,0.0247
891.0,0.0247
890.0,0.0247
889.0,0.0248
888.0,0.0249
887.0,0.025
886.0,0.025
885.0,0.025
884.0,0.025
883.0,0.0249
882.0,0.0248
881.0,0.0246
880.0,0.0245
879.0,0.0245
878.0,0.0246
877.0,0.0246
876.0,0.0246
875.0,0.0246
874.0,0.0246
873.0,0.0245
872.0,0.0245
871.0,0.0245
870.0,0.0245
869.0,0.0245
868.0,0.0244
867.0,0.0243
866.0,0.0242
865.0,0.0241
864.0,0.024
863.0,0.024
862.0,0.0241
861.0,0.0242
860.0,0.0243
859.0,0.0243
858.0,0.0243
857.0,0.0243
856.0,0.0243
855.0,0.0243
854.0,0.0243
853.0,0.0244
852.0,0.0244
851.0,0.0244
850.0,0.0244
849.0,0.0244
848.0,0.0244
847.0,0.0245
846.0,0.0245
845.0,0.0245
844.0,0.0245
843.0,0.0243
842.0,0.0242
841.0,0.0241
840.0,0.0241
839.0,0.0242
838.0,0.0243
837.0,0.0243
836.0,0.0244
835.0,0.0244
834.0,0.0244
833.0,0.0243
832.0,0.0242
831.0,0.0242
830.0,0.0242
829.0,0.0242
828.0,0.0242
827.0,0.0242
826.0,0.0242
825.0,0.0242
824.0,0.0243
823.0,0.0243
822.0,0.0244
821.0,0.0245
820.0,0.0247
819.0,0.0248
818.0,0.0249
817.0,0.025
816.0,0.025
815.0,0.025
814.0,0.025
813.0,0.025
812.0,0.0249
811.0,0.0248
810.0,0.0247
809.0,0.0246
808.0,0.0246
807.0,0.0246
806.0,0.0247
805.0,0.0247
804.0,0.0248
803.0,0.0248
802.0,0.0249
801.0,0.0249
800.0,0.025
799.0,0.0251
798.0,0.0251
797.0,0.0251
796.0,0.0251
795.0,0.0253
794.0,0.0254
793.0,0.0255
792.0,0.0254
791.0,0.0253
790.0,0.0253
789.0,0.0253
788.0,0.0254
787.0,0.0254
786.0,0.0255
785.0,0.0255
784.0,0.0255
783.0,0.0254
782.0,0.0252
781.0,0.025
780.0,0.025
779.0,0.0251
778.0,0.0253
777.0,0.0254
776.0,0.0255
775.0,0.0255
774.0,0.0254
773.0,0.0254
772.0,0.0254
771.0,0.0255
770.0,0.0257
769.0,0.0258
768.0,0.0259
767.0,0.0258
766.0,0.0257
765.0,0.0256
764.0,0.0255
763.0,0.0253
762.0,0.0251
761.0,0.0251
760.0,0.0251
759.0,0.0252
758.0,0.0251
757.0,0.025
756.0,0.0251
755.0,0.0253
754.0,0.0255
753.0,0.0256
752.0,0.0255
751.0,0.0253
750.0,0.025
749.0,0.0249
748.0,0.0247
747.0,0.0246
746.0,0.0247
745.0,0.025
744.0,0.0253
743.0,0.0255
742.0,0.0255
741.0,0.0254
740.0,0.0255
739.0,0.0257
738.0,0.0261
737.0,0.0268
736.0,0.0282
735.0,0.031
734.0,0.0362
733.0,0.0448
732.0,0.0559
731.0,0.0666
730.0,0.0733
729.0,0.0742
728.0,0.0708
727.0,0.0666
726.0,0.0643
725.0,0.0647
724.0,0.0681
723.0,0.0751
722.0,0.0865
721.0,0.1014
720.0,0.1148
719.0,0.1204
718.0,0.1161
717.0,0.1052
716.0,0.0923
715.0,0.0804
714.0,0.0708
713.0,0.0633
712.0,0.0578
711.0,0.0537
710.0,0.0505
709.0,0.0477
708.0,0.0451
707.0,0.043
706.0,0.0417
705.0,0.0411
704.0,0.0408
703.0,0.0402
702.0,0.0388
701.0,0.0371
700.0,0.036
699.0,0.036
698.0,0.0366
697.0,0.0368
696.0,0.0363
695.0,0.0354
694.0,0.0342
693.0,0.033
692.0,0.032
691.0,0.0316
690.0,0.0317
689.0,0.032
688.0,0.0326
687.0,0.033
686.0,0.0328
685.0,0.0316
684.0,0.0301
683.0,0.0293
682.0,0.0294
681.0,0.0298
680.0,0.0303
679.0,0.0306
678.0,0.0307
677.0,0.0304
676.0,0.0298
675.0,0.0296
674.0,0.0298
673.0,0.0302
672.0,0.0306
671.0,0.0311
670.0,0.0317
669.0,0.0319
668.0,0.0309
667.0,0.0301
666.0,0.0297
665.0,0.0291
664.0,0.0285
663.0,0.028
662.0,0.028
661.0,0.0285
660.0,0.0293
659.0,0.03
658.0,0.0304
657.0,0.0303
656.0,0.0298
655.0,0.0294
654.0,0.0293
653.0,0.0292
652.0,0.0291
651.0,0.0287
650.0,0.0284
649.0,0.0284
648.0,0.029
647.0,0.0297
646.0,0.03
645.0,0.0297
644.0,0.0293
643.0,0.0291
642.0,0.0291
641.0,0.0289
640.0,0.0287
639.0,0.029
638.0,0.0303
637.0,0.032
636.0,0.0333
635.0,0.0337
634.0,0.0333
633.0,0.0324
632.0,0.0318
631.0,0.0314
630.0,0.0312
629.0,0.031
628.0,0.031
627.0,0.031
626.0,0.0305
625.0,0.0295
624.0,0.0287
623.0,0.0288
622.0,0.0296
621.0,0.0303
620.0,0.0302
619.0,0.0295
618.0,0.0291
617.0,0.0296
616.0,0.0309
615.0,0.032
614.0,0.032
613.0,0.0308
612.0,0.0294
611.0,0.0285
610.0,0.0283
609.0,0.0285
608.0,0.0289
607.0,0.0295
606.0,0.0297
605.0,0.0292
604.0,0.0285
603.0,0.0282
602.0,0.0287
601.0,0.0294
600.0,0.0304
