cm-1,A
4000.0,0.009039900317800775
3999.0,0.009039900317800775
3998.0,0.009039900317800775
3997.0,0.00908424549391551
3996.0,0.009128595198514056
3995.0,0.009172949432521227
3994.0,0.009172949432521227
3993.0,0.009217308196862062
3992.0,0.009261671492462709
3991.0,0.009306039320248427
3990.0,0.009306039320248427
3989.0,0.009306039320248427
3988.0,0.009306039320248427
3987.0,0.009261671492462709
3986.0,0.009261671492462709
3985.0,0.009261671492462709
3984.0,0.009217308196862062
3983.0,0.009217308196862062
3982.0,0.009217308196862062
3981.0,0.009172949432521227
3980.0,0.009172949432521227
3979.0,0.009128595198514056
3978.0,0.009128595198514056
3977.0,0.009217308196862062
3976.0,0.009261671492462709
3975.0,0.009306039320248427
3974.0,0.009350411681145587
3973.0,0.009306039320248427
3972.0,0.009261671492462709
3971.0,0.009217308196862062
3970.0,0.009217308196862062
3969.0,0.009217308196862062
3968.0,0.009217308196862062
3967.0,0.009217308196862062
3966.0,0.009217308196862062
3965.0,0.009217308196862062
3964.0,0.009217308196862062
3963.0,0.009261671492462709
3962.0,0.009261671492462709
3961.0,0.009261671492462709
3960.0,0.009261671492462709
3959.0,0.009261671492462709
3958.0,0.009306039320248427
3957.0,0.009350411681145587
3956.0,0.009350411681145587
3955.0,0.009350411681145587
3954.0,0.009350411681145587
3953.0,0.009306039320248427
3952.0,0.009261671492462709
3951.0,0.009261671492462709
3950.0,0.009217308196862062
3949.0,0.009172949432521227
3948.0,0.009128595198514056
3947.0,0.00908424549391551
3946.0,0.00908424549391551
3945.0,0.009128595198514056
3944.0,0.009172949432521227
3943.0,0.009217308196862062
3942.0,0.009261671492462709
3941.0,0.009217308196862062
3940.0,0.009217308196862062
3939.0,0.009217308196862062
3938.0,0.009217308196862062
3937.0,0.009261671492462709
3936.0,0.009306039320248427
3935.0,0.009350411681145587
3934.0,0.009350411681145587
3933.0,0.009306039320248427
3932.0,0.009261671492462709
3931.0,0.009217308196862062
3930.0,0.009172949432521227
3929.0,0.009217308196862062
3928.0,0.009217308196862062
3927.0,0.009261671492462709
3926.0,0.009306039320248427
3925.0,0.009261671492462709
3924.0,0.009261671492462709
3923.0,0.009306039320248427
3922.0,0.009306039320248427
3921.0,0.009350411681145587
3920.0,0.009306039320248427
3919.0,0.009306039320248427
3918.0,0.009261671492462709
3917.0,0.009261671492462709
3916.0,0.009306039320248427
3915.0,0.009350411681145587
3914.0,0.00939478857608056
3913.0,0.009439170005980158
3912.0,0.009439170005980158
3911.0,0.00939478857608056
3910.0,0.009350411681145587
3909.0,0.009306039320248427
3908.0,0.009306039320248427
3907.0,0.009306039320248427
3906.0,0.009306039320248427
3905.0,0.009261671492462709
3904.0,0.009217308196862062
3903.0,0.009217308196862062
3902.0,0.009261671492462709
3901.0,0.00939478857608056
3900.0,0.00939478857608056
3899.0,0.00939478857608056
3898.0,0.00939478857608056
3897.0,0.009439170005980158
3896.0,0.009483555971770974
3895.0,0.009483555971770974
3894.0,0.009527946474380489
3893.0,0.009527946474380489
3892.0,0.009483555971770974
3891.0,0.00939478857608056
3890.0,0.009350411681145587
3889.0,0.009483555971770974
3888.0,0.00966114521239847
3887.0,0.00966114521239847
3886.0,0.009527946474380489
3885.0,0.009261671492462709
3884.0,0.009128595198514056
3883.0,0.009128595198514056
3882.0,0.009172949432521227
3881.0,0.009261671492462709
3880.0,0.009306039320248427
3879.0,0.00939478857608056
3878.0,0.009527946474380489
3877.0,0.009705553871561357
3876.0,0.009705553871561357
3875.0,0.009616741093766423
3874.0,0.009439170005980158
3873.0,0.009306039320248427
3872.0,0.009306039320248427
3871.0,0.009261671492462709
3870.0,0.009128595198514056
3869.0,0.009039900317800775
3868.0,0.00908424549391551
3867.0,0.009217308196862062
3866.0,0.009261671492462709
3865.0,0.009306039320248427
3864.0,0.009350411681145587
3863.0,0.00939478857608056
3862.0,0.009439170005980158
3861.0,0.009439170005980158
3860.0,0.009483555971770974
3859.0,0.009439170005980158
3858.0,0.009439170005980158
3857.0,0.009350411681145587
3856.0,0.009261671492462709
3855.0,0.009306039320248427
3854.0,0.009439170005980158
3853.0,0.00939478857608056
3852.0,0.00939478857608056
3851.0,0.009527946474380489
3850.0,0.00966114521239847
3849.0,0.00966114521239847
3848.0,0.009616741093766423
3847.0,0.009572341514736404
3846.0,0.009527946474380489
3845.0,0.009483555971770974
3844.0,0.009439170005980158
3843.0,0.009350411681145587
3842.0,0.009306039320248427
3841.0,0.009261671492462709
3840.0,0.009261671492462709
3839.0,0.009306039320248427
3838.0,0.009306039320248427
3837.0,0.009306039320248427
3836.0,0.009306039320248427
3835.0,0.009350411681145587
3834.0,0.009439170005980158
3833.0,0.009483555971770974
3832.0,0.009439170005980158
3831.0,0.009439170005980158
3830.0,0.009439170005980158
3829.0,0.009483555971770974
3828.0,0.009527946474380489
3827.0,0.009527946474380489
3826.0,0.009439170005980158
3825.0,0.009439170005980158
3824.0,0.009483555971770974
3823.0,0.009527946474380489
3822.0,0.009572341514736404
3821.0,0.009483555971770974
3820.0,0.009350411681145587
3819.0,0.00939478857608056
3818.0,0.009483555971770974
3817.0,0.009483555971770974
3816.0,0.009439170005980158
3815.0,0.009439170005980158
3814.0,0.009527946474380489
3813.0,0.009705553871561357
3812.0,0.00974996707218323
3811.0,0.00974996707218323
3810.0,0.009838807101520963
3809.0,0.009883233932095559
3808.0,0.009838807101520963
3807.0,0.00966114521239847
3806.0,0.009527946474380489
3805.0,0.009483555971770974
3804.0,0.009572341514736404
3803.0,0.009572341514736404
3802.0,0.009527946474380489
3801.0,0.00939478857608056
3800.0,0.009306039320248427
3799.0,0.009439170005980158
3798.0,0.009527946474380489
3797.0,0.009527946474380489
3796.0,0.009527946474380489
3795.0,0.009616741093766423
3794.0,0.009705553871561357
3793.0,0.009794384815193347
3792.0,0.009838807101520963
3791.0,0.009883233932095559
3790.0,0.009883233932095559
3789.0,0.009883233932095559
3788.0,0.009883233932095559
3787.0,0.009883233932095559
3786.0,0.009883233932095559
3785.0,0.009794384815193347
3784.0,0.009705553871561357
3783.0,0.009616741093766423
3782.0,0.00966114521239847
3781.0,0.00974996707218323
3780.0,0.009838807101520963
3779.0,0.009883233932095559
3778.0,0.009883233932095559
3777.0,0.009883233932095559
3776.0,0.009927665307847056
3775.0,0.009927665307847056
3774.0,0.009927665307847056
3773.0,0.009972101229705377
3772.0,0.01001654169860089
3771.0,0.01001654169860089
3770.0,0.009927665307847056
3769.0,0.009838807101520963
3768.0,0.009794384815193347
3767.0,0.009838807101520963
3766.0,0.009927665307847056
3765.0,0.009927665307847056
3764.0,0.009927665307847056
3763.0,0.009927665307847056
3762.0,0.009883233932095559
3761.0,0.009838807101520963
3760.0,0.00974996707218323
3759.0,0.009705553871561357
3758.0,0.00966114521239847
3757.0,0.00966114521239847
3756.0,0.00966114521239847
3755.0,0.00974996707218323
3754.0,0.009883233932095559
3753.0,0.01001654169860089
3752.0,0.010194349063173958
3751.0,0.010194349063173958
3750.0,0.009927665307847056
3749.0,0.00974996707218323
3748.0,0.009794384815193347
3747.0,0.01001654169860089
3746.0,0.01023881228122181
3745.0,0.01023881228122181
3744.0,0.01001654169860089
3743.0,0.009883233932095559
3742.0,0.009927665307847056
3741.0,0.009927665307847056
3740.0,0.009794384815193347
3739.0,0.009616741093766423
3738.0,0.009483555971770974
3737.0,0.00939478857608056
3736.0,0.00939478857608056
3735.0,0.00939478857608056
3734.0,0.009350411681145587
3733.0,0.009306039320248427
3732.0,0.009172949432521227
3731.0,0.009128595198514056
3730.0,0.009128595198514056
3729.0,0.009128595198514056
3728.0,0.009039900317800775
3727.0,0.008906891951112605
3726.0,0.008818242332126802
3725.0,0.008862564879688284
3724.0,0.008951223547323472
3723.0,0.009039900317800775
3722.0,0.009172949432521227
3721.0,0.009350411681145587
3720.0,0.009483555971770974
3719.0,0.009572341514736404
3718.0,0.00966114521239847
3717.0,0.00974996707218323
3716.0,0.009883233932095559
3715.0,0.010105436281226954
3714.0,0.01037222925484893
3713.0,0.010683695010048622
3712.0,0.010906307389674463
3711.0,0.010950843561779777
3710.0,0.01077272626946324
3709.0,0.010639186223752484
3708.0,0.010639186223752484
3707.0,0.010594681998483901
3706.0,0.010594681998483901
3705.0,0.010550182333308289
3704.0,0.010594681998483901
3703.0,0.010639186223752484
3702.0,0.010683695010048622
3701.0,0.010728208358306901
3700.0,0.010817248744452446
3699.0,0.010950843561779777
3698.0,0.011039929609661936
3697.0,0.011129033935354915
3696.0,0.01117359295472431
3695.0,0.011262724711199823
3694.0,0.011351874764248926
3693.0,0.011485634166333858
3692.0,0.011574829993696856
3691.0,0.011753276624621556
3690.0,0.011887159731648111
3689.0,0.011887159731648111
3688.0,0.011931796607364653
3687.0,0.012110390002254778
3686.0,0.012378417874516323
3685.0,0.01260190086298274
3684.0,0.012780770091995297
3683.0,0.012914970375878188
3682.0,0.013004460275618523
3681.0,0.013049212141483357
3680.0,0.013004460275618523
3679.0,0.013004460275618523
3678.0,0.013093968619278806
3677.0,0.013273040668781544
3676.0,0.013452186585275916
3675.0,0.013452186585275916
3674.0,0.013496984613259544
3673.0,0.013765869865004277
3672.0,0.013990068146738865
3671.0,0.014259258949925524
3670.0,0.01452861671041239
3669.0,0.014753209197138295
3668.0,0.014932966849499074
3667.0,0.015202742910707112
3666.0,0.01538268676325183
3665.0,0.015607721475734415
3664.0,0.01578783323856614
3663.0,0.01596801972881945
3662.0,0.016148281008528276
3661.0,0.016238439713835096
3660.0,0.016373712875465518
3659.0,0.016554142658660398
3658.0,0.016824927962187042
3657.0,0.017095882207371904
3656.0,0.01727661233145472
3655.0,0.017321806616515723
3654.0,0.017321806616515723
3653.0,0.017186237868137555
3652.0,0.017050711425501408
3651.0,0.017050711425501408
3650.0,0.017457417697056554
3649.0,0.017909760704207134
3648.0,0.018271974638383703
3647.0,0.018634490921455527
3646.0,0.0190880622231564
3645.0,0.01949668180660491
3644.0,0.019860222254245663
3643.0,0.020178569969774962
3642.0,0.020497151212598652
3641.0,0.020770406977844713
3640.0,0.021043834782408455
3639.0,0.021271822861508305
3638.0,0.021499930688540836
3637.0,0.021728158389364705
3636.0,0.021956506090037076
3635.0,0.022230681908425698
3634.0,0.022413561996148967
3633.0,0.022505030926963654
3632.0,0.022642270454698687
3631.0,0.022871099419317753
3630.0,0.023374947949272418
3629.0,0.023971159908874107
3628.0,0.024338466818941473
3627.0,0.02461415101053266
3626.0,0.024936003904763915
3625.0,0.02521206778644225
3624.0,0.02544225514642018
3623.0,0.02562649291857677
3622.0,0.025810808881832736
3621.0,0.02613355016462182
3620.0,0.02654885597506529
3619.0,0.02710321556345563
3618.0,0.027612000892527133
3617.0,0.028075050815808744
3616.0,0.028538594975413334
3615.0,0.028956208163971375
3614.0,0.029467170231675777
3613.0,0.029978734171634214
3612.0,0.030444315779156517
3611.0,0.03081714076773867
3610.0,0.031143625385307683
3609.0,0.031563752288295444
3608.0,0.031984286006358165
3607.0,0.03245202378113787
3606.0,0.03273290844021437
3605.0,0.0329671178412978
3604.0,0.03310770413286357
3603.0,0.03334211579824231
3602.0,0.03367050483612166
3601.0,0.034046110897937076
3600.0,0.03442204208947208
3599.0,0.03479829897408804
3598.0,0.03508070571335731
3597.0,0.03550466044490741
3596.0,0.03592902944204468
3595.0,0.03649550058570927
3594.0,0.037062711569998186
3593.0,0.03753595394209874
3592.0,0.03791491948264003
3591.0,0.038151940981675736
3590.0,0.038436537637930535
3589.0,0.038816290187564384
3588.0,0.03938654235209116
3587.0,0.03995754427315856
3586.0,0.04043395336207234
3585.0,0.04081545726880842
3584.0,0.041197296600497646
3583.0,0.04153168163305643
3582.0,0.041914151478914974
3581.0,0.04229695845116854
3580.0,0.04268010314465909
3579.0,0.0431115453499229
3578.0,0.0435434165901003
3577.0,0.04397571771932274
3576.0,0.04440844959427559
3575.0,0.04484161307420642
3574.0,0.045323413081356456
3573.0,0.04575749056067524
3572.0,0.046047116768076934
3571.0,0.046192002334692894
3570.0,0.04628861957244457
3569.0,0.04643358574299339
3568.0,0.04686877481655505
3567.0,0.04754660357696672
3566.0,0.048225491918274965
3565.0,0.048808242065293994
3564.0,0.04934311749548925
3563.0,0.04978123335813667
3562.0,0.05021979163799939
3561.0,0.050707598587974356
3560.0,0.051098239029786274
3559.0,0.05153812993871654
3558.0,0.05188057561946402
3557.0,0.05222329153526162
3556.0,0.05256627811294923
3555.0,0.05290953578037816
3554.0,0.05325306496641513
3553.0,0.05369514500652506
3552.0,0.054088483180726676
3551.0,0.05448217792216048
3550.0,0.05482695382609992
3549.0,0.055172003656783764
3548.0,0.055566682299785564
3547.0,0.05601112492622806
3546.0,0.05655495097496965
3545.0,0.05709945885970602
3544.0,0.05764465029232335
3543.0,0.05809122563440061
3542.0,0.05848856736559682
3541.0,0.058836539841526925
3540.0,0.05923456436878238
3539.0,0.05968277842578207
3538.0,0.060131455540490375
3537.0,0.06063052992534024
3536.0,0.0611301784870133
3535.0,0.06153031163235467
3534.0,0.061830653609679764
3533.0,0.062131203436140536
3532.0,0.062381820606176586
3531.0,0.0627329277885873
3530.0,0.06318476880236723
3529.0,0.06363708040225546
3528.0,0.06408986356949264
3527.0,0.06459351024765114
3526.0,0.06499684854634524
3525.0,0.0654005617819271
3524.0,0.0658551882075229
3523.0,0.06636088747507496
3522.0,0.06686717627326577
3521.0,0.06732334137759932
3520.0,0.06777998612288094
3519.0,0.06823711151882228
3518.0,0.06869471857832687
3517.0,0.0692037370166998
3516.0,0.06971335275448043
3515.0,0.07007043991541217
3514.0,0.07042782092345012
3513.0,0.07068327324650436
3512.0,0.0710411591191702
3511.0,0.07145053299833615
3510.0,0.07196279359311708
3509.0,0.07247565912497134
3508.0,0.0729891310243489
3507.0,0.07340034609297241
3506.0,0.07376047895413773
3505.0,0.07422394616325367
3504.0,0.07468790850035045
3503.0,0.07525564752005143
3502.0,0.07572071393811841
3501.0,0.07618627890881036
3500.0,0.07665234350217442
3499.0,0.07711890879170658
3498.0,0.07758597585436577
3497.0,0.07810552907089763
3496.0,0.07862570458152551
3495.0,0.079094395835976
3494.0,0.07961575782164254
3493.0,0.08008551934056851
3492.0,0.0805035121369384
3491.0,0.08092190762392604
3490.0,0.08134070657817682
3489.0,0.08170748724464438
3488.0,0.08207457793525874
3487.0,0.08244197917456386
3486.0,0.08286224724355584
3485.0,0.08328292240118751
3484.0,0.08380934001946239
3483.0,0.08438913733853282
3482.0,0.08496970974083906
3481.0,0.08549817717268593
3480.0,0.08602728844902896
3479.0,0.08650404038287651
3478.0,0.08692825969074924
3477.0,0.0872997918091396
3476.0,0.08772478950118767
3475.0,0.0881502035005799
3474.0,0.0885227828938977
3473.0,0.08894897967187343
3472.0,0.08942895151874142
3471.0,0.08996287644694911
3470.0,0.0905509530187334
3469.0,0.09113982698272349
3468.0,0.09167586072382083
3467.0,0.09215885741705532
3466.0,0.09258863922541383
3465.0,0.09307265269104414
3464.0,0.0935572061829677
3463.0,0.09404230090757282
3462.0,0.09447395156495153
3461.0,0.09490603167212863
3460.0,0.09533854208447545
3459.0,0.09571734235437201
3458.0,0.0960964733098364
3457.0,0.09653017149282994
3456.0,0.09701860020249709
3455.0,0.09750757884139638
3454.0,0.09805153492691598
3453.0,0.09854167860388774
3452.0,0.0989778267519208
3451.0,0.09935981601739963
3450.0,0.09968750301627338
3449.0,0.10007011727213588
3448.0,0.1005078038618683
3447.0,0.10105553313349058
3446.0,0.10165883427249067
3445.0,0.10226297465457268
3444.0,0.10281292341984649
3443.0,0.10330847343711591
3442.0,0.1038045895457893
3441.0,0.10424605792627206
3440.0,0.10457745396059215
3439.0,0.10490910306560064
3438.0,0.1052410056281079
3437.0,0.10568393731556158
3436.0,0.10612732120491852
3435.0,0.10657115822045493
3434.0,0.10695988804288215
3433.0,0.10746019534136453
3432.0,0.10796107965870849
3431.0,0.10851829616048003
3430.0,0.10902040301031102
3429.0,0.10946720807225518
3428.0,0.10980261378997125
3427.0,0.11008231656379408
3426.0,0.11036219959333216
3425.0,0.11069829749368965
3424.0,0.11109074073646874
3423.0,0.11153968196461372
3422.0,0.1120452961911984
3421.0,0.11260778102815316
3420.0,0.11311464101399138
3419.0,0.11356568037106163
3418.0,0.11401718864502697
3417.0,0.11435612816423602
3416.0,0.11463877996848804
3415.0,0.11492161585077598
3414.0,0.11520463605101905
3413.0,0.11548784080960606
3412.0,0.11588463798833115
3411.0,0.11628179803604044
3410.0,0.11667932161702477
3409.0,0.1170772093974013
3408.0,0.1174754620451195
3407.0,0.11781711236973003
3406.0,0.11810202642698875
3405.0,0.1183871275216517
3404.0,0.11872949607064243
3403.0,0.11912926746757657
3402.0,0.11952940719622163
3401.0,0.11987267778337518
3400.0,0.1202162199095842
3399.0,0.12056003400478299
3398.0,0.1207893947082408
3397.0,0.12107626603243293
3396.0,0.12136332697348307
3395.0,0.12170805075020397
3394.0,0.1219955297319748
3393.0,0.12234075588839133
3392.0,0.12268625668776156
3391.0,0.12297438413275108
3390.0,0.12320502379929943
3389.0,0.12337808396572703
3388.0,0.12355121312165873
3387.0,0.12372441132212098
3386.0,0.12383991517437187
3385.0,0.12407101507707297
3384.0,0.12430223801979201
3383.0,0.1244757360506914
3382.0,0.12459143992293642
3381.0,0.12476505354983503
3380.0,0.1249387366082999
3379.0,0.12517042212027807
3378.0,0.12534426740189897
3377.0,0.12551818230053358
3376.0,0.12563416426995122
3375.0,0.12569216687196105
3374.0,0.12569216687196105
3373.0,0.12569216687196105
3372.0,0.12575017722159698
3371.0,0.12586622117202761
3370.0,0.12604034525664676
3369.0,0.126156466776564
3368.0,0.12621453918179926
3367.0,0.12627261935332057
3366.0,0.1263307072932056
3365.0,0.12638880300353272
3364.0,0.12644690648638135
3363.0,0.12644690648638135
3362.0,0.12644690648638135
3361.0,0.12650501774383094
3360.0,0.12656313677796316
3359.0,0.126621263590859
3358.0,0.126621263590859
3357.0,0.126621263590859
3356.0,0.126621263590859
3355.0,0.12656313677796316
3354.0,0.12644690648638135
3353.0,0.1263307072932056
3352.0,0.12627261935332057
3351.0,0.12627261935332057
3350.0,0.12627261935332057
3349.0,0.1263307072932056
3348.0,0.1263307072932056
3347.0,0.12627261935332057
3346.0,0.126156466776564
3345.0,0.12604034525664676
3344.0,0.12592425477696523
3343.0,0.12586622117202761
3342.0,0.12575017722159698
3341.0,0.12557616941349803
3340.0,0.12546020292898974
3339.0,0.12534426740189897
3338.0,0.1252863112422209
3337.0,0.12522836281570182
3336.0,0.12522836281570182
3335.0,0.12517042212027807
3334.0,0.125054563914468
3333.0,0.1248808345374317
3332.0,0.12464930342071079
3331.0,0.12441789567211425
3330.0,0.12412880927263426
3329.0,0.12383991517437187
3328.0,0.1236666709136196
3327.0,0.12349349573411894
3326.0,0.12343578601615435
3325.0,0.1233203895807995
3324.0,0.12320502379929943
3323.0,0.12303203256741524
3322.0,0.12280148472821018
3321.0,0.12257105921178035
3320.0,0.12245589228405596
3319.0,0.12234075588839133
3318.0,0.12216810850710624
3317.0,0.12193801870998744
3316.0,0.12170805075020397
3315.0,0.12147820449879343
3314.0,0.12124847982699793
3313.0,0.12101887660626365
3312.0,0.12084675381575383
3311.0,0.12067469921519258
3310.0,0.12050271275057156
3309.0,0.12033079436794658
3308.0,0.12015894401343741
3307.0,0.11992991593593283
3306.0,0.11964380058076385
3305.0,0.11941504393502012
3304.0,0.11912926746757657
3303.0,0.11878658374498086
3302.0,0.11850122038501709
3301.0,0.11833009232793867
3300.0,0.11827306462358211
3299.0,0.11821604440661537
3298.0,0.11804502866039956
3297.0,0.11776015198117662
3296.0,0.11736163830396129
3295.0,0.11702034596270106
3294.0,0.11684980031672243
3293.0,0.116736140415026
3292.0,0.116736140415026
3291.0,0.11662251025166115
3290.0,0.11645212073195621
3289.0,0.11622503864474187
3288.0,0.11594135290606156
3287.0,0.11565785235294102
3286.0,0.11537453674376552
3285.0,0.11514801725400226
3284.0,0.11492161585077598
3283.0,0.1148084593931522
3282.0,0.11463877996848804
3281.0,0.11446916681190777
3280.0,0.11429961987167014
3279.0,0.1141301390960936
3278.0,0.11396072443355765
3277.0,0.1137349409702435
3276.0,0.11350927482751816
3275.0,0.11328372588352176
3274.0,0.11305829401658474
3273.0,0.112945621949043
3272.0,0.11277666863747693
3271.0,0.11260778102815316
3270.0,0.11243895906999102
3269.0,0.11221396516162851
3268.0,0.1120452961911984
3267.0,0.11182050608167504
3266.0,0.11159583226295333
3265.0,0.11142740314240007
3264.0,0.11120293254331926
3263.0,0.11103465569966264
3262.0,0.11092250734993603
3261.0,0.11075433910702048
3260.0,0.11053021603049262
3259.0,0.11036219959333216
3258.0,0.11013827874181148
3257.0,0.10991447328367476
3256.0,0.10974669484546551
3255.0,0.10957898119908571
3254.0,0.10946720807225518
3253.0,0.10935546370475246
3252.0,0.10918790104487552
3251.0,0.10896458468468917
3250.0,0.10874138309586101
3249.0,0.10851829616048003
3248.0,0.1082953237608173
3247.0,0.10801676914803293
3246.0,0.10779405402422748
3245.0,0.1075158206353124
3244.0,0.10723776538418317
3243.0,0.10701544928928342
3242.0,0.10679324694015202
3241.0,0.10662666975397506
3240.0,0.10640466618011679
3239.0,0.10612732120491852
3238.0,0.10585015323207791
3237.0,0.10557316203581202
3236.0,0.10529634739076998
3235.0,0.10496440254767725
3234.0,0.10463271122663809
3233.0,0.10424605792627206
3232.0,0.10385974855798041
3231.0,0.10352889952072264
3230.0,0.10319830233507843
3229.0,0.1028679566179056
3228.0,0.10253786198693682
3227.0,0.1022080180607754
3226.0,0.10187842445889239
3225.0,0.10154908080162528
3224.0,0.1012199867101744
3223.0,0.10089114180660053
3222.0,0.10061729446673495
3221.0,0.10028890542885538
3220.0,0.10001543745060903
3219.0,0.09968750301627338
3218.0,0.09941441335003853
3217.0,0.09914149529800831
3216.0,0.09886874864462802
3215.0,0.09859617317474823
3214.0,0.09821485469640057
3213.0,0.09783387072894878
3212.0,0.09745322068600859
3211.0,0.09712721455392082
3210.0,0.09680145295702158
3209.0,0.09642170633694569
3208.0,0.09604229147682952
3207.0,0.09560907998763835
3206.0,0.09517630019905599
3205.0,0.09468993788391455
3204.0,0.09431203228814788
3203.0,0.09393445524476318
3202.0,0.0935572061829677
3201.0,0.09323411045927221
3200.0,0.09296504751658308
3199.0,0.09264239186882706
3198.0,0.09226626300234453
3197.0,0.09183679994445204
3196.0,0.09140776115243066
3195.0,0.09097914578884403
3194.0,0.0905509530187334
3193.0,0.09012318200960712
3192.0,0.08964244272712252
3191.0,0.08916223500731646
3190.0,0.08873582900163002
3189.0,0.08841629901892434
3188.0,0.08804381092731295
3187.0,0.08761850108119962
3186.0,0.08714052483764512
3185.0,0.0867160982395816
3184.0,0.0862920860195171
3183.0,0.08586848736910624
3182.0,0.08549817717268593
3181.0,0.08512818245994969
3180.0,0.08470571697731355
3179.0,0.08428366205400617
3178.0,0.08375666953466032
3177.0,0.08328292240118751
3176.0,0.08286224724355584
3175.0,0.08249449044745338
3174.0,0.08212704480115218
3173.0,0.08175990977858505
3172.0,0.08134070657817682
3171.0,0.08081727095749947
3170.0,0.08029446545087904
3169.0,0.07977228854307139
3168.0,0.07935499859321249
3167.0,0.07893810920972144
3166.0,0.07852161962430992
3165.0,0.07810552907089763
3164.0,0.07768983678560404
3163.0,0.07727454200674
3162.0,0.07691148455760066
3161.0,0.07649693305789551
3160.0,0.07613452481449845
3159.0,0.07572071393811841
3158.0,0.07535895258283709
3157.0,0.07499749231902242
3156.0,0.07453319930846214
3155.0,0.07401789967289685
3154.0,0.07355465218161061
3153.0,0.07309189829456408
3152.0,0.07273231918911849
3151.0,0.07232173586200852
3150.0,0.07191154033502922
3149.0,0.07150173187630915
3148.0,0.07109230975604719
3147.0,0.07073438174693436
3146.0,0.07037674848475972
3145.0,0.07001940948448526
3144.0,0.06966236426227002
3143.0,0.0692037370166998
3142.0,0.06879647454924775
3141.0,0.068389593637038
3140.0,0.06803388527182741
3139.0,0.0676277178520861
3138.0,0.06722192993944942
3137.0,0.06681652082538614
3136.0,0.06641148980334699
3135.0,0.06600683616875758
3134.0,0.06565307326174441
3133.0,0.06529959828457499
3132.0,0.06504729218214189
3131.0,0.06474471821595262
3130.0,0.06444235490698613
3129.0,0.06408986356949264
3128.0,0.0636873663378068
3127.0,0.06328524178879635
3126.0,0.06288348923294618
3125.0,0.06248210798265341
3124.0,0.062131203436140536
3123.0,0.061780582187257016
3122.0,0.06148027482350815
3121.0,0.06118017497378969
3120.0,0.060880282351513104
3119.0,0.06058059667068294
3118.0,0.060231224546650086
3117.0,0.05983228596592505
3116.0,0.05943371350990989
3115.0,0.059035506507200575
3114.0,0.05868737463933793
3113.0,0.05843887976392925
3112.0,0.05814087347462649
3111.0,0.05789269101064454
3110.0,0.0575950591438934
3109.0,0.05729763111133224
3108.0,0.057000406633959555
3107.0,0.05670338543334519
3106.0,0.056406567231630955
3105.0,0.056159373598738904
3104.0,0.055912320584565744
3103.0,0.05561604235915585
3102.0,0.05531996611868961
3101.0,0.0549747987575373
3100.0,0.05462990550969615
3099.0,0.05433450056786593
3098.0,0.05403929642243144
3097.0,0.05374429280060267
3096.0,0.0534986094304124
3095.0,0.05325306496641513
3094.0,0.05295859474477971
3093.0,0.05271335532220167
3092.0,0.052419250695677544
3091.0,0.05217431555754937
3090.0,0.05188057561946402
3089.0,0.0515870342213991
3088.0,0.05129369109514803
3087.0,0.051049389754451946
3086.0,0.050805225762017736
3085.0,0.05051241005349638
3084.0,0.05026854768429301
3083.0,0.049927370249842395
3082.0,0.04958646063061889
3081.0,0.049245818406496555
3080.0,0.048954051864180226
3079.0,0.04871106272232795
3078.0,0.048468209457651845
3077.0,0.048225491918274965
3076.0,0.047982909952573705
3075.0,0.04778894189133087
3074.0,0.04749815213697639
3073.0,0.04725597598510167
3072.0,0.04696554274964315
3071.0,0.04662694927330402
3070.0,0.04633693625290869
3069.0,0.046047116768076934
3068.0,0.04580574818413763
3067.0,0.045564513671517703
3066.0,0.045323413081356456
3065.0,0.04508244626504121
3064.0,0.04484161307420642
3063.0,0.04455278942230456
3062.0,0.04421607108308856
3061.0,0.04387961360698034
3060.0,0.0435434165901003
3059.0,0.04325545471730896
3058.0,0.04301563225723992
3057.0,0.042775942156833
3056.0,0.042584285277331047
3055.0,0.042344833056508824
3054.0,0.04215336629184985
3053.0,0.041914151478914974
3052.0,0.04167506835594681
3051.0,0.041483896576958834
3050.0,0.04124505013091051
3049.0,0.040958607678906356
3048.0,0.040672354027829094
3047.0,0.04043395336207234
3046.0,0.04019568349166214
3045.0,0.040005161671583744
3044.0,0.03981472339538916
3043.0,0.03957679292217042
3042.0,0.03929144831144349
3041.0,0.039006291057664066
3040.0,0.038721320914956836
3039.0,0.03848398855105106
3038.0,0.03829421599749461
3037.0,0.038057116858612794
3036.0,0.03786753070176463
3035.0,0.037583306554248797
3034.0,0.037346595106788616
3033.0,0.0371100126082089
3032.0,0.03692083935817303
3031.0,0.036779013477011624
3030.0,0.03668448861388862
3029.0,0.03649550058570927
3028.0,0.03625938114211591
3027.0,0.03602339000339416
3026.0,0.03578752703018084
3025.0,0.03559892883726867
3024.0,0.03541041251009669
3023.0,0.03526907894637077
3022.0,0.03508070571335731
3021.0,0.03489241415094413
3020.0,0.03470420418834386
3019.0,0.034469056377139484
3018.0,0.03428102975577918
3017.0,0.03409308450480819
3016.0,0.033905220553829274
3015.0,0.03367050483612166
3014.0,0.03343591590268957
3013.0,0.0332483359486222
3012.0,0.03310770413286357
3011.0,0.03301397488206215
3010.0,0.032920265855503006
3009.0,0.03282657704446046
3008.0,0.032686081712916426
3007.0,0.032545631817259224
3006.0,0.03235843591698884
3005.0,0.03217132066984485
3004.0,0.031984286006358165
3003.0,0.03179733185715028
3002.0,0.031657169041054534
3001.0,0.031563752288295444
3000.0,0.03147035562516054
2999.0,0.03133029827960798
2998.0,0.031190286087141805
2997.0,0.030957032694186815
2996.0,0.030770520137356927
2995.0,0.030537492025363155
2994.0,0.030351159519274695
2993.0,0.03025802323714588
2992.0,0.030211462585061133
2991.0,0.030211462585061133
2990.0,0.03025802323714588
2989.0,0.030211462585061133
2988.0,0.030071810571884017
2987.0,0.029839156962686353
2986.0,0.02960662792039992
2985.0,0.02932775731028059
2984.0,0.029095501846216454
2983.0,0.028863370523193765
2982.0,0.02872415126189476
2981.0,0.02863136320857662
2980.0,0.028538594975413334
2979.0,0.028445846553939003
2978.0,0.028353117935693284
2977.0,0.02826040911222183
2976.0,0.028214062120885508
2975.0,0.028075050815808744
2974.0,0.02798240132598462
2973.0,0.027889771597169544
2972.0,0.027843464140506313
2971.0,0.027843464140506313
2970.0,0.027889771597169544
2969.0,0.027889771597169544
2968.0,0.027889771597169544
2967.0,0.027889771597169544
2966.0,0.027936083991977778
2965.0,0.027936083991977778
2964.0,0.02798240132598462
2963.0,0.028028723600243666
2962.0,0.02812138297373412
2961.0,0.028214062120885508
2960.0,0.028353117935693284
2959.0,0.028445846553939003
2958.0,0.028538594975413334
2957.0,0.02858497661500481
2956.0,0.02863136320857662
2955.0,0.02858497661500481
2954.0,0.028445846553939003
2953.0,0.028353117935693284
2952.0,0.028306761050139073
2951.0,0.028306761050139073
2950.0,0.02849221828874393
2949.0,0.028816959143838528
2948.0,0.029281296279810798
2947.0,0.029978734171634214
2946.0,0.03081714076773867
2945.0,0.03184406285002961
2944.0,0.03301397488206215
2943.0,0.03432802877989327
2942.0,0.035740369803151095
2941.0,0.037346595106788616
2940.0,0.03914884628031379
2939.0,0.041197296600497646
2938.0,0.0435434165901003
2937.0,0.046192002334692894
2936.0,0.04900266601119507
2935.0,0.05207638016827354
2934.0,0.05541863577307371
2933.0,0.059135024033278416
2932.0,0.06323500239005853
2931.0,0.06772922410050963
2930.0,0.07262963696097646
2929.0,0.07810552907089763
2928.0,0.08417821237960132
2927.0,0.09097914578884403
2926.0,0.09859617317474823
2925.0,0.10707101764479421
2924.0,0.1165089098110701
2923.0,0.1267375405612734
2922.0,0.1375704438939911
2921.0,0.14861933203440336
2920.0,0.15926676538819318
2919.0,0.16883436609055757
2918.0,0.17639537164484187
2917.0,0.18091692425629735
2916.0,0.18190613085336405
2915.0,0.17920761891179637
2914.0,0.17347169365934856
2913.0,0.16589734428720626
2912.0,0.1576404266693252
2911.0,0.1495988520028415
2910.0,0.14230574221345038
2909.0,0.13578566953867033
2908.0,0.13012318673323353
2907.0,0.12517042212027807
2906.0,0.12096149476276286
2905.0,0.1174754620451195
2904.0,0.11446916681190777
2903.0,0.11193288659256306
2902.0,0.10963487855187593
2901.0,0.10746019534136453
2900.0,0.10546241500425357
2899.0,0.10352889952072264
2898.0,0.10171372141087698
2897.0,0.10001543745060903
2896.0,0.09837823590664274
2895.0,0.09680145295702158
2894.0,0.09523037409340485
2893.0,0.09361107884716913
2892.0,0.09189045960744768
2891.0,0.09017663034908807
2890.0,0.08836306687055773
2889.0,0.08650404038287651
2888.0,0.08465293767580806
2887.0,0.08275714209253371
2886.0,0.08086958613938555
2885.0,0.07899019850296574
2884.0,0.07706704344478843
2883.0,0.07510073598571654
2882.0,0.07314329105030759
2881.0,0.07109230975604719
2880.0,0.06905096883247697
2879.0,0.06691783763020887
2878.0,0.06479513257341862
2877.0,0.0627329277885873
2876.0,0.06068046892176193
2875.0,0.058836539841526925
2874.0,0.05709945885970602
2873.0,0.055566682299785564
2872.0,0.054088483180726676
2871.0,0.05281143447390635
2870.0,0.0515870342213991
2869.0,0.05056119896349576
2868.0,0.04968383607539972
2867.0,0.04905128560059957
2866.0,0.04866248120408234
2865.0,0.04866248120408234
2864.0,0.04900266601119507
2863.0,0.04982994019179987
2862.0,0.051244819831730126
2861.0,0.05325306496641513
2860.0,0.05610995175152733
2859.0,0.05993198626064755
2858.0,0.06504729218214189
2857.0,0.07175781684269089
2856.0,0.08024221949810584
2855.0,0.0908185240221473
2854.0,0.1033635694704158
2853.0,0.1175323851046286
2852.0,0.1322379753497993
2851.0,0.14575470293388149
2850.0,0.15589576930248672
2849.0,0.16096212661169407
2848.0,0.1602706247936121
2847.0,0.15471587365200845
2846.0,0.14599776687301103
2845.0,0.13590442657575252
2844.0,0.12586622117202761
2843.0,0.1165089098110701
2842.0,0.10823959854332843
2841.0,0.10105553313349058
2840.0,0.09485199814398393
2839.0,0.08958906008531176
2838.0,0.08502252755566908
2837.0,0.08107890990866418
2836.0,0.07763790321520991
2835.0,0.07468790850035045
2834.0,0.0720140529005715
2833.0,0.06961138175567827
2832.0,0.06747550294945781
2831.0,0.06550154875643233
2830.0,0.0636873663378068
2829.0,0.06208109735221967
2828.0,0.06058059667068294
2827.0,0.05918479134919874
2826.0,0.05799194697768684
2825.0,0.05690137699451481
2824.0,0.05586292684190197
2823.0,0.0549255115212699
2822.0,0.05403929642243144
2821.0,0.053203972728539606
2820.0,0.05237025261564554
2819.0,0.05153812993871654
2818.0,0.050805225762017736
2817.0,0.05012229596312534
2816.0,0.04948910701400333
2815.0,0.048905443158337114
2814.0,0.04837110616336182
2813.0,0.047885915093007325
2812.0,0.04740126547022694
2811.0,0.0469171560879138
2810.0,0.04643358574299339
2809.0,0.04595055323640551
2808.0,0.0454680573730859
2807.0,0.044986096961949995
2806.0,0.04455278942230456
2805.0,0.04411991377462465
2804.0,0.043735497301724546
2803.0,0.0433514207947967
2802.0,0.042967683653061695
2801.0,0.04263219156847242
2800.0,0.04224908912272074
2799.0,0.041914151478914974
2798.0,0.041627267521392675
2797.0,0.041340572947066834
2796.0,0.04105406750606355
2795.0,0.04072004986906119
2794.0,0.04038628892895613
2793.0,0.0400527842915015
2792.0,0.039719535563357944
2791.0,0.03943409718180235
2790.0,0.03914884628031379
2789.0,0.038911280232103884
2788.0,0.03862637240519895
2787.0,0.038341651362284734
2786.0,0.038057116858612794
2785.0,0.03777276864991497
2784.0,0.03744126420403626
2783.0,0.0371573187987575
2782.0,0.036873558918095295
2781.0,0.03658998431977123
2780.0,0.03635381351515665
2779.0,0.03616496929785207
2778.0,0.03592902944204468
2777.0,0.035740369803151095
2776.0,0.03550466044490741
2775.0,0.03531618502395939
2774.0,0.03512779136222477
2773.0,0.03498654972775217
2772.0,0.03484535401307465
2771.0,0.03470420418834386
2770.0,0.03456310022373987
2769.0,0.03432802877989327
2768.0,0.03414006319292828
2767.0,0.033952178923546183
2766.0,0.0338113190438627
2765.0,0.03362357691107709
2764.0,0.033482823553208085
2763.0,0.033295223342125535
2762.0,0.033154576345083564
2761.0,0.0329671178412978
2760.0,0.03282657704446046
2759.0,0.03263926003405038
2758.0,0.03249882527715853
2757.0,0.03240522732811035
2756.0,0.03226486821611996
2755.0,0.03217132066984485
2754.0,0.03207779326948268
2753.0,0.03193753992355086
2752.0,0.03175060589208267
2751.0,0.031563752288295444
2750.0,0.03142366482450232
2749.0,0.03133029827960798
2748.0,0.031236951802751545
2747.0,0.031143625385307683
2746.0,0.03105031901865729
2745.0,0.030910397045078586
2744.0,0.03081714076773867
2743.0,0.030770520137356927
2742.0,0.0307239045110681
2741.0,0.03063068826647264
2740.0,0.030537492025363155
2739.0,0.030444315779156517
2738.0,0.03030458888152676
2737.0,0.030211462585061133
2736.0,0.030118356253500123
2735.0,0.029978734171634214
2734.0,0.029885677714903025
2733.0,0.029792641193145286
2732.0,0.029746130405213123
2731.0,0.029746130405213123
2730.0,0.02969962459782227
2729.0,0.02960662792039992
2728.0,0.029513651152349718
2727.0,0.02942069428514915
2726.0,0.029281296279810798
2725.0,0.029141943003497595
2724.0,0.029002634427514717
2723.0,0.028863370523193765
2722.0,0.02872415126189476
2721.0,0.02858497661500481
2720.0,0.02849221828874393
2719.0,0.02839947976994095
2718.0,0.028306761050139073
2717.0,0.028214062120885508
2716.0,0.028075050815808744
2715.0,0.02798240132598462
2714.0,0.027936083991977778
2713.0,0.027889771597169544
2712.0,0.027843464140506313
2711.0,0.027797161620935595
2710.0,0.027797161620935595
2709.0,0.0277045713888604
2708.0,0.027565723042634938
2707.0,0.02747318213414429
2706.0,0.027334407733889066
2705.0,0.027288159452933503
2704.0,0.02724191609646076
2703.0,0.027149444152769986
2702.0,0.02710321556345563
2701.0,0.027010773144651168
2700.0,0.02696455931306696
2699.0,0.026872146400301444
2698.0,0.02677975314776626
2697.0,0.026687379547098322
2696.0,0.026595025589939425
2695.0,0.02654885597506529
2694.0,0.026502691267936695
2693.0,0.026456531467510258
2692.0,0.026410376572743033
2691.0,0.02636422658259252
2690.0,0.026271941311972746
2689.0,0.026225806029419818
2688.0,0.02613355016462182
2687.0,0.026087429580295085
2686.0,0.025995203102585407
2685.0,0.025902996205869
2684.0,0.025810808881832736
2683.0,0.025764722556973707
2682.0,0.025764722556973707
2681.0,0.025764722556973707
2680.0,0.025764722556973707
2679.0,0.025810808881832736
2678.0,0.025810808881832736
2677.0,0.025856900097785074
2676.0,0.025810808881832736
2675.0,0.025764722556973707
2674.0,0.025718641122169483
2673.0,0.025672564576383117
2672.0,0.02558042614771394
2671.0,0.02553436426275746
2670.0,0.025488307262671706
2669.0,0.025488307262671706
2668.0,0.02553436426275746
2667.0,0.02558042614771394
2666.0,0.02562649291857677
2665.0,0.025672564576383117
2664.0,0.025672564576383117
2663.0,0.02562649291857677
2662.0,0.02558042614771394
2661.0,0.02553436426275746
2660.0,0.025488307262671706
2659.0,0.02544225514642018
2658.0,0.025350165561278004
2657.0,0.025304128090317013
2656.0,0.025258095499050004
2655.0,0.02521206778644225
2654.0,0.02516604495145991
2653.0,0.02516604495145991
2652.0,0.02512002699306959
2651.0,0.02512002699306959
2650.0,0.025074013910237447
2649.0,0.025028005701930978
2648.0,0.024936003904763915
2647.0,0.02484402159331056
2646.0,0.02475205875931885
2645.0,0.024798037742147727
2644.0,0.024798037742147727
2643.0,0.02484402159331056
2642.0,0.02484402159331056
2641.0,0.024798037742147727
2640.0,0.024798037742147727
2639.0,0.024798037742147727
2638.0,0.02475205875931885
2637.0,0.024798037742147727
2636.0,0.024798037742147727
2635.0,0.024798037742147727
2634.0,0.02475205875931885
2633.0,0.024660115394541604
2632.0,0.024568191490736968
2631.0,0.024476287039668643
2630.0,0.024430342106337877
2629.0,0.02438440203310499
2628.0,0.024338466818941473
2627.0,0.024292536462819925
2626.0,0.024200690320592466
2625.0,0.024154774532432866
2624.0,0.024108863598207186
2623.0,0.02406295751688936
2622.0,0.02406295751688936
2621.0,0.024017056287453542
2620.0,0.023925268380126097
2619.0,0.023833499868024743
2618.0,0.023695883447997224
2617.0,0.023604163388120325
2616.0,0.02351246269481
2615.0,0.02342078135989012
2614.0,0.023329119375188556
2613.0,0.023283295636617574
2612.0,0.023283295636617574
2611.0,0.023283295636617574
2610.0,0.023283295636617574
2609.0,0.023237476732539397
2608.0,0.02314585342378117
2607.0,0.023054249440757957
2606.0,0.02296266477531872
2605.0,0.02291687968414724
2604.0,0.022871099419317753
2603.0,0.02291687968414724
2602.0,0.02291687968414724
2601.0,0.02291687968414724
2600.0,0.022871099419317753
2599.0,0.02277955336461468
2598.0,0.022688026603074007
2597.0,0.022642270454698687
2596.0,0.02259651912656535
2595.0,0.02255077261765881
2594.0,0.022505030926963654
2593.0,0.02245929405346514
2592.0,0.022413561996148967
2591.0,0.022367834754000393
2590.0,0.022322112326006227
2589.0,0.022322112326006227
2588.0,0.022322112326006227
2587.0,0.022230681908425698
2586.0,0.0221849739168134
2585.0,0.022139270735302752
2584.0,0.022093572362881675
2583.0,0.02200219004126036
2582.0,0.021956506090037076
2581.0,0.021910826943857264
2580.0,0.021819483062586187
2579.0,0.021773818325474092
2578.0,0.021728158389364705
2577.0,0.021728158389364705
2576.0,0.02168250325324883
2575.0,0.02159120737696063
2574.0,0.021545566634771474
2573.0,0.021499930688540836
2572.0,0.021499930688540836
2571.0,0.021499930688540836
2570.0,0.021499930688540836
2569.0,0.0214542995372613
2568.0,0.0214542995372613
2567.0,0.0214542995372613
2566.0,0.0214542995372613
2565.0,0.0214542995372613
2564.0,0.021499930688540836
2563.0,0.0214542995372613
2562.0,0.02140867317992523
2561.0,0.021363051615525652
2560.0,0.021317434843055594
2559.0,0.02122621566987748
2558.0,0.0211806132671577
2557.0,0.0211806132671577
2556.0,0.0211806132671577
2555.0,0.0211806132671577
2554.0,0.021135015652343103
2553.0,0.021089422824428272
2552.0,0.021043834782408455
2551.0,0.0209982515252789
2550.0,0.0209982515252789
2549.0,0.021043834782408455
2548.0,0.021043834782408455
2547.0,0.0209982515252789
2546.0,0.020907099361673565
2545.0,0.020770406977844713
2544.0,0.020724852408976924
2543.0,0.020724852408976924
2542.0,0.020724852408976924
2541.0,0.02067930261797568
2540.0,0.020633757603838898
2539.0,0.02058821736556471
2538.0,0.020542681902151694
2537.0,0.020542681902151694
2536.0,0.02058821736556471
2535.0,0.02058821736556471
2534.0,0.02058821736556471
2533.0,0.02058821736556471
2532.0,0.02058821736556471
2531.0,0.020542681902151694
2530.0,0.020542681902151694
2529.0,0.020542681902151694
2528.0,0.020542681902151694
2527.0,0.02058821736556471
2526.0,0.02058821736556471
2525.0,0.02058821736556471
2524.0,0.02058821736556471
2523.0,0.020542681902151694
2522.0,0.020497151212598652
2521.0,0.02045162529590483
2520.0,0.020406104151069693
2519.0,0.02045162529590483
2518.0,0.02045162529590483
2517.0,0.02045162529590483
2516.0,0.020406104151069693
2515.0,0.02036058777709271
2514.0,0.020315076172974234
2513.0,0.02022406727031445
2512.0,0.02013307743509718
2511.0,0.020087589665283012
2510.0,0.020087589665283012
2509.0,0.02013307743509718
2508.0,0.020178569969774962
2507.0,0.020178569969774962
2506.0,0.02022406727031445
2505.0,0.020178569969774962
2504.0,0.020178569969774962
2503.0,0.02013307743509718
2502.0,0.020087589665283012
2501.0,0.020087589665283012
2500.0,0.02013307743509718
2499.0,0.020087589665283012
2498.0,0.02004210665933459
2497.0,0.019996628416253603
2496.0,0.01995115493504329
2495.0,0.019996628416253603
2494.0,0.02004210665933459
2493.0,0.020087589665283012
2492.0,0.020087589665283012
2491.0,0.020087589665283012
2490.0,0.02004210665933459
2489.0,0.02004210665933459
2488.0,0.02004210665933459
2487.0,0.019996628416253603
2486.0,0.019996628416253603
2485.0,0.019996628416253603
2484.0,0.019996628416253603
2483.0,0.02004210665933459
2482.0,0.019996628416253603
2481.0,0.019996628416253603
2480.0,0.019996628416253603
2479.0,0.02004210665933459
2478.0,0.019996628416253603
2477.0,0.01995115493504329
2476.0,0.01990568621470623
2475.0,0.019860222254245663
2474.0,0.019860222254245663
2473.0,0.01990568621470623
2472.0,0.01990568621470623
2471.0,0.01990568621470623
2470.0,0.01990568621470623
2469.0,0.01995115493504329
2468.0,0.01995115493504329
2467.0,0.01990568621470623
2466.0,0.01990568621470623
2465.0,0.01990568621470623
2464.0,0.01990568621470623
2463.0,0.019860222254245663
2462.0,0.01990568621470623
2461.0,0.01990568621470623
2460.0,0.01990568621470623
2459.0,0.01990568621470623
2458.0,0.01990568621470623
2457.0,0.01990568621470623
2456.0,0.019860222254245663
2455.0,0.019814763052665052
2454.0,0.019814763052665052
2453.0,0.019860222254245663
2452.0,0.01990568621470623
2451.0,0.01990568621470623
2450.0,0.01990568621470623
2449.0,0.01990568621470623
2448.0,0.01990568621470623
2447.0,0.019860222254245663
2446.0,0.019860222254245663
2445.0,0.019860222254245663
2444.0,0.019860222254245663
2443.0,0.019814763052665052
2442.0,0.019814763052665052
2441.0,0.019814763052665052
2440.0,0.019814763052665052
2439.0,0.019814763052665052
2438.0,0.019769308608968306
2437.0,0.019723858922159776
2436.0,0.019769308608968306
2435.0,0.019769308608968306
2434.0,0.019814763052665052
2433.0,0.019860222254245663
2432.0,0.019860222254245663
2431.0,0.01990568621470623
2430.0,0.019996628416253603
2429.0,0.019996628416253603
2428.0,0.01995115493504329
2427.0,0.019860222254245663
2426.0,0.019814763052665052
2425.0,0.019769308608968306
2424.0,0.019769308608968306
2423.0,0.019814763052665052
2422.0,0.019860222254245663
2421.0,0.01990568621470623
2420.0,0.019996628416253603
2419.0,0.020087589665283012
2418.0,0.020087589665283012
2417.0,0.02013307743509718
2416.0,0.020087589665283012
2415.0,0.020087589665283012
2414.0,0.020087589665283012
2413.0,0.020087589665283012
2412.0,0.020087589665283012
2411.0,0.019996628416253603
2410.0,0.01995115493504329
2409.0,0.01990568621470623
2408.0,0.01990568621470623
2407.0,0.01995115493504329
2406.0,0.01995115493504329
2405.0,0.019996628416253603
2404.0,0.019996628416253603
2403.0,0.019996628416253603
2402.0,0.019996628416253603
2401.0,0.019996628416253603
2400.0,0.019996628416253603
2399.0,0.019996628416253603
2398.0,0.019996628416253603
2397.0,0.019996628416253603
2396.0,0.019996628416253603
2395.0,0.01995115493504329
2394.0,0.01990568621470623
2393.0,0.01990568621470623
2392.0,0.01990568621470623
2391.0,0.01990568621470623
2390.0,0.01995115493504329
2389.0,0.02004210665933459
2388.0,0.02013307743509718
2387.0,0.020178569969774962
2386.0,0.02022406727031445
2385.0,0.020178569969774962
2384.0,0.02013307743509718
2383.0,0.02004210665933459
2382.0,0.01995115493504329
2381.0,0.019814763052665052
2380.0,0.019678413991243593
2379.0,0.01949668180660491
2378.0,0.019315025636685412
2377.0,0.019269623464054586
2376.0,0.019360432556262852
2375.0,0.01958753839310856
2374.0,0.019860222254245663
2373.0,0.02004210665933459
2372.0,0.01990568621470623
2371.0,0.01949668180660491
2370.0,0.0190880622231564
2369.0,0.019042683770379876
2368.0,0.019133445417920836
2367.0,0.018951941086827073
2366.0,0.019042683770379876
2365.0,0.020178569969774962
2364.0,0.021499930688540836
2363.0,0.0214542995372613
2362.0,0.02036058777709271
2361.0,0.01990568621470623
2360.0,0.02058821736556471
2359.0,0.021089422824428272
2358.0,0.020315076172974234
2357.0,0.018543833477873584
2356.0,0.01646391839700767
2355.0,0.014708281407112
2354.0,0.01381070026317599
2353.0,0.013496984613259544
2352.0,0.013273040668781544
2351.0,0.013317820220494436
2350.0,0.014573525916998342
2349.0,0.016734647433454652
2348.0,0.018634490921455527
2347.0,0.019269623464054586
2346.0,0.01858915983411169
2345.0,0.017367005605150476
2344.0,0.016058141016111804
2343.0,0.015067833932588037
2342.0,0.014618439768003144
2341.0,0.014573525916998342
2340.0,0.014977917890464765
2339.0,0.015427684378367834
2338.0,0.015742798294583915
2337.0,0.016103208673694303
2336.0,0.016824927962187042
2335.0,0.017864505196230507
2334.0,0.0190880622231564
2333.0,0.020087589665283012
2332.0,0.020542681902151694
2331.0,0.020497151212598652
2330.0,0.020315076172974234
2329.0,0.02013307743509718
2328.0,0.019769308608968306
2327.0,0.01940584422377989
2326.0,0.018906576854070378
2325.0,0.018634490921455527
2324.0,0.01831727262871463
2323.0,0.018136109008649592
2322.0,0.01831727262871463
2321.0,0.018861217359339655
2320.0,0.01954210772389997
2319.0,0.019996628416253603
2318.0,0.02036058777709271
2317.0,0.02058821736556471
2316.0,0.02081596632558158
2315.0,0.020861530453190058
2314.0,0.02067930261797568
2313.0,0.020497151212598652
2312.0,0.02022406727031445
2311.0,0.01995115493504329
2310.0,0.019678413991243593
2309.0,0.01949668180660491
2308.0,0.019360432556262852
2307.0,0.019360432556262852
2306.0,0.019451260640229506
2305.0,0.019632973815224997
2304.0,0.019723858922159776
2303.0,0.019769308608968306
2302.0,0.019723858922159776
2301.0,0.019723858922159776
2300.0,0.019723858922159776
2299.0,0.019814763052665052
2298.0,0.019860222254245663
2297.0,0.01995115493504329
2296.0,0.02004210665933459
2295.0,0.020087589665283012
2294.0,0.020087589665283012
2293.0,0.02013307743509718
2292.0,0.02013307743509718
2291.0,0.020087589665283012
2290.0,0.020087589665283012
2289.0,0.02013307743509718
2288.0,0.02013307743509718
2287.0,0.02022406727031445
2286.0,0.02026956933771462
2285.0,0.020315076172974234
2284.0,0.020406104151069693
2283.0,0.02045162529590483
2282.0,0.02045162529590483
2281.0,0.02045162529590483
2280.0,0.02045162529590483
2279.0,0.020406104151069693
2278.0,0.02036058777709271
2277.0,0.020315076172974234
2276.0,0.02026956933771462
2275.0,0.02026956933771462
2274.0,0.02026956933771462
2273.0,0.02022406727031445
2272.0,0.020178569969774962
2271.0,0.02004210665933459
2270.0,0.019996628416253603
2269.0,0.01995115493504329
2268.0,0.01995115493504329
2267.0,0.01995115493504329
2266.0,0.019996628416253603
2265.0,0.02004210665933459
2264.0,0.02004210665933459
2263.0,0.02004210665933459
2262.0,0.02004210665933459
2261.0,0.019996628416253603
2260.0,0.019996628416253603
2259.0,0.019996628416253603
2258.0,0.02004210665933459
2257.0,0.020087589665283012
2256.0,0.02013307743509718
2255.0,0.020178569969774962
2254.0,0.02026956933771462
2253.0,0.020315076172974234
2252.0,0.020315076172974234
2251.0,0.020315076172974234
2250.0,0.02026956933771462
2249.0,0.02026956933771462
2248.0,0.02026956933771462
2247.0,0.02026956933771462
2246.0,0.02026956933771462
2245.0,0.02026956933771462
2244.0,0.020315076172974234
2243.0,0.020315076172974234
2242.0,0.020315076172974234
2241.0,0.020315076172974234
2240.0,0.02026956933771462
2239.0,0.02022406727031445
2238.0,0.020178569969774962
2237.0,0.02013307743509718
2236.0,0.020087589665283012
2235.0,0.02004210665933459
2234.0,0.020087589665283012
2233.0,0.02013307743509718
2232.0,0.02013307743509718
2231.0,0.020087589665283012
2230.0,0.019996628416253603
2229.0,0.01995115493504329
2228.0,0.01990568621470623
2227.0,0.01990568621470623
2226.0,0.01995115493504329
2225.0,0.02004210665933459
2224.0,0.02004210665933459
2223.0,0.02004210665933459
2222.0,0.019996628416253603
2221.0,0.01995115493504329
2220.0,0.01995115493504329
2219.0,0.01995115493504329
2218.0,0.01995115493504329
2217.0,0.01995115493504329
2216.0,0.01995115493504329
2215.0,0.01995115493504329
2214.0,0.01995115493504329
2213.0,0.01995115493504329
2212.0,0.01990568621470623
2211.0,0.019860222254245663
2210.0,0.019814763052665052
2209.0,0.019814763052665052
2208.0,0.019814763052665052
2207.0,0.019814763052665052
2206.0,0.019814763052665052
2205.0,0.019860222254245663
2204.0,0.019860222254245663
2203.0,0.019814763052665052
2202.0,0.019814763052665052
2201.0,0.019814763052665052
2200.0,0.019769308608968306
2199.0,0.019769308608968306
2198.0,0.019769308608968306
2197.0,0.019814763052665052
2196.0,0.019860222254245663
2195.0,0.01990568621470623
2194.0,0.01990568621470623
2193.0,0.01990568621470623
2192.0,0.019860222254245663
2191.0,0.019814763052665052
2190.0,0.019769308608968306
2189.0,0.019769308608968306
2188.0,0.019723858922159776
2187.0,0.019723858922159776
2186.0,0.019723858922159776
2185.0,0.019723858922159776
2184.0,0.019723858922159776
2183.0,0.019769308608968306
2182.0,0.019723858922159776
2181.0,0.019723858922159776
2180.0,0.019678413991243593
2179.0,0.019632973815224997
2178.0,0.01958753839310856
2177.0,0.01958753839310856
2176.0,0.01958753839310856
2175.0,0.019632973815224997
2174.0,0.019678413991243593
2173.0,0.019678413991243593
2172.0,0.019678413991243593
2171.0,0.019678413991243593
2170.0,0.019678413991243593
2169.0,0.019678413991243593
2168.0,0.019678413991243593
2167.0,0.019632973815224997
2166.0,0.01958753839310856
2165.0,0.01958753839310856
2164.0,0.019632973815224997
2163.0,0.019632973815224997
2162.0,0.019632973815224997
2161.0,0.019632973815224997
2160.0,0.019632973815224997
2159.0,0.019678413991243593
2158.0,0.019723858922159776
2157.0,0.019723858922159776
2156.0,0.019723858922159776
2155.0,0.019723858922159776
2154.0,0.019723858922159776
2153.0,0.019678413991243593
2152.0,0.019678413991243593
2151.0,0.019632973815224997
2150.0,0.01954210772389997
2149.0,0.01954210772389997
2148.0,0.01958753839310856
2147.0,0.019678413991243593
2146.0,0.019723858922159776
2145.0,0.019723858922159776
2144.0,0.019723858922159776
2143.0,0.019678413991243593
2142.0,0.019678413991243593
2141.0,0.019723858922159776
2140.0,0.019723858922159776
2139.0,0.019678413991243593
2138.0,0.019632973815224997
2137.0,0.01958753839310856
2136.0,0.01958753839310856
2135.0,0.01958753839310856
2134.0,0.019632973815224997
2133.0,0.019632973815224997
2132.0,0.01958753839310856
2131.0,0.01958753839310856
2130.0,0.019632973815224997
2129.0,0.019632973815224997
2128.0,0.019678413991243593
2127.0,0.019632973815224997
2126.0,0.01958753839310856
2125.0,0.01958753839310856
2124.0,0.01958753839310856
2123.0,0.019632973815224997
2122.0,0.019632973815224997
2121.0,0.019632973815224997
2120.0,0.01958753839310856
2119.0,0.01954210772389997
2118.0,0.01949668180660491
2117.0,0.01949668180660491
2116.0,0.01949668180660491
2115.0,0.01949668180660491
2114.0,0.01949668180660491
2113.0,0.01954210772389997
2112.0,0.01954210772389997
2111.0,0.01958753839310856
2110.0,0.01958753839310856
2109.0,0.01958753839310856
2108.0,0.01954210772389997
2107.0,0.01954210772389997
2106.0,0.01949668180660491
2105.0,0.01949668180660491
2104.0,0.01949668180660491
2103.0,0.01954210772389997
2102.0,0.01949668180660491
2101.0,0.01949668180660491
2100.0,0.01949668180660491
2099.0,0.01954210772389997
2098.0,0.01954210772389997
2097.0,0.01954210772389997
2096.0,0.01949668180660491
2095.0,0.01949668180660491
2094.0,0.01949668180660491
2093.0,0.01954210772389997
2092.0,0.01954210772389997
2091.0,0.01949668180660491
2090.0,0.019451260640229506
2089.0,0.01940584422377989
2088.0,0.019451260640229506
2087.0,0.019451260640229506
2086.0,0.019451260640229506
2085.0,0.01949668180660491
2084.0,0.01949668180660491
2083.0,0.01954210772389997
2082.0,0.01949668180660491
2081.0,0.01949668180660491
2080.0,0.019451260640229506
2079.0,0.019451260640229506
2078.0,0.01940584422377989
2077.0,0.01940584422377989
2076.0,0.01940584422377989
2075.0,0.01940584422377989
2074.0,0.019451260640229506
2073.0,0.01949668180660491
2072.0,0.01954210772389997
2071.0,0.01949668180660491
2070.0,0.01949668180660491
2069.0,0.019451260640229506
2068.0,0.01940584422377989
2067.0,0.019451260640229506
2066.0,0.01949668180660491
2065.0,0.01954210772389997
2064.0,0.01954210772389997
2063.0,0.01954210772389997
2062.0,0.019451260640229506
2061.0,0.01940584422377989
2060.0,0.01940584422377989
2059.0,0.01940584422377989
2058.0,0.01940584422377989
2057.0,0.01940584422377989
2056.0,0.019451260640229506
2055.0,0.01949668180660491
2054.0,0.01949668180660491
2053.0,0.01949668180660491
2052.0,0.019451260640229506
2051.0,0.01940584422377989
2050.0,0.019360432556262852
2049.0,0.019360432556262852
2048.0,0.01940584422377989
2047.0,0.019451260640229506
2046.0,0.019451260640229506
2045.0,0.019451260640229506
2044.0,0.01940584422377989
2043.0,0.01940584422377989
2042.0,0.019360432556262852
2041.0,0.019315025636685412
2040.0,0.019315025636685412
2039.0,0.019360432556262852
2038.0,0.01940584422377989
2037.0,0.019451260640229506
2036.0,0.01949668180660491
2035.0,0.01949668180660491
2034.0,0.019451260640229506
2033.0,0.01940584422377989
2032.0,0.01940584422377989
2031.0,0.01940584422377989
2030.0,0.01940584422377989
2029.0,0.01940584422377989
2028.0,0.019451260640229506
2027.0,0.01949668180660491
2026.0,0.01954210772389997
2025.0,0.01954210772389997
2024.0,0.01954210772389997
2023.0,0.01949668180660491
2022.0,0.01949668180660491
2021.0,0.01949668180660491
2020.0,0.01954210772389997
2019.0,0.01954210772389997
2018.0,0.01954210772389997
2017.0,0.01949668180660491
2016.0,0.019451260640229506
2015.0,0.019451260640229506
2014.0,0.01940584422377989
2013.0,0.01940584422377989
2012.0,0.01940584422377989
2011.0,0.019360432556262852
2010.0,0.019315025636685412
2009.0,0.019269623464054586
2008.0,0.019269623464054586
2007.0,0.019269623464054586
2006.0,0.0192242260373785
2005.0,0.0192242260373785
2004.0,0.019178833355664393
2003.0,0.019178833355664393
2002.0,0.0190880622231564
2001.0,0.019042683770379876
2000.0,0.019042683770379876
1999.0,0.019042683770379876
1998.0,0.019042683770379876
1997.0,0.019042683770379876
1996.0,0.019042683770379876
1995.0,0.01899731005860028
1994.0,0.01899731005860028
1993.0,0.019042683770379876
1992.0,0.019042683770379876
1991.0,0.01899731005860028
1990.0,0.018906576854070378
1989.0,0.018815862601645694
1988.0,0.018815862601645694
1987.0,0.018815862601645694
1986.0,0.018861217359339655
1985.0,0.018861217359339655
1984.0,0.018861217359339655
1983.0,0.018861217359339655
1982.0,0.018861217359339655
1981.0,0.018861217359339655
1980.0,0.018861217359339655
1979.0,0.018906576854070378
1978.0,0.018906576854070378
1977.0,0.018861217359339655
1976.0,0.018815862601645694
1975.0,0.018815862601645694
1974.0,0.018861217359339655
1973.0,0.018906576854070378
1972.0,0.018906576854070378
1971.0,0.018906576854070378
1970.0,0.018906576854070378
1969.0,0.018861217359339655
1968.0,0.018861217359339655
1967.0,0.018861217359339655
1966.0,0.018815862601645694
1965.0,0.018815862601645694
1964.0,0.018815862601645694
1963.0,0.018815862601645694
1962.0,0.018770512579999288
1961.0,0.018815862601645694
1960.0,0.018815862601645694
1959.0,0.018815862601645694
1958.0,0.018815862601645694
1957.0,0.018815862601645694
1956.0,0.018815862601645694
1955.0,0.018815862601645694
1954.0,0.018770512579999288
1953.0,0.018770512579999288
1952.0,0.018725167293411005
1951.0,0.018725167293411005
1950.0,0.018725167293411005
1949.0,0.018770512579999288
1948.0,0.018770512579999288
1947.0,0.018770512579999288
1946.0,0.018770512579999288
1945.0,0.018770512579999288
1944.0,0.018770512579999288
1943.0,0.018725167293411005
1942.0,0.018679826740892747
1941.0,0.018679826740892747
1940.0,0.018725167293411005
1939.0,0.018770512579999288
1938.0,0.018770512579999288
1937.0,0.018770512579999288
1936.0,0.018770512579999288
1935.0,0.018770512579999288
1934.0,0.018770512579999288
1933.0,0.018815862601645694
1932.0,0.018770512579999288
1931.0,0.018725167293411005
1930.0,0.018679826740892747
1929.0,0.018634490921455527
1928.0,0.018634490921455527
1927.0,0.018634490921455527
1926.0,0.018634490921455527
1925.0,0.018679826740892747
1924.0,0.018770512579999288
1923.0,0.018770512579999288
1922.0,0.018725167293411005
1921.0,0.018725167293411005
1920.0,0.018770512579999288
1919.0,0.018815862601645694
1918.0,0.018815862601645694
1917.0,0.018770512579999288
1916.0,0.018725167293411005
1915.0,0.018725167293411005
1914.0,0.018725167293411005
1913.0,0.018770512579999288
1912.0,0.018815862601645694
1911.0,0.018861217359339655
1910.0,0.018861217359339655
1909.0,0.018906576854070378
1908.0,0.018951941086827073
1907.0,0.018951941086827073
1906.0,0.018951941086827073
1905.0,0.01899731005860028
1904.0,0.01899731005860028
1903.0,0.01899731005860028
1902.0,0.01899731005860028
1901.0,0.01899731005860028
1900.0,0.019042683770379876
1899.0,0.019042683770379876
1898.0,0.019042683770379876
1897.0,0.0190880622231564
1896.0,0.0190880622231564
1895.0,0.0190880622231564
1894.0,0.019042683770379876
1893.0,0.019042683770379876
1892.0,0.019042683770379876
1891.0,0.019042683770379876
1890.0,0.01899731005860028
1889.0,0.01899731005860028
1888.0,0.018951941086827073
1887.0,0.018951941086827073
1886.0,0.018906576854070378
1885.0,0.018861217359339655
1884.0,0.018815862601645694
1883.0,0.018770512579999288
1882.0,0.018725167293411005
1881.0,0.018725167293411005
1880.0,0.018725167293411005
1879.0,0.018679826740892747
1878.0,0.018634490921455527
1877.0,0.018634490921455527
1876.0,0.018679826740892747
1875.0,0.018725167293411005
1874.0,0.018725167293411005
1873.0,0.018725167293411005
1872.0,0.018725167293411005
1871.0,0.018725167293411005
1870.0,0.018725167293411005
1869.0,0.018725167293411005
1868.0,0.018634490921455527
1867.0,0.018543833477873584
1866.0,0.018543833477873584
1865.0,0.01858915983411169
1864.0,0.018634490921455527
1863.0,0.01858915983411169
1862.0,0.018634490921455527
1861.0,0.018679826740892747
1860.0,0.018725167293411005
1859.0,0.018770512579999288
1858.0,0.018770512579999288
1857.0,0.018770512579999288
1856.0,0.018770512579999288
1855.0,0.018725167293411005
1854.0,0.018770512579999288
1853.0,0.018770512579999288
1852.0,0.018815862601645694
1851.0,0.018861217359339655
1850.0,0.018815862601645694
1849.0,0.018770512579999288
1848.0,0.018770512579999288
1847.0,0.018725167293411005
1846.0,0.018725167293411005
1845.0,0.018725167293411005
1844.0,0.018725167293411005
1843.0,0.018634490921455527
1842.0,0.018634490921455527
1841.0,0.018725167293411005
1840.0,0.018770512579999288
1839.0,0.018770512579999288
1838.0,0.018770512579999288
1837.0,0.018770512579999288
1836.0,0.018770512579999288
1835.0,0.018770512579999288
1834.0,0.018725167293411005
1833.0,0.018770512579999288
1832.0,0.018815862601645694
1831.0,0.018815862601645694
1830.0,0.018679826740892747
1829.0,0.018543833477873584
1828.0,0.01858915983411169
1827.0,0.018725167293411005
1826.0,0.018861217359339655
1825.0,0.018906576854070378
1824.0,0.018906576854070378
1823.0,0.018861217359339655
1822.0,0.018861217359339655
1821.0,0.018906576854070378
1820.0,0.018951941086827073
1819.0,0.018951941086827073
1818.0,0.018906576854070378
1817.0,0.018951941086827073
1816.0,0.018951941086827073
1815.0,0.018951941086827073
1814.0,0.018951941086827073
1813.0,0.018951941086827073
1812.0,0.01899731005860028
1811.0,0.018951941086827073
1810.0,0.018906576854070378
1809.0,0.018906576854070378
1808.0,0.018951941086827073
1807.0,0.01899731005860028
1806.0,0.019042683770379876
1805.0,0.0190880622231564
1804.0,0.019178833355664393
1803.0,0.0192242260373785
1802.0,0.0192242260373785
1801.0,0.019178833355664393
1800.0,0.019178833355664393
1799.0,0.0190880622231564
1798.0,0.0190880622231564
1797.0,0.019133445417920836
1796.0,0.019178833355664393
1795.0,0.019269623464054586
1794.0,0.019315025636685412
1793.0,0.019360432556262852
1792.0,0.01940584422377989
1791.0,0.019360432556262852
1790.0,0.019315025636685412
1789.0,0.019360432556262852
1788.0,0.01949668180660491
1787.0,0.01954210772389997
1786.0,0.01958753839310856
1785.0,0.01958753839310856
1784.0,0.01954210772389997
1783.0,0.01949668180660491
1782.0,0.019451260640229506
1781.0,0.01949668180660491
1780.0,0.01954210772389997
1779.0,0.01954210772389997
1778.0,0.01958753839310856
1777.0,0.019632973815224997
1776.0,0.019678413991243593
1775.0,0.019769308608968306
1774.0,0.019814763052665052
1773.0,0.019814763052665052
1772.0,0.019814763052665052
1771.0,0.019769308608968306
1770.0,0.019860222254245663
1769.0,0.02004210665933459
1768.0,0.020178569969774962
1767.0,0.02013307743509718
1766.0,0.020087589665283012
1765.0,0.020178569969774962
1764.0,0.02036058777709271
1763.0,0.020497151212598652
1762.0,0.020497151212598652
1761.0,0.020497151212598652
1760.0,0.020542681902151694
1759.0,0.02067930261797568
1758.0,0.02081596632558158
1757.0,0.020952673052035298
1756.0,0.0209982515252789
1755.0,0.021135015652343103
1754.0,0.021271822861508305
1753.0,0.021499930688540836
1752.0,0.02168250325324883
1751.0,0.021819483062586187
1750.0,0.021865152601710403
1749.0,0.021956506090037076
1748.0,0.022093572362881675
1747.0,0.0221849739168134
1746.0,0.022230681908425698
1745.0,0.022413561996148967
1744.0,0.022642270454698687
1743.0,0.02277955336461468
1742.0,0.02291687968414724
1741.0,0.023054249440757957
1740.0,0.023191662661933732
1739.0,0.023283295636617574
1738.0,0.023374947949272418
1737.0,0.02365002099672653
1736.0,0.024017056287453542
1735.0,0.024292536462819925
1734.0,0.02438440203310499
1733.0,0.024292536462819925
1732.0,0.024430342106337877
1731.0,0.024706084643793647
1730.0,0.024936003904763915
1729.0,0.02512002699306959
1728.0,0.025304128090317013
1727.0,0.02553436426275746
1726.0,0.025718641122169483
1725.0,0.025949097207122573
1724.0,0.026225806029419818
1723.0,0.026410376572743033
1722.0,0.026595025589939425
1721.0,0.026872146400301444
1720.0,0.02724191609646076
1719.0,0.027658283674251827
1718.0,0.02798240132598462
1717.0,0.028306761050139073
1716.0,0.028538594975413334
1715.0,0.028816959143838528
1714.0,0.029095501846216454
1713.0,0.029467170231675777
1712.0,0.029885677714903025
1711.0,0.03025802323714588
1710.0,0.03058408764601861
1709.0,0.030957032694186815
1708.0,0.03133029827960798
1707.0,0.03175060589208267
1706.0,0.03217132066984485
1705.0,0.03273290844021437
1704.0,0.03338901331806565
1703.0,0.03414006319292828
1702.0,0.03489241415094413
1701.0,0.03588185684851508
1700.0,0.036873558918095295
1699.0,0.037346595106788616
1698.0,0.03782014709123227
1697.0,0.03876880295533702
1696.0,0.03981472339538916
1695.0,0.040481623027001756
1694.0,0.041006334969674096
1693.0,0.0417706858116178
1692.0,0.04263219156847242
1691.0,0.0435434165901003
1690.0,0.044456557540257124
1689.0,0.04541983725624266
1688.0,0.04633693625290869
1687.0,0.047062332249019345
1686.0,0.047691990337874746
1685.0,0.04909991063361274
1684.0,0.051049389754451946
1683.0,0.05227227303668425
1682.0,0.05310580489767336
1681.0,0.054088483180726676
1680.0,0.055122694036304765
1679.0,0.05610995175152733
1678.0,0.05690137699451481
1677.0,0.05784307153250956
1676.0,0.059035506507200575
1675.0,0.06028111764589528
1674.0,0.0611301784870133
1673.0,0.061830653609679764
1672.0,0.06268275223750575
1671.0,0.06378795567975115
1670.0,0.06509774167768612
1669.0,0.06636088747507496
1668.0,0.06732334137759932
1667.0,0.0680846829187538
1666.0,0.06864384953207203
1665.0,0.06930561233546473
1664.0,0.07022356719509815
1663.0,0.07129697256940304
1662.0,0.07221915065262552
1661.0,0.0729891310243489
1660.0,0.07370901311513656
1659.0,0.07432700607875953
1658.0,0.07479107858799638
1657.0,0.07520400420208784
1656.0,0.07556563645676939
1655.0,0.07587584681417514
1654.0,0.07680780957933253
1653.0,0.07820951434181311
1652.0,0.07862570458152551
1651.0,0.07867775641617802
1650.0,0.07878187880504961
1649.0,0.07872981449018734
1648.0,0.07893810920972144
1647.0,0.07951143534170213
1646.0,0.07992887570247587
1645.0,0.08008551934056851
1644.0,0.08018997982980403
1643.0,0.08024221949810584
1642.0,0.08008551934056851
1641.0,0.07982447798997727
1640.0,0.07951143534170213
1639.0,0.07914650387874067
1638.0,0.07857365898473456
1637.0,0.07789763319239285
1636.0,0.07711890879170658
1635.0,0.07618627890881036
1634.0,0.07535895258283709
1633.0,0.07473949048056472
1632.0,0.07417242537525759
1631.0,0.07350321072677968
1630.0,0.07268097504034388
1629.0,0.07175781684269089
1628.0,0.07083661679493547
1627.0,0.07001940948448526
1626.0,0.06925467168888666
1625.0,0.0684912781333824
1624.0,0.0675769736232612
1623.0,0.06661395809694559
1622.0,0.06575411897692884
1621.0,0.06504729218214189
1620.0,0.06444235490698613
1619.0,0.06373765809652254
1618.0,0.06283329628496737
1617.0,0.061780582187257016
1616.0,0.06078036414518184
1615.0,0.06003170944866376
1614.0,0.05953332233647113
1613.0,0.05898575629443026
1612.0,0.0582898510583536
1611.0,0.05754547365752294
1610.0,0.05685187064143715
1609.0,0.056159373598738904
1608.0,0.05546797900801881
1607.0,0.05482695382609992
1606.0,0.05423607688882637
1605.0,0.053596866100945384
1604.0,0.05295859474477971
1603.0,0.05232126006306337
1602.0,0.05173378011970464
1601.0,0.05119595406718891
1600.0,0.05065879322950262
1599.0,0.050073556332087765
1598.0,0.04948910701400333
1597.0,0.048905443158337114
1596.0,0.04837110616336182
1595.0,0.047885915093007325
1594.0,0.04744970610179822
1593.0,0.04701393480294458
1592.0,0.04657860031896477
1591.0,0.046192002334692894
1590.0,0.04575749056067524
1589.0,0.04537162249272897
1588.0,0.044937930324967956
1587.0,0.04455278942230456
1586.0,0.04421607108308856
1585.0,0.04387961360698034
1584.0,0.0435434165901003
1583.0,0.04325545471730896
1582.0,0.04301563225723992
1581.0,0.04272802000705722
1580.0,0.04248848854552012
1579.0,0.04229695845116854
1578.0,0.04210551278710151
1577.0,0.04181850243505214
1576.0,0.041436116778032606
1575.0,0.041101805289228244
1574.0,0.04091088563260792
1573.0,0.04091088563260792
1572.0,0.04081545726880842
1571.0,0.04062466342415694
1570.0,0.04043395336207234
1569.0,0.0402909757535701
1568.0,0.04019568349166214
1567.0,0.04019568349166214
1566.0,0.04014804520039483
1565.0,0.0400527842915015
1564.0,0.039909932095080425
1563.0,0.03986232513620536
1562.0,0.039909932095080425
1561.0,0.039719535563357944
1560.0,0.03952922246570112
1559.0,0.03967194946985697
1558.0,0.03952922246570112
1557.0,0.03952922246570112
1556.0,0.039719535563357944
1555.0,0.039767126871487646
1554.0,0.03962436858984186
1553.0,0.03948165721929198
1552.0,0.03943409718180235
1551.0,0.03938654235209116
1550.0,0.03938654235209116
1549.0,0.03938654235209116
1548.0,0.03938654235209116
1547.0,0.03938654235209116
1546.0,0.03929144831144349
1545.0,0.03929144831144349
1544.0,0.03929144831144349
1543.0,0.03924390909822728
1542.0,0.03910132267333921
1541.0,0.038911280232103884
1540.0,0.038531444649213764
1539.0,0.03782014709123227
1538.0,0.03744126420403626
1537.0,0.037488606492403154
1536.0,0.03753595394209874
1535.0,0.03739392707587297
1534.0,0.0371100126082089
1533.0,0.036779013477011624
1532.0,0.036542739883292485
1531.0,0.036401037402758574
1530.0,0.03625938114211591
1529.0,0.036117771071222604
1528.0,0.03602339000339416
1527.0,0.03588185684851508
1526.0,0.035693217696063595
1525.0,0.03550466044490741
1524.0,0.03541041251009669
1523.0,0.03522197797762394
1522.0,0.0349394793888016
1521.0,0.03470420418834386
1520.0,0.034516075754861264
1519.0,0.03442204208947208
1518.0,0.03432802877989327
1517.0,0.03428102975577918
1516.0,0.03414006319292828
1515.0,0.033952178923546183
1514.0,0.0338113190438627
1513.0,0.03367050483612166
1512.0,0.03352973627071565
1511.0,0.03338901331806565
1510.0,0.033295223342125535
1509.0,0.0332483359486222
1508.0,0.03338901331806565
1507.0,0.0332483359486222
1506.0,0.03273290844021437
1505.0,0.03245202378113787
1504.0,0.03245202378113787
1503.0,0.03240522732811035
1502.0,0.03226486821611996
1501.0,0.03217132066984485
1500.0,0.03217132066984485
1499.0,0.032124554451966825
1498.0,0.032031037121307726
1497.0,0.031984286006358165
1496.0,0.03184406285002961
1495.0,0.03161045815293173
1494.0,0.03142366482450232
1493.0,0.03142366482450232
1492.0,0.03147035562516054
1491.0,0.03133029827960798
1490.0,0.031096969696171817
1489.0,0.031003673351687855
1488.0,0.030910397045078586
1487.0,0.03067729388779794
1486.0,0.030444315779156517
1485.0,0.030397735151460825
1484.0,0.030397735151460825
1483.0,0.03030458888152676
1482.0,0.03025802323714588
1481.0,0.030490901403433135
1480.0,0.03105031901865729
1479.0,0.032218091924200776
1478.0,0.03512779136222477
1477.0,0.041197296600497646
1476.0,0.05100054597304693
1475.0,0.06383825908884244
1474.0,0.07899019850296574
1473.0,0.09258863922541383
1472.0,0.0978882765519955
1471.0,0.09539263618455207
1470.0,0.09087205801073917
1469.0,0.0867691288864394
1468.0,0.08365134772453975
1467.0,0.08202211740709164
1466.0,0.0833881548906541
1465.0,0.08825662214406838
1464.0,0.0935572061829677
1463.0,0.09571734235437201
1462.0,0.09404230090757282
1461.0,0.08932224525729482
1460.0,0.08270459905431071
1459.0,0.07551395626608493
1458.0,0.06915280831750303
1457.0,0.06474471821595262
1456.0,0.06218131530164395
1455.0,0.06063052992534024
1454.0,0.05938391766259232
1453.0,0.05804158346918653
1452.0,0.05670338543334519
1451.0,0.055566682299785564
1450.0,0.054728418492290265
1449.0,0.05394093961487645
1448.0,0.05325306496641513
1447.0,0.05271335532220167
1446.0,0.05232126006306337
1445.0,0.05192951848105887
1444.0,0.05153812993871654
1443.0,0.051244819831730126
1442.0,0.05095170768433621
1441.0,0.05065879322950262
1440.0,0.050414848673348
1439.0,0.05021979163799939
1438.0,0.05012229596312534
1437.0,0.049927370249842395
1436.0,0.04953778109440221
1435.0,0.049148541111453614
1434.0,0.04875964967565971
1433.0,0.04837110616336182
1432.0,0.047982909952573705
1431.0,0.047643522676209304
1430.0,0.047352830241056854
1429.0,0.04701393480294458
1428.0,0.04662694927330402
1427.0,0.04633693625290869
1426.0,0.046047116768076934
1425.0,0.04570923829887308
1424.0,0.04537162249272897
1423.0,0.04513062893352182
1422.0,0.04503426894157925
1421.0,0.04488976902944808
1420.0,0.04474531717982
1419.0,0.04464904263234004
1418.0,0.04450467081587295
1417.0,0.04426415772233416
1416.0,0.04397571771932274
1415.0,0.043735497301724546
1414.0,0.043495409683302455
1413.0,0.043303435105349175
1412.0,0.04315950984076644
1411.0,0.04301563225723992
1410.0,0.04282386959515394
1409.0,0.04253638427006878
1408.0,0.042201225070002124
1407.0,0.04181850243505214
1406.0,0.041483896576958834
1405.0,0.041101805289228244
1404.0,0.040672354027829094
1403.0,0.040338629726504704
1402.0,0.0400527842915015
1401.0,0.039719535563357944
1400.0,0.039338992729018196
1399.0,0.03905380426616856
1398.0,0.038816290187564384
1397.0,0.038721320914956836
1396.0,0.038673844065289176
1395.0,0.038673844065289176
1394.0,0.03857890593355173
1393.0,0.03824678581321739
1392.0,0.03791491948264003
1391.0,0.03763066432997886
1390.0,0.03744126420403626
1389.0,0.037346595106788616
1388.0,0.037299268295658994
1387.0,0.037346595106788616
1386.0,0.03739392707587297
1385.0,0.03739392707587297
1384.0,0.03744126420403626
1383.0,0.03753595394209874
1382.0,0.03767802727041558
1381.0,0.03786753070176463
1380.0,0.03810452633214956
1379.0,0.03829421599749461
1378.0,0.038341651362284734
1377.0,0.03829421599749461
1376.0,0.038199360808321536
1375.0,0.038151940981675736
1374.0,0.038199360808321536
1373.0,0.038199360808321536
1372.0,0.038151940981675736
1371.0,0.038151940981675736
1370.0,0.038151940981675736
1369.0,0.03810452633214956
1368.0,0.03800971255993524
1367.0,0.03786753070176463
1366.0,0.03767802727041558
1365.0,0.03744126420403626
1364.0,0.037251946641359446
1363.0,0.037062711569998186
1362.0,0.03692083935817303
1361.0,0.03668448861388862
1360.0,0.03644826642590382
1359.0,0.03625938114211591
1358.0,0.03616496929785207
1357.0,0.0360705779734416
1356.0,0.03597620715996652
1355.0,0.03592902944204468
1354.0,0.03592902944204468
1353.0,0.03592902944204468
1352.0,0.03588185684851508
1351.0,0.03578752703018084
1350.0,0.035646070707806565
1349.0,0.03550466044490741
1348.0,0.03531618502395939
1347.0,0.03522197797762394
1346.0,0.03512779136222477
1345.0,0.03503362516890207
1344.0,0.03489241415094413
1343.0,0.03479829897408804
1342.0,0.03475124903287918
1341.0,0.03465716443937783
1340.0,0.03461012978487776
1339.0,0.03461012978487776
1338.0,0.03461012978487776
1337.0,0.034516075754861264
1336.0,0.03437503289075727
1335.0,0.034187046963396917
1334.0,0.03409308450480819
1333.0,0.03399914237121604
1332.0,0.033952178923546183
1331.0,0.033952178923546183
1330.0,0.033952178923546183
1329.0,0.033952178923546183
1328.0,0.033905220553829274
1327.0,0.033905220553829274
1326.0,0.033905220553829274
1325.0,0.033905220553829274
1324.0,0.033905220553829274
1323.0,0.033952178923546183
1322.0,0.034046110897937076
1321.0,0.03409308450480819
1320.0,0.034187046963396917
1319.0,0.03423403581731388
1318.0,0.03428102975577918
1317.0,0.03428102975577918
1316.0,0.03428102975577918
1315.0,0.03437503289075727
1314.0,0.034469056377139484
1313.0,0.03456310022373987
1312.0,0.03456310022373987
1311.0,0.03461012978487776
1310.0,0.03465716443937783
1309.0,0.03475124903287918
1308.0,0.03479829897408804
1307.0,0.03484535401307465
1306.0,0.03484535401307465
1305.0,0.03489241415094413
1304.0,0.03489241415094413
1303.0,0.0349394793888016
1302.0,0.03498654972775217
1301.0,0.03503362516890207
1300.0,0.03512779136222477
1299.0,0.03517488211661135
1298.0,0.03517488211661135
1297.0,0.03517488211661135
1296.0,0.03517488211661135
1295.0,0.03517488211661135
1294.0,0.03517488211661135
1293.0,0.03517488211661135
1292.0,0.03517488211661135
1291.0,0.03522197797762394
1290.0,0.03531618502395939
1289.0,0.035363296211498474
1288.0,0.03541041251009669
1287.0,0.03550466044490741
1286.0,0.03559892883726867
1285.0,0.035646070707806565
1284.0,0.035693217696063595
1283.0,0.035740369803151095
1282.0,0.03578752703018084
1281.0,0.03588185684851508
1280.0,0.03597620715996652
1279.0,0.036117771071222604
1278.0,0.03621217265444465
1277.0,0.03630659476198117
1276.0,0.036401037402758574
1275.0,0.03649550058570927
1274.0,0.03658998431977123
1273.0,0.036731748473764814
1272.0,0.036873558918095295
1271.0,0.037062711569998186
1270.0,0.037251946641359446
1269.0,0.03739392707587297
1268.0,0.03753595394209874
1267.0,0.03767802727041558
1266.0,0.03786753070176463
1265.0,0.038057116858612794
1264.0,0.03824678581321739
1263.0,0.03838909190871931
1262.0,0.038531444649213764
1261.0,0.038673844065289176
1260.0,0.03876880295533702
1259.0,0.03886378261277468
1258.0,0.038958783046687984
1257.0,0.039006291057664066
1256.0,0.03905380426616856
1255.0,0.03910132267333921
1254.0,0.03914884628031379
1253.0,0.03924390909822728
1252.0,0.03929144831144349
1251.0,0.039338992729018196
1250.0,0.03943409718180235
1249.0,0.03943409718180235
1248.0,0.03943409718180235
1247.0,0.03938654235209116
1246.0,0.03938654235209116
1245.0,0.03938654235209116
1244.0,0.03943409718180235
1243.0,0.03952922246570112
1242.0,0.03957679292217042
1241.0,0.03957679292217042
1240.0,0.03948165721929198
1239.0,0.03938654235209116
1238.0,0.039338992729018196
1237.0,0.039338992729018196
1236.0,0.039338992729018196
1235.0,0.03938654235209116
1234.0,0.03943409718180235
1233.0,0.03948165721929198
1232.0,0.03948165721929198
1231.0,0.03948165721929198
1230.0,0.03948165721929198
1229.0,0.03948165721929198
1228.0,0.03943409718180235
1227.0,0.03943409718180235
1226.0,0.03938654235209116
1225.0,0.039338992729018196
1224.0,0.03924390909822728
1223.0,0.03924390909822728
1222.0,0.03919637508823026
1221.0,0.03914884628031379
1220.0,0.03914884628031379
1219.0,0.03910132267333921
1218.0,0.03905380426616856
1217.0,0.039006291057664066
1216.0,0.039006291057664066
1215.0,0.038958783046687984
1214.0,0.038911280232103884
1213.0,0.038911280232103884
1212.0,0.03886378261277468
1211.0,0.03886378261277468
1210.0,0.038911280232103884
1209.0,0.038911280232103884
1208.0,0.038958783046687984
1207.0,0.038958783046687984
1206.0,0.03905380426616856
1205.0,0.03910132267333921
1204.0,0.03919637508823026
1203.0,0.03924390909822728
1202.0,0.039338992729018196
1201.0,0.03943409718180235
1200.0,0.03952922246570112
1199.0,0.03962436858984186
1198.0,0.039767126871487646
1197.0,0.03986232513620536
1196.0,0.03995754427315856
1195.0,0.04010041213405646
1194.0,0.040243327009005014
1193.0,0.04038628892895613
1192.0,0.040529297924893015
1191.0,0.04072004986906119
1190.0,0.041006334969674096
1189.0,0.04124505013091051
1188.0,0.04153168163305643
1187.0,0.0417706858116178
1186.0,0.04200982159316968
1185.0,0.04229695845116854
1184.0,0.042584285277331047
1183.0,0.042967683653061695
1182.0,0.0433514207947967
1181.0,0.043735497301724546
1180.0,0.04411991377462465
1179.0,0.04450467081587295
1178.0,0.044937930324967956
1177.0,0.04537162249272897
1176.0,0.04575749056067524
1175.0,0.046143701775014145
1174.0,0.046481918555007384
1173.0,0.04682039893436585
1172.0,0.04715914332429838
1171.0,0.04749815213697639
1170.0,0.047885915093007325
1169.0,0.048225491918274965
1168.0,0.04851676924770687
1167.0,0.048808242065293994
1166.0,0.049148541111453614
1165.0,0.04944043838819989
1164.0,0.04973253198641148
1163.0,0.050073556332087765
1162.0,0.05036607620073763
1161.0,0.0506099933550872
1160.0,0.050902874887084115
1159.0,0.05119595406718891
1158.0,0.05148923116234294
1157.0,0.0518316382728683
1156.0,0.05212534510230182
1155.0,0.052468254304406825
1154.0,0.05271335532220167
1153.0,0.05300765925162776
1152.0,0.05330216275425803
1151.0,0.05354773498692689
1150.0,0.05374429280060267
1149.0,0.05394093961487645
1148.0,0.05413767551038262
1147.0,0.05438372077326825
1146.0,0.05458065739693696
1145.0,0.05482695382609992
1144.0,0.05507339001378431
1143.0,0.05536929814372171
1142.0,0.05561604235915585
1141.0,0.055912320584565744
1140.0,0.056159373598738904
1139.0,0.05630767289398331
1138.0,0.05650548409389744
1137.0,0.0567528748621382
1136.0,0.057000406633959555
1135.0,0.05724807957018618
1134.0,0.05754547365752294
1133.0,0.05779345772290467
1132.0,0.05804158346918653
1131.0,0.0582898510583536
1130.0,0.058538260652670315
1129.0,0.058737090681050264
1128.0,0.058936011780097886
1127.0,0.05908526241971446
1126.0,0.05923456436878238
1125.0,0.05938391766259232
1124.0,0.05948351506743288
1123.0,0.0595831353183347
1122.0,0.05968277842578207
1121.0,0.05978244440026481
1120.0,0.05983228596592505
1119.0,0.05998184499233683
1118.0,0.060081579630943294
1117.0,0.060231224546650086
1116.0,0.06033101647767336
1115.0,0.06048074738138154
1114.0,0.06058059667068294
1113.0,0.06068046892176193
1112.0,0.060730413661268745
1111.0,0.06078036414518184
1110.0,0.06078036414518184
1109.0,0.06078036414518184
1108.0,0.06078036414518184
1107.0,0.06078036414518184
1106.0,0.06083032037482261
1105.0,0.060880282351513104
1104.0,0.06093025007657582
1103.0,0.06098022355133348
1102.0,0.06093025007657582
1101.0,0.06093025007657582
1100.0,0.060880282351513104
1099.0,0.06083032037482261
1098.0,0.06078036414518184
1097.0,0.060730413661268745
1096.0,0.06068046892176193
1095.0,0.06068046892176193
1094.0,0.060730413661268745
1093.0,0.060880282351513104
1092.0,0.0611301784870133
1091.0,0.061380218497318895
1090.0,0.06153031163235467
1089.0,0.06163040254819374
1088.0,0.06173051653708872
1087.0,0.061780582187257016
1086.0,0.061830653609679764
1085.0,0.06193081377661436
1084.0,0.06208109735221967
1083.0,0.06223143295006417
1082.0,0.062331685600995
1081.0,0.062381820606176586
1080.0,0.062331685600995
1079.0,0.06223143295006417
1078.0,0.062131203436140536
1077.0,0.06203099704854709
1076.0,0.061880730805688344
1075.0,0.061680456657844385
1074.0,0.06143024377893891
1073.0,0.0611301784870133
1072.0,0.06078036414518184
1071.0,0.06048074738138154
1070.0,0.060231224546650086
1069.0,0.060081579630943294
1068.0,0.06003170944866376
1067.0,0.05993198626064755
1066.0,0.05973260855398799
1065.0,0.05943371350990989
1064.0,0.059035506507200575
1063.0,0.05868737463933793
1062.0,0.05843887976392925
1061.0,0.0583891978463662
1060.0,0.05848856736559682
1059.0,0.05858795962645047
1058.0,0.05868737463933793
1057.0,0.05868737463933793
1056.0,0.05858795962645047
1055.0,0.05848856736559682
1054.0,0.05843887976392925
1053.0,0.05848856736559682
1052.0,0.05858795962645047
1051.0,0.05863766428823891
1050.0,0.05863766428823891
1049.0,0.05858795962645047
1048.0,0.05858795962645047
1047.0,0.058538260652670315
1046.0,0.058538260652670315
1045.0,0.05848856736559682
1044.0,0.0583395216116076
1043.0,0.058190526991161784
1042.0,0.05804158346918653
1041.0,0.05794231615860479
1040.0,0.05784307153250956
1039.0,0.057743849580535134
1038.0,0.05754547365752294
1037.0,0.0571489934456626
1036.0,0.05670338543334519
1035.0,0.05630767289398331
1034.0,0.055961719945581745
1033.0,0.055764156206519866
1032.0,0.05561604235915585
1031.0,0.05551732784983132
1030.0,0.05546797900801881
1029.0,0.05536929814372171
1028.0,0.05522131887649295
1027.0,0.0549747987575373
1026.0,0.05462990550969615
1025.0,0.05428528594013993
1024.0,0.05399011523423525
1023.0,0.05379344615721715
1022.0,0.053596866100945384
1021.0,0.053351266093323746
1020.0,0.05305672930217464
1019.0,0.05281143447390635
1018.0,0.05256627811294923
1017.0,0.05232126006306337
1016.0,0.05207638016827354
1015.0,0.05173378011970464
1014.0,0.05134256785867963
1013.0,0.05100054597304693
1012.0,0.050707598587974356
1011.0,0.050463626623857394
1010.0,0.05026854768429301
1009.0,0.04997609347667353
1008.0,0.04973253198641148
1007.0,0.04948910701400333
1006.0,0.049245818406496555
1005.0,0.04900266601119507
1004.0,0.04875964967565971
1003.0,0.04851676924770687
1002.0,0.048225491918274965
1001.0,0.04803141550708934
1000.0,0.04778894189133087
999.0,0.04754660357696672
998.0,0.047352830241056854
997.0,0.04711073508906982
996.0,0.04686877481655505
995.0,0.04662694927330402
994.0,0.04628861957244457
993.0,0.04599883231842972
992.0,0.04570923829887308
991.0,0.0454680573730859
990.0,0.04522701031028298
989.0,0.04503426894157925
988.0,0.04484161307420642
987.0,0.04464904263234004
986.0,0.04450467081587295
985.0,0.044360346976747955
984.0,0.04421607108308856
983.0,0.044071843103049346
982.0,0.04387961360698034
981.0,0.04368746915880539
980.0,0.0435434165901003
979.0,0.04344740808260106
978.0,0.0433514207947967
977.0,0.04325545471730896
976.0,0.04315950984076644
975.0,0.043063586155803746
974.0,0.043063586155803746
973.0,0.043063586155803746
972.0,0.042967683653061695
971.0,0.04287180232318688
970.0,0.04272802000705722
969.0,0.04253638427006878
968.0,0.042392712939904875
967.0,0.04229695845116854
966.0,0.042201225070002124
965.0,0.04215336629184985
964.0,0.042057664554595586
963.0,0.04196198390166317
962.0,0.04186632432376469
961.0,0.0417706858116178
960.0,0.04167506835594681
959.0,0.041627267521392675
958.0,0.041627267521392675
957.0,0.041579471947481794
956.0,0.041579471947481794
955.0,0.041579471947481794
954.0,0.041579471947481794
953.0,0.041483896576958834
952.0,0.041483896576958834
951.0,0.041483896576958834
950.0,0.041483896576958834
949.0,0.041436116778032606
948.0,0.041340572947066834
947.0,0.04124505013091051
946.0,0.04124505013091051
945.0,0.04129280891271536
944.0,0.04138834223512067
943.0,0.041436116778032606
942.0,0.04153168163305643
941.0,0.041579471947481794
940.0,0.041627267521392675
939.0,0.041627267521392675
938.0,0.041627267521392675
937.0,0.041627267521392675
936.0,0.04167506835594681
935.0,0.0417706858116178
934.0,0.04181850243505214
933.0,0.04181850243505214
932.0,0.04186632432376469
931.0,0.04186632432376469
930.0,0.04196198390166317
929.0,0.042057664554595586
928.0,0.04215336629184985
927.0,0.04224908912272074
926.0,0.04229695845116854
925.0,0.04229695845116854
924.0,0.04229695845116854
923.0,0.042344833056508824
922.0,0.04248848854552012
921.0,0.042584285277331047
920.0,0.04268010314465909
919.0,0.04282386959515394
918.0,0.04291974034210022
917.0,0.04301563225723992
916.0,0.043063586155803746
915.0,0.0431115453499229
914.0,0.04320747962950522
913.0,0.0433514207947967
912.0,0.04344740808260106
911.0,0.04359142880416744
910.0,0.043735497301724546
909.0,0.0439276630048171
908.0,0.044071843103049346
907.0,0.04421607108308856
906.0,0.044312249686494276
905.0,0.044360346976747955
904.0,0.04440844959427559
903.0,0.04440844959427559
902.0,0.04440844959427559
901.0,0.04450467081587295
900.0,0.04460091336073302
899.0,0.04469717723830824
898.0,0.044793462458058375
897.0,0.044986096961949995
896.0,0.0451788169482068
895.0,0.045323413081356456
894.0,0.04537162249272897
893.0,0.0454680573730859
892.0,0.045564513671517703
891.0,0.04575749056067524
890.0,0.04599883231842972
889.0,0.046192002334692894
888.0,0.04633693625290869
887.0,0.046481918555007384
886.0,0.04662694927330402
885.0,0.04682039893436585
884.0,0.047062332249019345
883.0,0.04730440041308315
882.0,0.047643522676209304
881.0,0.047982909952573705
880.0,0.04837110616336182
879.0,0.04875964967565971
878.0,0.04905128560059957
877.0,0.04919717703534143
876.0,0.04919717703534143
875.0,0.04905128560059957
874.0,0.048905443158337114
873.0,0.04866248120408234
872.0,0.048468209457651845
871.0,0.04832256265669943
870.0,0.04827402457540786
869.0,0.04827402457540786
868.0,0.04827402457540786
867.0,0.04837110616336182
866.0,0.048468209457651845
865.0,0.04866248120408234
864.0,0.04885683989244738
863.0,0.04900266601119507
862.0,0.04909991063361274
861.0,0.04909991063361274
860.0,0.049148541111453614
859.0,0.04919717703534143
858.0,0.04934311749548925
857.0,0.04948910701400333
856.0,0.04968383607539972
855.0,0.04982994019179987
854.0,0.04997609347667353
853.0,0.05012229596312534
852.0,0.05021979163799939
851.0,0.05026854768429301
850.0,0.050317309204795935
849.0,0.050414848673348
848.0,0.0506099933550872
847.0,0.050805225762017736
846.0,0.051098239029786274
845.0,0.05134256785867963
844.0,0.0515870342213991
843.0,0.05173378011970464
842.0,0.05173378011970464
841.0,0.051684859310652254
840.0,0.051684859310652254
839.0,0.05178270644002936
838.0,0.05188057561946402
837.0,0.05207638016827354
836.0,0.05222329153526162
835.0,0.052419250695677544
834.0,0.05256627811294923
833.0,0.05271335532220167
832.0,0.05286048235717078
831.0,0.05300765925162776
830.0,0.053203972728539606
829.0,0.053351266093323746
828.0,0.053449489430144714
827.0,0.053596866100945384
826.0,0.053842605077627725
825.0,0.05413767551038262
824.0,0.05443294655761144
823.0,0.054679159207724926
822.0,0.054876229877880656
821.0,0.05507339001378431
820.0,0.055270639696704205
819.0,0.05551732784983132
818.0,0.05571477931124735
817.0,0.05586292684190197
816.0,0.05606053552778367
815.0,0.05625823416868636
814.0,0.05650548409389744
813.0,0.05680236993107379
812.0,0.057049929922901255
811.0,0.05729763111133224
810.0,0.0575950591438934
809.0,0.05789269101064454
808.0,0.05809122563440061
807.0,0.0583395216116076
806.0,0.05858795962645047
805.0,0.058936011780097886
804.0,0.05928434309333741
803.0,0.05968277842578207
802.0,0.05998184499233683
801.0,0.060231224546650086
800.0,0.06038092104330195
799.0,0.06058059667068294
798.0,0.06083032037482261
797.0,0.06108018775522828
796.0,0.06133019897732073
795.0,0.06153031163235467
794.0,0.061780582187257016
793.0,0.06208109735221967
792.0,0.062331685600995
791.0,0.06263258248271053
790.0,0.06303410289212974
789.0,0.06348625752110681
788.0,0.06388856832514578
787.0,0.06419054619006714
786.0,0.06439198148213077
785.0,0.06459351024765114
784.0,0.06484555278383164
783.0,0.06504729218214189
782.0,0.06529959828457499
781.0,0.0655520510510299
780.0,0.06580465065211571
779.0,0.06605739725873905
778.0,0.06625970050306473
777.0,0.06656333217371957
776.0,0.06686717627326577
775.0,0.06712054217620067
774.0,0.06742477650170953
773.0,0.06772922410050963
772.0,0.0680846829187538
771.0,0.068389593637038
770.0,0.06859298644342648
769.0,0.0688982543673613
768.0,0.06930561233546473
767.0,0.06976434723371505
766.0,0.07017251876930874
765.0,0.07042782092345012
764.0,0.07068327324650436
763.0,0.07088774334533943
762.0,0.07114346641808922
761.0,0.07145053299833615
760.0,0.07175781684269089
759.0,0.07206531825882068
758.0,0.07227044022834539
757.0,0.07252697900472405
756.0,0.07278366940873537
755.0,0.0729891310243489
754.0,0.07314329105030759
753.0,0.07340034609297241
752.0,0.07370901311513656
751.0,0.07396640332115534
750.0,0.07412091069849924
749.0,0.07427547306393745
748.0,0.07448164182257
747.0,0.07463633264589853
746.0,0.07473949048056472
745.0,0.07479107858799638
744.0,0.07479107858799638
743.0,0.07473949048056472
742.0,0.07473949048056472
741.0,0.0748426728241014
740.0,0.07499749231902242
739.0,0.07494587968815725
738.0,0.0748426728241014
737.0,0.0748426728241014
736.0,0.07546228222451012
735.0,0.07753405470158659
734.0,0.08244197917456386
733.0,0.0908185240221473
732.0,0.10149421446564144
731.0,0.11120293254331926
730.0,0.1165657063169907
729.0,0.11679296664760996
728.0,0.1136220932414278
727.0,0.10969078310005154
726.0,0.10690433390377163
725.0,0.10612732120491852
724.0,0.10762709260156367
723.0,0.11193288659256306
722.0,0.1201016756699902
721.0,0.13259144347720886
720.0,0.14684956355215717
719.0,0.15795271149036205
718.0,0.1627904721987936
717.0,0.1619068615544017
716.0,0.15689185800039307
715.0,0.1493537648169334
714.0,0.1408016384661226
713.0,0.13300418688935212
712.0,0.12679569072295926
711.0,0.12211057462851604
710.0,0.11861534322942724
709.0,0.11577123036739612
708.0,0.11339648571328764
707.0,0.11137127461477392
706.0,0.10963487855187593
705.0,0.10823959854332843
704.0,0.10740457717110186
703.0,0.10679324694015202
702.0,0.1061827760325369
701.0,0.10546241500425357
700.0,0.10468797552421272
699.0,0.1038045895457893
698.0,0.10281292341984649
697.0,0.10204318999304807
696.0,0.10165883427249067
695.0,0.10160395406999112
694.0,0.10160395406999112
693.0,0.10149421446564144
692.0,0.10127481841050656
691.0,0.10083635852278117
690.0,0.10023419805561384
689.0,0.09963287134352972
688.0,0.09925064193892053
687.0,0.09903237608087578
686.0,0.09886874864462802
685.0,0.09875969792669093
684.0,0.09875969792669093
683.0,0.09881421986284966
682.0,0.09865067458435761
681.0,0.09837823590664274
680.0,0.09799710864927058
679.0,0.09745322068600859
678.0,0.09680145295702158
677.0,0.09620485725896466
676.0,0.09593394808549704
675.0,0.09598811640261173
674.0,0.0960964733098364
673.0,0.09620485725896466
672.0,0.09631326826349751
671.0,0.09674718310604158
670.0,0.09767069414168117
669.0,0.09848719087006019
668.0,0.09903237608087578
667.0,0.10067205012234592
666.0,0.10154908080162528
665.0,0.09996076451267522
664.0,0.09805153492691598
663.0,0.09718153191774648
662.0,0.09734452478207412
661.0,0.0978882765519955
660.0,0.09821485469640057
659.0,0.09794268919153337
658.0,0.09729018703012282
657.0,0.09685572959046151
656.0,0.09691001300805646
655.0,0.09701860020249709
654.0,0.09658441423091357
653.0,0.09593394808549704
652.0,0.09550084460218011
651.0,0.09539263618455207
650.0,0.09533854208447545
649.0,0.09523037409340485
648.0,0.09517630019905599
647.0,0.09523037409340485
646.0,0.09523037409340485
645.0,0.09544673702322726
644.0,0.09593394808549704
643.0,0.09658441423091357
642.0,0.09696430321150284
641.0,0.09712721455392082
640.0,0.09745322068600859
639.0,0.09821485469640057
638.0,0.09952362861074304
637.0,0.10127481841050656
636.0,0.10319830233507843
635.0,0.10452220372428545
634.0,0.10457745396059215
633.0,0.10347378251044459
632.0,0.1022080180607754
631.0,0.10127481841050656
630.0,0.1005625457138224
629.0,0.09996076451267522
628.0,0.09946901754724413
627.0,0.09930522554760213
626.0,0.09930522554760213
625.0,0.09930522554760213
624.0,0.09930522554760213
623.0,0.09941441335003853
622.0,0.09957824654226233
621.0,0.09979678698310646
620.0,0.09990609845660159
619.0,0.09996076451267522
618.0,0.10001543745060903
617.0,0.10023419805561384
616.0,0.10039834085387778
615.0,0.10034361969436434
614.0,0.10017949757290379
613.0,0.10034361969436434
612.0,0.10100072911021085
611.0,0.10187842445889239
610.0,0.10242788617426934
609.0,0.10237290870955862
608.0,0.10187842445889239
607.0,0.10094593200182911
606.0,0.09996076451267522
605.0,0.09930522554760213
604.0,0.09903237608087578
603.0,0.09892328427374508
602.0,0.09865067458435761
601.0,0.09837823590664274
600.0,0.09832376867362447
599.0,0.09854167860388774
598.0,0.09881421986284966
597.0,0.09875969792669093
596.0,0.09821485469640057
595.0,0.09745322068600859
594.0,0.09701860020249709
593.0,0.09712721455392082
592.0,0.09718153191774648
591.0,0.09642170633694569
590.0,0.09512223303659528
589.0,0.09415017335768128
588.0,0.09371884422784693
587.0,0.09307265269104414
586.0,0.0919977988274463
585.0,0.09087205801073917
584.0,0.08937559511079884
583.0,0.08608023504853413
582.0,0.08013774644446192
581.0,0.07283502570063005
580.0,0.06681652082538614
579.0,0.06343599486473406
578.0,0.06133019897732073
577.0,0.058190526991161784
576.0,0.053842605077627725
575.0,0.05075640943173498
574.0,0.05021979163799939
573.0,0.050805225762017736
572.0,0.05075640943173498
571.0,0.04973253198641148
570.0,0.047643522676209304
569.0,0.044312249686494276
568.0,0.040958607678906356
567.0,0.03924390909822728
566.0,0.03800971255993524
565.0,0.03512779136222477
564.0,0.03193753992355086
563.0,0.032311649546687526
562.0,0.03597620715996652
561.0,0.03876880295533702
560.0,0.038673844065289176
559.0,0.03753595394209874
558.0,0.03658998431977123
557.0,0.03503362516890207
556.0,0.032920265855503006
555.0,0.032124554451966825
554.0,0.0329671178412978
553.0,0.033060836978886954
552.0,0.03142366482450232
551.0,0.029560137048236124
550.0,0.028445846553939003
549.0,0.02696455931306696
548.0,0.024660115394541604
547.0,0.023329119375188556
546.0,0.023329119375188556
545.0,0.022413561996148967
544.0,0.019360432556262852
543.0,0.01596801972881945
542.0,0.014214382227394795
541.0,0.01403492169512921
540.0,0.015742798294583915
539.0,0.020497151212598652
538.0,0.026872146400301444
537.0,0.03030458888152676
536.0,0.028214062120885508
535.0,0.02227639471115217
534.0,0.015832872853011715
533.0,0.010060986715464404
532.0,0.005594853310833647
531.0,0.0038825238627120395
530.0,0.00537494623139545
529.0,0.007888512213050314
528.0,0.01001654169860089
527.0,0.013004460275618523
526.0,0.017909760704207134
525.0,0.022871099419317753
524.0,0.02562649291857677
523.0,0.02617967564731627
522.0,0.02553436426275746
521.0,0.023833499868024743
520.0,0.0211806132671577
519.0,0.019632973815224997
518.0,0.020907099361673565
517.0,0.024246610963712723
516.0,0.02724191609646076
515.0,0.028214062120885508
514.0,0.027010773144651168
513.0,0.024292536462819925
512.0,0.02159120737696063
511.0,0.020770406977844713
510.0,0.021819483062586187
509.0,0.022733787572707387
508.0,0.021910826943857264
507.0,0.01995115493504329
506.0,0.01800028587012159
505.0,0.016238439713835096
504.0,0.014977917890464765
503.0,0.015697768020096703
502.0,0.01858915983411169
501.0,0.021271822861508305
500.0,0.021499930688540836
499.0,0.01990568621470623
498.0,0.01899731005860028
497.0,0.020087589665283012
496.0,0.02255077261765881
495.0,0.02475205875931885
494.0,0.024890010313838973
493.0,0.02168250325324883
492.0,0.016013078034810446
491.0,0.010817248744452446
490.0,0.009350411681145587
489.0,0.01264661126420652
488.0,0.019451260640229506
487.0,0.026410376572743033
486.0,0.029560137048236124
485.0,0.02738066094037661
484.0,0.023329119375188556
483.0,0.021773818325474092
482.0,0.023329119375188556
481.0,0.024660115394541604
480.0,0.024246610963712723
479.0,0.024660115394541604
478.0,0.02798240132598462
477.0,0.032545631817259224
476.0,0.03508070571335731
475.0,0.03442204208947208
474.0,0.031563752288295444
473.0,0.027797161620935595
472.0,0.024522236834125355
471.0,0.023191662661933732
470.0,0.024200690320592466
469.0,0.02617967564731627
468.0,0.027612000892527133
467.0,0.02798240132598462
466.0,0.02691835039863255
465.0,0.024430342106337877
464.0,0.02227639471115217
463.0,0.023054249440757957
462.0,0.027195677663422346
461.0,0.03184406285002961
460.0,0.03385826726096752
459.0,0.03249882527715853
458.0,0.029374223311705583
457.0,0.02696455931306696
456.0,0.027843464140506313
455.0,0.0329671178412978
454.0,0.039767126871487646
453.0,0.043063586155803746
452.0,0.040243327009005014
451.0,0.033295223342125535
450.0,0.025718641122169483
