cm-1,A
4000.0,-0.0004774613744551459
3999.0,-0.0004774613744551459
3998.0,-0.00043407747931878404
3997.0,-0.0003906892499099257
3996.0,-0.0003906892499099257
3995.0,-0.0003472966853634851
3994.0,-0.00030389978481260016
3993.0,-0.0002604985473904087
3992.0,-0.0002604985473904087
3991.0,-0.0002604985473904087
3990.0,-0.0002604985473904087
3989.0,-0.00030389978481260016
3988.0,-0.0003472966853634851
3987.0,-0.00043407747931878404
3986.0,-0.0004774613744551459
3985.0,-0.0004774613744551459
3984.0,-0.00043407747931878404
3983.0,-0.0003906892499099257
3982.0,-0.0003472966853634851
3981.0,-0.0003906892499099257
3980.0,-0.0003906892499099257
3979.0,-0.0003906892499099257
3978.0,-0.00043407747931878404
3977.0,-0.00043407747931878404
3976.0,-0.0004774613744551459
3975.0,-0.0005208409361854294
3974.0,-0.0005208409361854294
3973.0,-0.00043407747931878404
3972.0,-0.0003472966853634851
3971.0,-0.00030389978481260016
3970.0,-0.0002604985473904087
3969.0,-0.0002604985473904087
3968.0,-0.00030389978481260016
3967.0,-0.0003472966853634851
3966.0,-0.0003906892499099257
3965.0,-0.0003906892499099257
3964.0,-0.0003906892499099257
3963.0,-0.00043407747931878404
3962.0,-0.0004774613744551459
3961.0,-0.0005208409361854294
3960.0,-0.0006075870628903246
3959.0,-0.0007376737740329986
3958.0,-0.0008677215312267172
3957.0,-0.0009110621312231615
3956.0,-0.0008677215312267172
3955.0,-0.0007376737740329986
3954.0,-0.0006075870628903246
3953.0,-0.0005208409361854294
3952.0,-0.0005208409361854294
3951.0,-0.0005642161653756084
3950.0,-0.0006943158663546001
3949.0,-0.0007810273534953893
3948.0,-0.0007810273534953893
3947.0,-0.0007376737740329986
3946.0,-0.0006509536295951079
3945.0,-0.0005208409361854294
3944.0,-0.0003906892499099257
3943.0,-0.0003472966853634851
3942.0,-0.0003472966853634851
3941.0,-0.0003472966853634851
3940.0,-0.0003906892499099257
3939.0,-0.0003906892499099257
3938.0,-0.0003906892499099257
3937.0,-0.0003906892499099257
3936.0,-0.0004774613744551459
3935.0,-0.0005642161653756084
3934.0,-0.0005642161653756084
3933.0,-0.0005642161653756084
3932.0,-0.0005208409361854294
3931.0,-0.0005208409361854294
3930.0,-0.0005208409361854294
3929.0,-0.0005208409361854294
3928.0,-0.0006075870628903246
3927.0,-0.0006509536295951079
3926.0,-0.0006509536295951079
3925.0,-0.0006075870628903246
3924.0,-0.0004774613744551459
3923.0,-0.0003906892499099257
3922.0,-0.0003472966853634851
3921.0,-0.0003906892499099257
3920.0,-0.00043407747931878404
3919.0,-0.00043407747931878404
3918.0,-0.00043407747931878404
3917.0,-0.0003906892499099257
3916.0,-0.00030389978481260016
3915.0,-0.0002604985473904087
3914.0,-0.0002604985473904087
3913.0,-0.00030389978481260016
3912.0,-0.0003906892499099257
3911.0,-0.00043407747931878404
3910.0,-0.00043407747931878404
3909.0,-0.0003472966853634851
3908.0,-0.00021709297223004853
3907.0,-8.685021164911433e-05
3906.0,0.0
3905.0,-4.3427276862573194e-05
3904.0,-0.00013026880522692963
3903.0,-0.0002604985473904087
3902.0,-0.0003472966853634851
3901.0,-0.00043407747931878404
3900.0,-0.00043407747931878404
3899.0,-0.00043407747931878404
3898.0,-0.00043407747931878404
3897.0,-0.00043407747931878404
3896.0,-0.00043407747931878404
3895.0,-0.0004774613744551459
3894.0,-0.0005642161653756084
3893.0,-0.0006075870628903246
3892.0,-0.0005642161653756084
3891.0,-0.0004774613744551459
3890.0,-0.00043407747931878404
3889.0,-0.0003906892499099257
3888.0,-0.00043407747931878404
3887.0,-0.0005642161653756084
3886.0,-0.0006943158663546001
3885.0,-0.0008243766056055257
3884.0,-0.0008243766056055257
3883.0,-0.0007376737740329986
3882.0,-0.0006075870628903246
3881.0,-0.0005208409361854294
3880.0,-0.0005208409361854294
3879.0,-0.0005642161653756084
3878.0,-0.0006075870628903246
3877.0,-0.0006075870628903246
3876.0,-0.0005642161653756084
3875.0,-0.0004774613744551459
3874.0,-0.0004774613744551459
3873.0,-0.0004774613744551459
3872.0,-0.0005208409361854294
3871.0,-0.0004774613744551459
3870.0,-0.0003906892499099257
3869.0,-0.0003472966853634851
3868.0,-0.00030389978481260016
3867.0,-0.00030389978481260016
3866.0,-0.0003472966853634851
3865.0,-0.0003472966853634851
3864.0,-0.0003472966853634851
3863.0,-0.0003906892499099257
3862.0,-0.00043407747931878404
3861.0,-0.00043407747931878404
3860.0,-0.00043407747931878404
3859.0,-0.00043407747931878404
3858.0,-0.00043407747931878404
3857.0,-0.00043407747931878404
3856.0,-0.0003906892499099257
3855.0,-0.0003906892499099257
3854.0,-0.0003472966853634851
3853.0,-0.0003472966853634851
3852.0,-0.0003472966853634851
3851.0,-0.00030389978481260016
3850.0,-0.00021709297223004853
3849.0,-0.00017368305846510168
3848.0,-0.00013026880522692963
3847.0,-0.00017368305846510168
3846.0,-0.00021709297223004853
3845.0,-0.00030389978481260016
3844.0,-0.0003472966853634851
3843.0,-0.0003906892499099257
3842.0,-0.0004774613744551459
3841.0,-0.0005642161653756084
3840.0,-0.0006075870628903246
3839.0,-0.0006075870628903246
3838.0,-0.0005642161653756084
3837.0,-0.0005208409361854294
3836.0,-0.0004774613744551459
3835.0,-0.0003472966853634851
3834.0,-0.00021709297223004853
3833.0,-4.3427276862573194e-05
3832.0,0.0
3831.0,0.0
3830.0,-4.3427276862573194e-05
3829.0,-8.685021164911433e-05
3828.0,-8.685021164911433e-05
3827.0,-4.3427276862573194e-05
3826.0,0.0
3825.0,0.0
3824.0,-8.685021164911433e-05
3823.0,-0.00021709297223004853
3822.0,-0.0003906892499099257
3821.0,-0.0005208409361854294
3820.0,-0.0005642161653756084
3819.0,-0.0005642161653756084
3818.0,-0.0006075870628903246
3817.0,-0.0006509536295951079
3816.0,-0.0006943158663546001
3815.0,-0.0006943158663546001
3814.0,-0.0006075870628903246
3813.0,-0.0004774613744551459
3812.0,-0.0003472966853634851
3811.0,-0.0002604985473904087
3810.0,-0.00021709297223004853
3809.0,-0.00021709297223004853
3808.0,-0.00021709297223004853
3807.0,-0.00030389978481260016
3806.0,-0.0003472966853634851
3805.0,-0.0003906892499099257
3804.0,-0.00043407747931878404
3803.0,-0.0004774613744551459
3802.0,-0.00043407747931878404
3801.0,-0.0003906892499099257
3800.0,-0.00030389978481260016
3799.0,-0.00017368305846510168
3798.0,-8.685021164911433e-05
3797.0,0.0
3796.0,0.0
3795.0,-4.3427276862573194e-05
3794.0,-0.00013026880522692963
3793.0,-0.00021709297223004853
3792.0,-0.00030389978481260016
3791.0,-0.0003472966853634851
3790.0,-0.00030389978481260016
3789.0,-0.00030389978481260016
3788.0,-0.0003472966853634851
3787.0,-0.0003472966853634851
3786.0,-0.0003472966853634851
3785.0,-0.0003472966853634851
3784.0,-0.0003906892499099257
3783.0,-0.00043407747931878404
3782.0,-0.0004774613744551459
3781.0,-0.00043407747931878404
3780.0,-0.0003472966853634851
3779.0,-0.0002604985473904087
3778.0,-0.00021709297223004853
3777.0,-0.00017368305846510168
3776.0,-0.00013026880522692963
3775.0,-0.00013026880522692963
3774.0,-0.00013026880522692963
3773.0,-0.00021709297223004853
3772.0,-0.0002604985473904087
3771.0,-0.00030389978481260016
3770.0,-0.0002604985473904087
3769.0,-0.00021709297223004853
3768.0,-0.00017368305846510168
3767.0,-0.00013026880522692963
3766.0,-8.685021164911433e-05
3765.0,-8.685021164911433e-05
3764.0,-0.00013026880522692963
3763.0,-0.00021709297223004853
3762.0,-0.0002604985473904087
3761.0,-0.0002604985473904087
3760.0,-0.0002604985473904087
3759.0,-0.0002604985473904087
3758.0,-0.0002604985473904087
3757.0,-0.0002604985473904087
3756.0,-0.0002604985473904087
3755.0,-0.0002604985473904087
3754.0,-0.0002604985473904087
3753.0,-0.00021709297223004853
3752.0,-0.00017368305846510168
3751.0,-0.00017368305846510168
3750.0,-0.00017368305846510168
3749.0,-0.00017368305846510168
3748.0,-0.00017368305846510168
3747.0,-0.00017368305846510168
3746.0,-0.00021709297223004853
3745.0,-0.0002604985473904087
3744.0,-0.00030389978481260016
3743.0,-0.0003472966853634851
3742.0,-0.0003472966853634851
3741.0,-0.0003472966853634851
3740.0,-0.0003472966853634851
3739.0,-0.0003472966853634851
3738.0,-0.00030389978481260016
3737.0,-0.00021709297223004853
3736.0,-0.00013026880522692963
3735.0,-8.685021164911433e-05
3734.0,-8.685021164911433e-05
3733.0,-0.00013026880522692963
3732.0,-0.00017368305846510168
3731.0,-0.00021709297223004853
3730.0,-0.0002604985473904087
3729.0,-0.00030389978481260016
3728.0,-0.0003472966853634851
3727.0,-0.0003906892499099257
3726.0,-0.00043407747931878404
3725.0,-0.0005208409361854294
3724.0,-0.0005642161653756084
3723.0,-0.0005642161653756084
3722.0,-0.0005208409361854294
3721.0,-0.0004774613744551459
3720.0,-0.0004774613744551459
3719.0,-0.0004774613744551459
3718.0,-0.00043407747931878404
3717.0,-0.00043407747931878404
3716.0,-0.00043407747931878404
3715.0,-0.0003906892499099257
3714.0,-0.0003472966853634851
3713.0,-0.0002604985473904087
3712.0,-0.00021709297223004853
3711.0,-0.00017368305846510168
3710.0,-0.00017368305846510168
3709.0,-0.00013026880522692963
3708.0,-0.00017368305846510168
3707.0,-0.00017368305846510168
3706.0,-0.00013026880522692963
3705.0,-8.685021164911433e-05
3704.0,0.0
3703.0,0.0
3702.0,-4.3427276862573194e-05
3701.0,-0.00017368305846510168
3700.0,-0.00021709297223004853
3699.0,-0.00021709297223004853
3698.0,-0.00017368305846510168
3697.0,-8.685021164911433e-05
3696.0,-4.3427276862573194e-05
3695.0,-8.685021164911433e-05
3694.0,-0.00013026880522692963
3693.0,-0.00017368305846510168
3692.0,-0.00021709297223004853
3691.0,-0.00021709297223004853
3690.0,-0.0002604985473904087
3689.0,-0.00030389978481260016
3688.0,-0.00030389978481260016
3687.0,-0.00030389978481260016
3686.0,-0.00030389978481260016
3685.0,-0.0003472966853634851
3684.0,-0.0003906892499099257
3683.0,-0.0003906892499099257
3682.0,-0.0003906892499099257
3681.0,-0.0003906892499099257
3680.0,-0.0003906892499099257
3679.0,-0.0003906892499099257
3678.0,-0.00043407747931878404
3677.0,-0.0004774613744551459
3676.0,-0.0005208409361854294
3675.0,-0.0004774613744551459
3674.0,-0.00043407747931878404
3673.0,-0.0003472966853634851
3672.0,-0.00021709297223004853
3671.0,-8.685021164911433e-05
3670.0,-4.3427276862573194e-05
3669.0,-4.3427276862573194e-05
3668.0,-8.685021164911433e-05
3667.0,-8.685021164911433e-05
3666.0,-4.3427276862573194e-05
3665.0,0.0
3664.0,8.686758342868472e-05
3663.0,0.00017375254558760211
3662.0,0.00021720154586435392
3661.0,0.00021720154586435392
3660.0,0.0001303078917322953
3659.0,0.0
3658.0,-8.685021164911433e-05
3657.0,-8.685021164911433e-05
3656.0,-4.3427276862573194e-05
3655.0,0.0
3654.0,0.0
3653.0,-4.3427276862573194e-05
3652.0,-0.00017368305846510168
3651.0,-0.00030389978481260016
3650.0,-0.0003906892499099257
3649.0,-0.0004774613744551459
3648.0,-0.0005208409361854294
3647.0,-0.0004774613744551459
3646.0,-0.0003906892499099257
3645.0,-0.0002604985473904087
3644.0,-0.00017368305846510168
3643.0,-0.00013026880522692963
3642.0,-8.685021164911433e-05
3641.0,-4.3427276862573194e-05
3640.0,4.343161980746579e-05
3639.0,8.686758342868472e-05
3638.0,8.686758342868472e-05
3637.0,4.343161980746579e-05
3636.0,0.0
3635.0,-8.685021164911433e-05
3634.0,-0.00013026880522692963
3633.0,-0.00017368305846510168
3632.0,-0.00021709297223004853
3631.0,-0.0002604985473904087
3630.0,-0.0002604985473904087
3629.0,-0.0002604985473904087
3628.0,-0.00021709297223004853
3627.0,-0.00017368305846510168
3626.0,-0.00017368305846510168
3625.0,-0.00017368305846510168
3624.0,-0.00017368305846510168
3623.0,-0.00013026880522692963
3622.0,-0.00013026880522692963
3621.0,-0.00013026880522692963
3620.0,-0.00013026880522692963
3619.0,-0.00017368305846510168
3618.0,-0.00030389978481260016
3617.0,-0.00043407747931878404
3616.0,-0.0005208409361854294
3615.0,-0.0005642161653756084
3614.0,-0.0005208409361854294
3613.0,-0.00043407747931878404
3612.0,-0.00030389978481260016
3611.0,-0.00017368305846510168
3610.0,-0.00013026880522692963
3609.0,-0.00013026880522692963
3608.0,-0.00021709297223004853
3607.0,-0.0003472966853634851
3606.0,-0.0003906892499099257
3605.0,-0.0003472966853634851
3604.0,-0.00021709297223004853
3603.0,-8.685021164911433e-05
3602.0,4.343161980746579e-05
3601.0,8.686758342868472e-05
3600.0,4.343161980746579e-05
3599.0,-4.3427276862573194e-05
3598.0,-0.00017368305846510168
3597.0,-0.0002604985473904087
3596.0,-0.0003472966853634851
3595.0,-0.0003906892499099257
3594.0,-0.0003906892499099257
3593.0,-0.0003906892499099257
3592.0,-0.0003906892499099257
3591.0,-0.0003906892499099257
3590.0,-0.0003906892499099257
3589.0,-0.0003906892499099257
3588.0,-0.00043407747931878404
3587.0,-0.00043407747931878404
3586.0,-0.00043407747931878404
3585.0,-0.00030389978481260016
3584.0,-0.00021709297223004853
3583.0,-8.685021164911433e-05
3582.0,-4.3427276862573194e-05
3581.0,-0.00013026880522692963
3580.0,-0.0002604985473904087
3579.0,-0.0003472966853634851
3578.0,-0.0003472966853634851
3577.0,-0.0002604985473904087
3576.0,-0.00017368305846510168
3575.0,-0.00017368305846510168
3574.0,-0.00021709297223004853
3573.0,-0.00030389978481260016
3572.0,-0.0003906892499099257
3571.0,-0.0004774613744551459
3570.0,-0.0005208409361854294
3569.0,-0.0004774613744551459
3568.0,-0.0003472966853634851
3567.0,-0.00021709297223004853
3566.0,-0.00013026880522692963
3565.0,-0.00013026880522692963
3564.0,-0.00013026880522692963
3563.0,-0.00017368305846510168
3562.0,-0.00021709297223004853
3561.0,-0.0002604985473904087
3560.0,-0.00030389978481260016
3559.0,-0.00030389978481260016
3558.0,-0.0002604985473904087
3557.0,-0.00021709297223004853
3556.0,-0.00021709297223004853
3555.0,-0.00021709297223004853
3554.0,-0.00021709297223004853
3553.0,-0.0002604985473904087
3552.0,-0.00030389978481260016
3551.0,-0.0003472966853634851
3550.0,-0.0003472966853634851
3549.0,-0.00030389978481260016
3548.0,-0.00021709297223004853
3547.0,-0.00017368305846510168
3546.0,-0.00017368305846510168
3545.0,-0.00021709297223004853
3544.0,-0.0002604985473904087
3543.0,-0.00030389978481260016
3542.0,-0.0002604985473904087
3541.0,-0.0002604985473904087
3540.0,-0.0002604985473904087
3539.0,-0.00030389978481260016
3538.0,-0.0003472966853634851
3537.0,-0.0003472966853634851
3536.0,-0.0002604985473904087
3535.0,-0.00017368305846510168
3534.0,-0.00013026880522692963
3533.0,-8.685021164911433e-05
3532.0,-8.685021164911433e-05
3531.0,-8.685021164911433e-05
3530.0,-0.00013026880522692963
3529.0,-0.00017368305846510168
3528.0,-0.00017368305846510168
3527.0,-0.00021709297223004853
3526.0,-0.00021709297223004853
3525.0,-0.00021709297223004853
3524.0,-0.00013026880522692963
3523.0,-8.685021164911433e-05
3522.0,-4.3427276862573194e-05
3521.0,-4.3427276862573194e-05
3520.0,-0.00013026880522692963
3519.0,-0.0002604985473904087
3518.0,-0.0003472966853634851
3517.0,-0.00043407747931878404
3516.0,-0.00043407747931878404
3515.0,-0.0003906892499099257
3514.0,-0.0002604985473904087
3513.0,-0.00017368305846510168
3512.0,-0.00013026880522692963
3511.0,-8.685021164911433e-05
3510.0,0.0
3509.0,4.343161980746579e-05
3508.0,4.343161980746579e-05
3507.0,-8.685021164911433e-05
3506.0,-0.0002604985473904087
3505.0,-0.0005208409361854294
3504.0,-0.0007376737740329986
3503.0,-0.0007810273534953893
3502.0,-0.0006509536295951079
3501.0,-0.0004774613744551459
3500.0,-0.0003906892499099257
3499.0,-0.0003472966853634851
3498.0,-0.0003906892499099257
3497.0,-0.0003906892499099257
3496.0,-0.0003472966853634851
3495.0,-0.0002604985473904087
3494.0,-0.00017368305846510168
3493.0,-0.00013026880522692963
3492.0,-0.00017368305846510168
3491.0,-0.0002604985473904087
3490.0,-0.0003906892499099257
3489.0,-0.0004774613744551459
3488.0,-0.00043407747931878404
3487.0,-0.0003472966853634851
3486.0,-0.00030389978481260016
3485.0,-0.00030389978481260016
3484.0,-0.00030389978481260016
3483.0,-0.00030389978481260016
3482.0,-0.0002604985473904087
3481.0,-0.00017368305846510168
3480.0,-0.00013026880522692963
3479.0,-0.00013026880522692963
3478.0,-0.00013026880522692963
3477.0,-0.00013026880522692963
3476.0,-0.00013026880522692963
3475.0,-8.685021164911433e-05
3474.0,-8.685021164911433e-05
3473.0,-8.685021164911433e-05
3472.0,-8.685021164911433e-05
3471.0,-0.00013026880522692963
3470.0,-0.00017368305846510168
3469.0,-0.00021709297223004853
3468.0,-0.00030389978481260016
3467.0,-0.0003472966853634851
3466.0,-0.0003472966853634851
3465.0,-0.0002604985473904087
3464.0,-0.00021709297223004853
3463.0,-0.00017368305846510168
3462.0,-0.00013026880522692963
3461.0,-0.00013026880522692963
3460.0,-0.00017368305846510168
3459.0,-0.00017368305846510168
3458.0,-0.0002604985473904087
3457.0,-0.00030389978481260016
3456.0,-0.00030389978481260016
3455.0,-0.00030389978481260016
3454.0,-0.00021709297223004853
3453.0,-8.685021164911433e-05
3452.0,0.0
3451.0,0.0
3450.0,-0.00013026880522692963
3449.0,-0.0003472966853634851
3448.0,-0.00043407747931878404
3447.0,-0.0004774613744551459
3446.0,-0.0004774613744551459
3445.0,-0.00043407747931878404
3444.0,-0.0003906892499099257
3443.0,-0.0003906892499099257
3442.0,-0.0003472966853634851
3441.0,-0.00030389978481260016
3440.0,-0.00030389978481260016
3439.0,-0.0002604985473904087
3438.0,-0.00021709297223004853
3437.0,-0.00017368305846510168
3436.0,-4.3427276862573194e-05
3435.0,8.686758342868472e-05
3434.0,0.00017375254558760211
3433.0,0.00017375254558760211
3432.0,0.0001303078917322953
3431.0,0.0
3430.0,-8.685021164911433e-05
3429.0,-4.3427276862573194e-05
3428.0,4.343161980746579e-05
3427.0,0.00017375254558760211
3426.0,0.00021720154586435392
3425.0,0.00017375254558760211
3424.0,8.686758342868472e-05
3423.0,0.0
3422.0,-8.685021164911433e-05
3421.0,-8.685021164911433e-05
3420.0,-8.685021164911433e-05
3419.0,-4.3427276862573194e-05
3418.0,0.0
3417.0,0.0
3416.0,-4.3427276862573194e-05
3415.0,-8.685021164911433e-05
3414.0,-8.685021164911433e-05
3413.0,-8.685021164911433e-05
3412.0,-0.00017368305846510168
3411.0,-0.0002604985473904087
3410.0,-0.0003472966853634851
3409.0,-0.00043407747931878404
3408.0,-0.00043407747931878404
3407.0,-0.0003472966853634851
3406.0,-0.00021709297223004853
3405.0,-0.00013026880522692963
3404.0,-0.00013026880522692963
3403.0,-0.00017368305846510168
3402.0,-0.0002604985473904087
3401.0,-0.00030389978481260016
3400.0,-0.00030389978481260016
3399.0,-0.0002604985473904087
3398.0,-0.00017368305846510168
3397.0,-0.00013026880522692963
3396.0,-0.00013026880522692963
3395.0,-0.00021709297223004853
3394.0,-0.00030389978481260016
3393.0,-0.0003906892499099257
3392.0,-0.00043407747931878404
3391.0,-0.00043407747931878404
3390.0,-0.0003906892499099257
3389.0,-0.0003472966853634851
3388.0,-0.00030389978481260016
3387.0,-0.00030389978481260016
3386.0,-0.0002604985473904087
3385.0,-0.00021709297223004853
3384.0,-0.00021709297223004853
3383.0,-0.0002604985473904087
3382.0,-0.00030389978481260016
3381.0,-0.0002604985473904087
3380.0,-0.00021709297223004853
3379.0,-8.685021164911433e-05
3378.0,4.343161980746579e-05
3377.0,8.686758342868472e-05
3376.0,8.686758342868472e-05
3375.0,8.686758342868472e-05
3374.0,4.343161980746579e-05
3373.0,4.343161980746579e-05
3372.0,0.0
3371.0,-4.3427276862573194e-05
3370.0,-0.00017368305846510168
3369.0,-0.00021709297223004853
3368.0,-0.0002604985473904087
3367.0,-0.00021709297223004853
3366.0,-0.00017368305846510168
3365.0,-0.00017368305846510168
3364.0,-0.00017368305846510168
3363.0,-0.00013026880522692963
3362.0,-8.685021164911433e-05
3361.0,0.0
3360.0,8.686758342868472e-05
3359.0,4.343161980746579e-05
3358.0,0.0
3357.0,-4.3427276862573194e-05
3356.0,-4.3427276862573194e-05
3355.0,-4.3427276862573194e-05
3354.0,-4.3427276862573194e-05
3353.0,-8.685021164911433e-05
3352.0,-8.685021164911433e-05
3351.0,-0.00013026880522692963
3350.0,-0.00013026880522692963
3349.0,-0.00013026880522692963
3348.0,-8.685021164911433e-05
3347.0,-4.3427276862573194e-05
3346.0,0.0
3345.0,4.343161980746579e-05
3344.0,0.0
3343.0,0.0
3342.0,-4.3427276862573194e-05
3341.0,-8.685021164911433e-05
3340.0,-0.00013026880522692963
3339.0,-0.00013026880522692963
3338.0,-8.685021164911433e-05
3337.0,-8.685021164911433e-05
3336.0,-4.3427276862573194e-05
3335.0,-4.3427276862573194e-05
3334.0,-8.685021164911433e-05
3333.0,-8.685021164911433e-05
3332.0,-0.00013026880522692963
3331.0,-0.00013026880522692963
3330.0,-0.00017368305846510168
3329.0,-0.00021709297223004853
3328.0,-0.00030389978481260016
3327.0,-0.00030389978481260016
3326.0,-0.0002604985473904087
3325.0,-0.00017368305846510168
3324.0,-8.685021164911433e-05
3323.0,-8.685021164911433e-05
3322.0,-8.685021164911433e-05
3321.0,-4.3427276862573194e-05
3320.0,0.0
3319.0,0.0
3318.0,4.343161980746579e-05
3317.0,8.686758342868472e-05
3316.0,0.0001303078917322953
3315.0,0.0001303078917322953
3314.0,8.686758342868472e-05
3313.0,-4.3427276862573194e-05
3312.0,-0.00013026880522692963
3311.0,-0.00017368305846510168
3310.0,-0.0002604985473904087
3309.0,-0.00030389978481260016
3308.0,-0.0003472966853634851
3307.0,-0.0003472966853634851
3306.0,-0.0003472966853634851
3305.0,-0.0003472966853634851
3304.0,-0.00030389978481260016
3303.0,-0.00021709297223004853
3302.0,-8.685021164911433e-05
3301.0,0.0
3300.0,8.686758342868472e-05
3299.0,0.0001303078917322953
3298.0,0.0001303078917322953
3297.0,8.686758342868472e-05
3296.0,-4.3427276862573194e-05
3295.0,-0.00013026880522692963
3294.0,-0.00021709297223004853
3293.0,-0.00017368305846510168
3292.0,-8.685021164911433e-05
3291.0,4.343161980746579e-05
3290.0,8.686758342868472e-05
3289.0,8.686758342868472e-05
3288.0,0.0
3287.0,-0.00013026880522692963
3286.0,-0.0002604985473904087
3285.0,-0.00030389978481260016
3284.0,-0.00030389978481260016
3283.0,-0.0002604985473904087
3282.0,-0.0002604985473904087
3281.0,-0.0002604985473904087
3280.0,-0.00030389978481260016
3279.0,-0.0002604985473904087
3278.0,-0.00021709297223004853
3277.0,-0.00021709297223004853
3276.0,-0.0002604985473904087
3275.0,-0.0003472966853634851
3274.0,-0.0003906892499099257
3273.0,-0.0003472966853634851
3272.0,-0.0002604985473904087
3271.0,-0.00013026880522692963
3270.0,-8.685021164911433e-05
3269.0,-8.685021164911433e-05
3268.0,-4.3427276862573194e-05
3267.0,-4.3427276862573194e-05
3266.0,0.0
3265.0,8.686758342868472e-05
3264.0,0.00021720154586435392
3263.0,0.00030411258916074324
3262.0,0.00030411258916074324
3261.0,0.00021720154586435392
3260.0,4.343161980746579e-05
3259.0,-4.3427276862573194e-05
3258.0,-0.00013026880522692963
3257.0,-8.685021164911433e-05
3256.0,0.0
3255.0,0.0001303078917322953
3254.0,0.00026065489343207737
3253.0,0.0003475746339209884
3252.0,0.0003475746339209884
3251.0,0.00021720154586435392
3250.0,0.0001303078917322953
3249.0,8.686758342868472e-05
3248.0,4.343161980746579e-05
3247.0,0.0
3246.0,-8.685021164911433e-05
3245.0,-0.00017368305846510168
3244.0,-0.00017368305846510168
3243.0,-0.00017368305846510168
3242.0,-0.00017368305846510168
3241.0,-0.00017368305846510168
3240.0,-0.00013026880522692963
3239.0,-0.00013026880522692963
3238.0,-0.00013026880522692963
3237.0,-0.00013026880522692963
3236.0,-0.00013026880522692963
3235.0,-0.00013026880522692963
3234.0,-8.685021164911433e-05
3233.0,-4.3427276862573194e-05
3232.0,0.0
3231.0,0.0001303078917322953
3230.0,0.00021720154586435392
3229.0,0.00026065489343207737
3228.0,0.00021720154586435392
3227.0,0.0001303078917322953
3226.0,4.343161980746579e-05
3225.0,4.343161980746579e-05
3224.0,0.0
3223.0,-4.3427276862573194e-05
3222.0,-0.00013026880522692963
3221.0,-0.00021709297223004853
3220.0,-0.0002604985473904087
3219.0,-0.00017368305846510168
3218.0,-8.685021164911433e-05
3217.0,-4.3427276862573194e-05
3216.0,-8.685021164911433e-05
3215.0,-0.00021709297223004853
3214.0,-0.0003472966853634851
3213.0,-0.00043407747931878404
3212.0,-0.00043407747931878404
3211.0,-0.0003472966853634851
3210.0,-0.00013026880522692963
3209.0,4.343161980746579e-05
3208.0,0.00017375254558760211
3207.0,0.00021720154586435392
3206.0,0.00026065489343207737
3205.0,0.00030411258916074324
3204.0,0.00026065489343207737
3203.0,0.00021720154586435392
3202.0,0.0
3201.0,-0.00017368305846510168
3200.0,-0.00030389978481260016
3199.0,-0.0002604985473904087
3198.0,-0.00013026880522692963
3197.0,0.0
3196.0,4.343161980746579e-05
3195.0,4.343161980746579e-05
3194.0,0.0
3193.0,-4.3427276862573194e-05
3192.0,-0.00013026880522692963
3191.0,-0.00017368305846510168
3190.0,-0.00017368305846510168
3189.0,-4.3427276862573194e-05
3188.0,0.0
3187.0,0.0
3186.0,-4.3427276862573194e-05
3185.0,-4.3427276862573194e-05
3184.0,0.0
3183.0,4.343161980746579e-05
3182.0,4.343161980746579e-05
3181.0,4.343161980746579e-05
3180.0,0.0
3179.0,4.343161980746579e-05
3178.0,0.00017375254558760211
3177.0,0.0003475746339209884
3176.0,0.0003910410285830057
3175.0,0.0003910410285830057
3174.0,0.00026065489343207737
3173.0,0.0001303078917322953
3172.0,4.343161980746579e-05
3171.0,-4.3427276862573194e-05
3170.0,-4.3427276862573194e-05
3169.0,-8.685021164911433e-05
3168.0,-0.00013026880522692963
3167.0,-0.00017368305846510168
3166.0,-0.00013026880522692963
3165.0,-4.3427276862573194e-05
3164.0,4.343161980746579e-05
3163.0,4.343161980746579e-05
3162.0,0.0
3161.0,-8.685021164911433e-05
3160.0,-0.00013026880522692963
3159.0,-8.685021164911433e-05
3158.0,4.343161980746579e-05
3157.0,0.00017375254558760211
3156.0,0.00026065489343207737
3155.0,0.00030411258916074324
3154.0,0.00030411258916074324
3153.0,0.00026065489343207737
3152.0,0.00021720154586435392
3151.0,0.00021720154586435392
3150.0,0.00021720154586435392
3149.0,0.00021720154586435392
3148.0,0.00017375254558760211
3147.0,0.0001303078917322953
3146.0,8.686758342868472e-05
3145.0,0.0
3144.0,-8.685021164911433e-05
3143.0,-0.00013026880522692963
3142.0,-0.00013026880522692963
3141.0,-0.00013026880522692963
3140.0,-8.685021164911433e-05
3139.0,-0.00013026880522692963
3138.0,-0.00013026880522692963
3137.0,-0.00013026880522692963
3136.0,-8.685021164911433e-05
3135.0,-4.3427276862573194e-05
3134.0,0.0
3133.0,8.686758342868472e-05
3132.0,0.0001303078917322953
3131.0,0.0001303078917322953
3130.0,8.686758342868472e-05
3129.0,8.686758342868472e-05
3128.0,8.686758342868472e-05
3127.0,8.686758342868472e-05
3126.0,8.686758342868472e-05
3125.0,8.686758342868472e-05
3124.0,0.0001303078917322953
3123.0,0.00021720154586435392
3122.0,0.0003475746339209884
3121.0,0.0004779868710962365
3120.0,0.000521466320689834
3119.0,0.000521466320689834
3118.0,0.0004779868710962365
3117.0,0.0003910410285830057
3116.0,0.00030411258916074324
3115.0,0.00021720154586435392
3114.0,0.0001303078917322953
3113.0,0.0001303078917322953
3112.0,0.00017375254558760211
3111.0,0.00021720154586435392
3110.0,0.00026065489343207737
3109.0,0.00026065489343207737
3108.0,0.00026065489343207737
3107.0,0.00026065489343207737
3106.0,0.00021720154586435392
3105.0,0.00026065489343207737
3104.0,0.00021720154586435392
3103.0,0.00021720154586435392
3102.0,0.00021720154586435392
3101.0,0.00021720154586435392
3100.0,0.00021720154586435392
3099.0,0.00021720154586435392
3098.0,0.00026065489343207737
3097.0,0.00030411258916074324
3096.0,0.00030411258916074324
3095.0,0.00030411258916074324
3094.0,0.00030411258916074324
3093.0,0.00030411258916074324
3092.0,0.00030411258916074324
3091.0,0.00030411258916074324
3090.0,0.00030411258916074324
3089.0,0.00026065489343207737
3088.0,0.00021720154586435392
3087.0,0.00021720154586435392
3086.0,0.00021720154586435392
3085.0,0.00026065489343207737
3084.0,0.00026065489343207737
3083.0,0.00030411258916074324
3082.0,0.0003475746339209884
3081.0,0.0003910410285830057
3080.0,0.0003910410285830057
3079.0,0.00030411258916074324
3078.0,0.00017375254558760211
3077.0,0.0001303078917322953
3076.0,0.0001303078917322953
3075.0,0.00017375254558760211
3074.0,0.00026065489343207737
3073.0,0.0003475746339209884
3072.0,0.0003910410285830057
3071.0,0.0003475746339209884
3070.0,0.00026065489343207737
3069.0,0.00017375254558760211
3068.0,0.0001303078917322953
3067.0,0.00017375254558760211
3066.0,0.00021720154586435392
3065.0,0.00026065489343207737
3064.0,0.0003475746339209884
3063.0,0.00043451177401765406
3062.0,0.0004779868710962365
3061.0,0.000521466320689834
3060.0,0.000521466320689834
3059.0,0.0004779868710962365
3058.0,0.0003910410285830057
3057.0,0.0003910410285830057
3056.0,0.0003910410285830057
3055.0,0.0003910410285830057
3054.0,0.0003910410285830057
3053.0,0.0003475746339209884
3052.0,0.0003475746339209884
3051.0,0.0003475746339209884
3050.0,0.0003475746339209884
3049.0,0.0003475746339209884
3048.0,0.00030411258916074324
3047.0,0.00026065489343207737
3046.0,0.00026065489343207737
3045.0,0.0003475746339209884
3044.0,0.0003910410285830057
3043.0,0.00043451177401765406
3042.0,0.0004779868710962365
3041.0,0.0004779868710962365
3040.0,0.00043451177401765406
3039.0,0.0003910410285830057
3038.0,0.0003910410285830057
3037.0,0.0003910410285830057
3036.0,0.0004779868710962365
3035.0,0.000521466320689834
3034.0,0.0005649501236701937
3033.0,0.0006084382809090627
3032.0,0.0006084382809090627
3031.0,0.0006084382809090627
3030.0,0.0005649501236701937
3029.0,0.000521466320689834
3028.0,0.000521466320689834
3027.0,0.000521466320689834
3026.0,0.000521466320689834
3025.0,0.000521466320689834
3024.0,0.000521466320689834
3023.0,0.000521466320689834
3022.0,0.00043451177401765406
3021.0,0.0003475746339209884
3020.0,0.00026065489343207737
3019.0,0.00017375254558760211
3018.0,0.00017375254558760211
3017.0,0.00017375254558760211
3016.0,0.00017375254558760211
3015.0,0.00021720154586435392
3014.0,0.00026065489343207737
3013.0,0.00030411258916074324
3012.0,0.0003910410285830057
3011.0,0.00043451177401765406
3010.0,0.0004779868710962365
3009.0,0.0004779868710962365
3008.0,0.00043451177401765406
3007.0,0.0003910410285830057
3006.0,0.00030411258916074324
3005.0,0.00026065489343207737
3004.0,0.00026065489343207737
3003.0,0.00026065489343207737
3002.0,0.00026065489343207737
3001.0,0.00026065489343207737
3000.0,0.00021720154586435392
2999.0,0.00017375254558760211
2998.0,0.00017375254558760211
2997.0,0.00021720154586435392
2996.0,0.00026065489343207737
2995.0,0.00030411258916074324
2994.0,0.00030411258916074324
2993.0,0.00026065489343207737
2992.0,0.00030411258916074324
2991.0,0.0003475746339209884
2990.0,0.0003910410285830057
2989.0,0.00043451177401765406
2988.0,0.00043451177401765406
2987.0,0.0004779868710962365
2986.0,0.000521466320689834
2985.0,0.0005649501236701937
2984.0,0.0006084382809090627
2983.0,0.0005649501236701937
2982.0,0.000521466320689834
2981.0,0.0004779868710962365
2980.0,0.00043451177401765406
2979.0,0.0004779868710962365
2978.0,0.0004779868710962365
2977.0,0.00043451177401765406
2976.0,0.00043451177401765406
2975.0,0.0003910410285830057
2974.0,0.0003910410285830057
2973.0,0.0003910410285830057
2972.0,0.0003910410285830057
2971.0,0.0003910410285830057
2970.0,0.0003910410285830057
2969.0,0.0003475746339209884
2968.0,0.0003475746339209884
2967.0,0.00030411258916074324
2966.0,0.00026065489343207737
2965.0,0.00021720154586435392
2964.0,0.00017375254558760211
2963.0,0.00017375254558760211
2962.0,0.00021720154586435392
2961.0,0.00026065489343207737
2960.0,0.00026065489343207737
2959.0,0.00026065489343207737
2958.0,0.00026065489343207737
2957.0,0.00030411258916074324
2956.0,0.0003475746339209884
2955.0,0.0003475746339209884
2954.0,0.0003475746339209884
2953.0,0.0003475746339209884
2952.0,0.0003475746339209884
2951.0,0.0003475746339209884
2950.0,0.0003475746339209884
2949.0,0.0003910410285830057
2948.0,0.0004779868710962365
2947.0,0.0005649501236701937
2946.0,0.0005649501236701937
2945.0,0.000521466320689834
2944.0,0.0004779868710962365
2943.0,0.0004779868710962365
2942.0,0.0004779868710962365
2941.0,0.000521466320689834
2940.0,0.000521466320689834
2939.0,0.0004779868710962365
2938.0,0.00043451177401765406
2937.0,0.0003475746339209884
2936.0,0.00030411258916074324
2935.0,0.0003475746339209884
2934.0,0.0003475746339209884
2933.0,0.0003910410285830057
2932.0,0.00043451177401765406
2931.0,0.0004779868710962365
2930.0,0.0005649501236701937
2929.0,0.0006084382809090627
2928.0,0.0006084382809090627
2927.0,0.0006519307932786322
2926.0,0.0006084382809090627
2925.0,0.0005649501236701937
2924.0,0.0005649501236701937
2923.0,0.000521466320689834
2922.0,0.000521466320689834
2921.0,0.000521466320689834
2920.0,0.000521466320689834
2919.0,0.0006084382809090627
2918.0,0.0006519307932786322
2917.0,0.0006954276616513155
2916.0,0.0007389288868995258
2915.0,0.0006954276616513155
2914.0,0.0006519307932786322
2913.0,0.0005649501236701937
2912.0,0.000521466320689834
2911.0,0.0004779868710962365
2910.0,0.000521466320689834
2909.0,0.000521466320689834
2908.0,0.0005649501236701937
2907.0,0.0005649501236701937
2906.0,0.0005649501236701937
2905.0,0.0005649501236701937
2904.0,0.0005649501236701937
2903.0,0.0006084382809090627
2902.0,0.0006084382809090627
2901.0,0.0006084382809090627
2900.0,0.0005649501236701937
2899.0,0.0005649501236701937
2898.0,0.0005649501236701937
2897.0,0.0005649501236701937
2896.0,0.0005649501236701937
2895.0,0.0005649501236701937
2894.0,0.0006084382809090627
2893.0,0.0006084382809090627
2892.0,0.0005649501236701937
2891.0,0.000521466320689834
2890.0,0.00043451177401765406
2889.0,0.0003910410285830057
2888.0,0.00043451177401765406
2887.0,0.0004779868710962365
2886.0,0.000521466320689834
2885.0,0.0004779868710962365
2884.0,0.0003910410285830057
2883.0,0.00030411258916074324
2882.0,0.00026065489343207737
2881.0,0.00026065489343207737
2880.0,0.00030411258916074324
2879.0,0.0003475746339209884
2878.0,0.0003910410285830057
2877.0,0.00043451177401765406
2876.0,0.00043451177401765406
2875.0,0.0003910410285830057
2874.0,0.0003910410285830057
2873.0,0.00043451177401765406
2872.0,0.0004779868710962365
2871.0,0.000521466320689834
2870.0,0.0005649501236701937
2869.0,0.0005649501236701937
2868.0,0.0005649501236701937
2867.0,0.0005649501236701937
2866.0,0.000521466320689834
2865.0,0.0004779868710962365
2864.0,0.00043451177401765406
2863.0,0.0003910410285830057
2862.0,0.00043451177401765406
2861.0,0.000521466320689834
2860.0,0.0005649501236701937
2859.0,0.0006084382809090627
2858.0,0.0006519307932786322
2857.0,0.0006954276616513155
2856.0,0.0006954276616513155
2855.0,0.0007389288868995258
2854.0,0.0006519307932786322
2853.0,0.0005649501236701937
2852.0,0.00043451177401765406
2851.0,0.0003910410285830057
2850.0,0.0003475746339209884
2849.0,0.0003910410285830057
2848.0,0.0003910410285830057
2847.0,0.0003910410285830057
2846.0,0.0003475746339209884
2845.0,0.0003475746339209884
2844.0,0.0003910410285830057
2843.0,0.00043451177401765406
2842.0,0.000521466320689834
2841.0,0.0005649501236701937
2840.0,0.000521466320689834
2839.0,0.00043451177401765406
2838.0,0.0003910410285830057
2837.0,0.0003475746339209884
2836.0,0.0003475746339209884
2835.0,0.0003475746339209884
2834.0,0.0003910410285830057
2833.0,0.00043451177401765406
2832.0,0.00043451177401765406
2831.0,0.00043451177401765406
2830.0,0.0003910410285830057
2829.0,0.0003475746339209884
2828.0,0.00026065489343207737
2827.0,0.00021720154586435392
2826.0,0.00026065489343207737
2825.0,0.00026065489343207737
2824.0,0.00030411258916074324
2823.0,0.0003475746339209884
2822.0,0.00043451177401765406
2821.0,0.0004779868710962365
2820.0,0.000521466320689834
2819.0,0.000521466320689834
2818.0,0.0004779868710962365
2817.0,0.00043451177401765406
2816.0,0.00043451177401765406
2815.0,0.0003910410285830057
2814.0,0.0003910410285830057
2813.0,0.0003475746339209884
2812.0,0.0003475746339209884
2811.0,0.0003475746339209884
2810.0,0.0003475746339209884
2809.0,0.0003475746339209884
2808.0,0.00030411258916074324
2807.0,0.00026065489343207737
2806.0,0.00021720154586435392
2805.0,0.00017375254558760211
2804.0,0.0001303078917322953
2803.0,0.0001303078917322953
2802.0,0.00017375254558760211
2801.0,0.00021720154586435392
2800.0,0.0003475746339209884
2799.0,0.00043451177401765406
2798.0,0.0004779868710962365
2797.0,0.0004779868710962365
2796.0,0.00043451177401765406
2795.0,0.00043451177401765406
2794.0,0.00043451177401765406
2793.0,0.00043451177401765406
2792.0,0.0004779868710962365
2791.0,0.00043451177401765406
2790.0,0.0003475746339209884
2789.0,0.00026065489343207737
2788.0,0.00021720154586435392
2787.0,0.00021720154586435392
2786.0,0.00026065489343207737
2785.0,0.00030411258916074324
2784.0,0.0003475746339209884
2783.0,0.0003475746339209884
2782.0,0.0003475746339209884
2781.0,0.0003475746339209884
2780.0,0.0003475746339209884
2779.0,0.0003475746339209884
2778.0,0.0003475746339209884
2777.0,0.0003475746339209884
2776.0,0.0003910410285830057
2775.0,0.0003910410285830057
2774.0,0.0003910410285830057
2773.0,0.00030411258916074324
2772.0,0.00026065489343207737
2771.0,0.00021720154586435392
2770.0,0.00026065489343207737
2769.0,0.00030411258916074324
2768.0,0.00030411258916074324
2767.0,0.00030411258916074324
2766.0,0.00030411258916074324
2765.0,0.00030411258916074324
2764.0,0.0003910410285830057
2763.0,0.00043451177401765406
2762.0,0.00043451177401765406
2761.0,0.0003475746339209884
2760.0,0.00030411258916074324
2759.0,0.00026065489343207737
2758.0,0.0003475746339209884
2757.0,0.00043451177401765406
2756.0,0.0004779868710962365
2755.0,0.00043451177401765406
2754.0,0.0003475746339209884
2753.0,0.00030411258916074324
2752.0,0.00030411258916074324
2751.0,0.00030411258916074324
2750.0,0.00030411258916074324
2749.0,0.00030411258916074324
2748.0,0.0003475746339209884
2747.0,0.0003475746339209884
2746.0,0.0003475746339209884
2745.0,0.0003475746339209884
2744.0,0.0003910410285830057
2743.0,0.0003910410285830057
2742.0,0.0003910410285830057
2741.0,0.0003910410285830057
2740.0,0.0003475746339209884
2739.0,0.00030411258916074324
2738.0,0.00026065489343207737
2737.0,0.00026065489343207737
2736.0,0.00026065489343207737
2735.0,0.00026065489343207737
2734.0,0.00026065489343207737
2733.0,0.00026065489343207737
2732.0,0.00021720154586435392
2731.0,0.00026065489343207737
2730.0,0.00026065489343207737
2729.0,0.00030411258916074324
2728.0,0.00030411258916074324
2727.0,0.00030411258916074324
2726.0,0.0003475746339209884
2725.0,0.0003475746339209884
2724.0,0.0003475746339209884
2723.0,0.00030411258916074324
2722.0,0.00026065489343207737
2721.0,0.00026065489343207737
2720.0,0.00026065489343207737
2719.0,0.00021720154586435392
2718.0,0.00021720154586435392
2717.0,0.00026065489343207737
2716.0,0.0003475746339209884
2715.0,0.0003475746339209884
2714.0,0.00030411258916074324
2713.0,0.00021720154586435392
2712.0,0.0001303078917322953
2711.0,8.686758342868472e-05
2710.0,8.686758342868472e-05
2709.0,0.0001303078917322953
2708.0,0.00017375254558760211
2707.0,0.00021720154586435392
2706.0,0.00026065489343207737
2705.0,0.00030411258916074324
2704.0,0.0003910410285830057
2703.0,0.00043451177401765406
2702.0,0.0004779868710962365
2701.0,0.00043451177401765406
2700.0,0.0003910410285830057
2699.0,0.0003475746339209884
2698.0,0.0003475746339209884
2697.0,0.00030411258916074324
2696.0,0.0003475746339209884
2695.0,0.0003910410285830057
2694.0,0.00043451177401765406
2693.0,0.0003910410285830057
2692.0,0.00030411258916074324
2691.0,0.00026065489343207737
2690.0,0.00026065489343207737
2689.0,0.00030411258916074324
2688.0,0.00030411258916074324
2687.0,0.00026065489343207737
2686.0,0.00021720154586435392
2685.0,0.00021720154586435392
2684.0,0.00021720154586435392
2683.0,0.00030411258916074324
2682.0,0.0003475746339209884
2681.0,0.0003910410285830057
2680.0,0.0003910410285830057
2679.0,0.0003475746339209884
2678.0,0.00030411258916074324
2677.0,0.00030411258916074324
2676.0,0.00030411258916074324
2675.0,0.00030411258916074324
2674.0,0.00026065489343207737
2673.0,0.00021720154586435392
2672.0,0.00021720154586435392
2671.0,0.00021720154586435392
2670.0,0.00026065489343207737
2669.0,0.00021720154586435392
2668.0,0.00021720154586435392
2667.0,0.00021720154586435392
2666.0,0.00026065489343207737
2665.0,0.00026065489343207737
2664.0,0.00026065489343207737
2663.0,0.00026065489343207737
2662.0,0.00026065489343207737
2661.0,0.00030411258916074324
2660.0,0.00030411258916074324
2659.0,0.00030411258916074324
2658.0,0.00030411258916074324
2657.0,0.00030411258916074324
2656.0,0.00026065489343207737
2655.0,0.00026065489343207737
2654.0,0.00026065489343207737
2653.0,0.00030411258916074324
2652.0,0.00030411258916074324
2651.0,0.00030411258916074324
2650.0,0.00030411258916074324
2649.0,0.00026065489343207737
2648.0,0.00026065489343207737
2647.0,0.00026065489343207737
2646.0,0.00026065489343207737
2645.0,0.00030411258916074324
2644.0,0.0003475746339209884
2643.0,0.0003910410285830057
2642.0,0.0003910410285830057
2641.0,0.0003475746339209884
2640.0,0.00030411258916074324
2639.0,0.00026065489343207737
2638.0,0.00021720154586435392
2637.0,0.00021720154586435392
2636.0,0.00021720154586435392
2635.0,0.00021720154586435392
2634.0,0.00026065489343207737
2633.0,0.00026065489343207737
2632.0,0.00030411258916074324
2631.0,0.0003475746339209884
2630.0,0.0003475746339209884
2629.0,0.00030411258916074324
2628.0,0.00030411258916074324
2627.0,0.00026065489343207737
2626.0,0.00021720154586435392
2625.0,0.00021720154586435392
2624.0,0.00017375254558760211
2623.0,0.00017375254558760211
2622.0,0.00017375254558760211
2621.0,0.00021720154586435392
2620.0,0.00026065489343207737
2619.0,0.00030411258916074324
2618.0,0.00030411258916074324
2617.0,0.00030411258916074324
2616.0,0.00026065489343207737
2615.0,0.00017375254558760211
2614.0,0.0001303078917322953
2613.0,0.0001303078917322953
2612.0,0.0001303078917322953
2611.0,0.00017375254558760211
2610.0,0.00017375254558760211
2609.0,0.00017375254558760211
2608.0,0.00017375254558760211
2607.0,0.00021720154586435392
2606.0,0.00030411258916074324
2605.0,0.0003475746339209884
2604.0,0.0003475746339209884
2603.0,0.00030411258916074324
2602.0,0.00026065489343207737
2601.0,0.00021720154586435392
2600.0,0.00017375254558760211
2599.0,0.00021720154586435392
2598.0,0.00026065489343207737
2597.0,0.00030411258916074324
2596.0,0.00030411258916074324
2595.0,0.00030411258916074324
2594.0,0.00021720154586435392
2593.0,0.0001303078917322953
2592.0,0.0001303078917322953
2591.0,0.00017375254558760211
2590.0,0.00021720154586435392
2589.0,0.00030411258916074324
2588.0,0.0003475746339209884
2587.0,0.0003475746339209884
2586.0,0.0003475746339209884
2585.0,0.00030411258916074324
2584.0,0.00026065489343207737
2583.0,0.00021720154586435392
2582.0,0.00021720154586435392
2581.0,0.00026065489343207737
2580.0,0.00030411258916074324
2579.0,0.00026065489343207737
2578.0,0.00021720154586435392
2577.0,0.0001303078917322953
2576.0,8.686758342868472e-05
2575.0,4.343161980746579e-05
2574.0,0.0
2573.0,0.0
2572.0,4.343161980746579e-05
2571.0,0.0001303078917322953
2570.0,0.00021720154586435392
2569.0,0.00030411258916074324
2568.0,0.00030411258916074324
2567.0,0.00030411258916074324
2566.0,0.00030411258916074324
2565.0,0.00026065489343207737
2564.0,0.00026065489343207737
2563.0,0.00026065489343207737
2562.0,0.00026065489343207737
2561.0,0.0003475746339209884
2560.0,0.0003475746339209884
2559.0,0.0003475746339209884
2558.0,0.00026065489343207737
2557.0,0.00026065489343207737
2556.0,0.00021720154586435392
2555.0,0.00026065489343207737
2554.0,0.00026065489343207737
2553.0,0.00026065489343207737
2552.0,0.00021720154586435392
2551.0,0.0001303078917322953
2550.0,8.686758342868472e-05
2549.0,8.686758342868472e-05
2548.0,0.0001303078917322953
2547.0,0.00017375254558760211
2546.0,0.00026065489343207737
2545.0,0.00030411258916074324
2544.0,0.0003475746339209884
2543.0,0.0003475746339209884
2542.0,0.00030411258916074324
2541.0,0.00026065489343207737
2540.0,0.0001303078917322953
2539.0,8.686758342868472e-05
2538.0,8.686758342868472e-05
2537.0,0.0001303078917322953
2536.0,0.00021720154586435392
2535.0,0.00026065489343207737
2534.0,0.00021720154586435392
2533.0,0.00021720154586435392
2532.0,0.00017375254558760211
2531.0,0.00017375254558760211
2530.0,0.00017375254558760211
2529.0,0.00017375254558760211
2528.0,0.00017375254558760211
2527.0,0.00021720154586435392
2526.0,0.00021720154586435392
2525.0,0.00021720154586435392
2524.0,0.00021720154586435392
2523.0,0.00021720154586435392
2522.0,0.00021720154586435392
2521.0,0.00021720154586435392
2520.0,0.00021720154586435392
2519.0,0.00021720154586435392
2518.0,0.00021720154586435392
2517.0,0.00021720154586435392
2516.0,0.00021720154586435392
2515.0,0.00021720154586435392
2514.0,0.00021720154586435392
2513.0,0.00021720154586435392
2512.0,0.00017375254558760211
2511.0,0.0001303078917322953
2510.0,8.686758342868472e-05
2509.0,8.686758342868472e-05
2508.0,8.686758342868472e-05
2507.0,8.686758342868472e-05
2506.0,8.686758342868472e-05
2505.0,8.686758342868472e-05
2504.0,8.686758342868472e-05
2503.0,0.0001303078917322953
2502.0,0.0001303078917322953
2501.0,8.686758342868472e-05
2500.0,4.343161980746579e-05
2499.0,4.343161980746579e-05
2498.0,4.343161980746579e-05
2497.0,8.686758342868472e-05
2496.0,0.0001303078917322953
2495.0,0.0001303078917322953
2494.0,0.0001303078917322953
2493.0,8.686758342868472e-05
2492.0,8.686758342868472e-05
2491.0,8.686758342868472e-05
2490.0,8.686758342868472e-05
2489.0,0.0001303078917322953
2488.0,0.0001303078917322953
2487.0,0.0001303078917322953
2486.0,0.0001303078917322953
2485.0,8.686758342868472e-05
2484.0,8.686758342868472e-05
2483.0,4.343161980746579e-05
2482.0,0.0
2481.0,0.0
2480.0,4.343161980746579e-05
2479.0,8.686758342868472e-05
2478.0,0.0001303078917322953
2477.0,0.0001303078917322953
2476.0,0.00017375254558760211
2475.0,0.00017375254558760211
2474.0,0.00017375254558760211
2473.0,0.00017375254558760211
2472.0,0.00017375254558760211
2471.0,0.00017375254558760211
2470.0,0.0001303078917322953
2469.0,8.686758342868472e-05
2468.0,4.343161980746579e-05
2467.0,0.0
2466.0,0.0
2465.0,4.343161980746579e-05
2464.0,4.343161980746579e-05
2463.0,4.343161980746579e-05
2462.0,4.343161980746579e-05
2461.0,4.343161980746579e-05
2460.0,4.343161980746579e-05
2459.0,8.686758342868472e-05
2458.0,8.686758342868472e-05
2457.0,4.343161980746579e-05
2456.0,4.343161980746579e-05
2455.0,4.343161980746579e-05
2454.0,8.686758342868472e-05
2453.0,0.0001303078917322953
2452.0,0.00017375254558760211
2451.0,0.0001303078917322953
2450.0,4.343161980746579e-05
2449.0,4.343161980746579e-05
2448.0,8.686758342868472e-05
2447.0,0.00017375254558760211
2446.0,0.00021720154586435392
2445.0,0.00021720154586435392
2444.0,0.00017375254558760211
2443.0,8.686758342868472e-05
2442.0,0.0
2441.0,-4.3427276862573194e-05
2440.0,-8.685021164911433e-05
2439.0,-4.3427276862573194e-05
2438.0,4.343161980746579e-05
2437.0,8.686758342868472e-05
2436.0,0.0001303078917322953
2435.0,0.0001303078917322953
2434.0,8.686758342868472e-05
2433.0,4.343161980746579e-05
2432.0,4.343161980746579e-05
2431.0,8.686758342868472e-05
2430.0,8.686758342868472e-05
2429.0,0.00017375254558760211
2428.0,0.00026065489343207737
2427.0,0.00030411258916074324
2426.0,0.0003475746339209884
2425.0,0.00026065489343207737
2424.0,0.00017375254558760211
2423.0,8.686758342868472e-05
2422.0,4.343161980746579e-05
2421.0,4.343161980746579e-05
2420.0,0.0
2419.0,-4.3427276862573194e-05
2418.0,-4.3427276862573194e-05
2417.0,-4.3427276862573194e-05
2416.0,-4.3427276862573194e-05
2415.0,0.0
2414.0,4.343161980746579e-05
2413.0,0.0001303078917322953
2412.0,0.00021720154586435392
2411.0,0.00026065489343207737
2410.0,0.00021720154586435392
2409.0,0.0001303078917322953
2408.0,8.686758342868472e-05
2407.0,4.343161980746579e-05
2406.0,0.0
2405.0,0.0
2404.0,0.0
2403.0,0.0
2402.0,4.343161980746579e-05
2401.0,4.343161980746579e-05
2400.0,4.343161980746579e-05
2399.0,-4.3427276862573194e-05
2398.0,-8.685021164911433e-05
2397.0,-8.685021164911433e-05
2396.0,-4.3427276862573194e-05
2395.0,0.0
2394.0,-4.3427276862573194e-05
2393.0,-8.685021164911433e-05
2392.0,-0.00013026880522692963
2391.0,-8.685021164911433e-05
2390.0,-4.3427276862573194e-05
2389.0,0.0
2388.0,4.343161980746579e-05
2387.0,4.343161980746579e-05
2386.0,8.686758342868472e-05
2385.0,8.686758342868472e-05
2384.0,8.686758342868472e-05
2383.0,0.00017375254558760211
2382.0,0.00030411258916074324
2381.0,0.0004779868710962365
2380.0,0.0006084382809090627
2379.0,0.0006954276616513155
2378.0,0.0006519307932786322
2377.0,0.0005649501236701937
2376.0,0.0003475746339209884
2375.0,0.0001303078917322953
2374.0,-4.3427276862573194e-05
2373.0,-0.00017368305846510168
2372.0,-0.0002604985473904087
2371.0,-0.00030389978481260016
2370.0,-0.00017368305846510168
2369.0,0.0001303078917322953
2368.0,0.000521466320689834
2367.0,0.0006519307932786322
2366.0,0.00030411258916074324
2365.0,-0.00030389978481260016
2364.0,-0.0008243766056055257
2363.0,-0.0010843812922201046
2362.0,-0.001041057986093552
2361.0,-0.0006943158663546001
2360.0,-4.3427276862573194e-05
2359.0,0.0007389288868995258
2358.0,0.0010435595295137379
2357.0,0.0007824344698965646
2356.0,0.0003910410285830057
2355.0,0.00021720154586435392
2354.0,0.0003910410285830057
2353.0,0.0006084382809090627
2352.0,0.0008259444115150671
2351.0,0.0009565003968372565
2350.0,0.0010000277816797354
2349.0,0.0007824344698965646
2348.0,0.00030411258916074324
2347.0,-8.685021164911433e-05
2346.0,-0.00013026880522692963
2345.0,0.00030411258916074324
2344.0,0.000869458712629001
2343.0,0.0011741809597138886
2342.0,0.0011306361176557367
2341.0,0.0008259444115150671
2340.0,0.000521466320689834
2339.0,0.0004779868710962365
2338.0,0.0006519307932786322
2337.0,0.0008259444115150671
2336.0,0.0008259444115150671
2335.0,0.0005649501236701937
2334.0,0.00026065489343207737
2333.0,8.686758342868472e-05
2332.0,8.686758342868472e-05
2331.0,0.00017375254558760211
2330.0,0.00030411258916074324
2329.0,0.00043451177401765406
2328.0,0.000521466320689834
2327.0,0.0006519307932786322
2326.0,0.0006954276616513155
2325.0,0.0006954276616513155
2324.0,0.0006084382809090627
2323.0,0.0004779868710962365
2322.0,0.0003475746339209884
2321.0,0.00026065489343207737
2320.0,0.00021720154586435392
2319.0,0.00021720154586435392
2318.0,0.00021720154586435392
2317.0,0.00021720154586435392
2316.0,0.00026065489343207737
2315.0,0.0003910410285830057
2314.0,0.0004779868710962365
2313.0,0.000521466320689834
2312.0,0.00043451177401765406
2311.0,0.0003475746339209884
2310.0,0.00017375254558760211
2309.0,8.686758342868472e-05
2308.0,4.343161980746579e-05
2307.0,4.343161980746579e-05
2306.0,0.00017375254558760211
2305.0,0.00021720154586435392
2304.0,0.00026065489343207737
2303.0,0.00017375254558760211
2302.0,8.686758342868472e-05
2301.0,4.343161980746579e-05
2300.0,0.0
2299.0,0.0
2298.0,0.0
2297.0,4.343161980746579e-05
2296.0,4.343161980746579e-05
2295.0,8.686758342868472e-05
2294.0,8.686758342868472e-05
2293.0,4.343161980746579e-05
2292.0,-4.3427276862573194e-05
2291.0,-8.685021164911433e-05
2290.0,-8.685021164911433e-05
2289.0,-8.685021164911433e-05
2288.0,-4.3427276862573194e-05
2287.0,-8.685021164911433e-05
2286.0,-8.685021164911433e-05
2285.0,-8.685021164911433e-05
2284.0,-8.685021164911433e-05
2283.0,-8.685021164911433e-05
2282.0,-8.685021164911433e-05
2281.0,-0.00013026880522692963
2280.0,-0.00021709297223004853
2279.0,-0.0002604985473904087
2278.0,-0.0002604985473904087
2277.0,-0.00030389978481260016
2276.0,-0.00030389978481260016
2275.0,-0.0002604985473904087
2274.0,-0.0002604985473904087
2273.0,-0.00021709297223004853
2272.0,-0.00013026880522692963
2271.0,-8.685021164911433e-05
2270.0,0.0
2269.0,4.343161980746579e-05
2268.0,0.0
2267.0,-4.3427276862573194e-05
2266.0,-0.00013026880522692963
2265.0,-0.00013026880522692963
2264.0,-8.685021164911433e-05
2263.0,-4.3427276862573194e-05
2262.0,4.343161980746579e-05
2261.0,4.343161980746579e-05
2260.0,4.343161980746579e-05
2259.0,0.0
2258.0,-4.3427276862573194e-05
2257.0,-4.3427276862573194e-05
2256.0,-4.3427276862573194e-05
2255.0,-4.3427276862573194e-05
2254.0,-8.685021164911433e-05
2253.0,-0.00013026880522692963
2252.0,-0.00017368305846510168
2251.0,-0.00017368305846510168
2250.0,-0.00013026880522692963
2249.0,-8.685021164911433e-05
2248.0,-8.685021164911433e-05
2247.0,-0.00017368305846510168
2246.0,-0.0002604985473904087
2245.0,-0.0003472966853634851
2244.0,-0.0003472966853634851
2243.0,-0.00030389978481260016
2242.0,-0.00021709297223004853
2241.0,-0.00013026880522692963
2240.0,-0.00013026880522692963
2239.0,-0.00017368305846510168
2238.0,-0.00021709297223004853
2237.0,-0.00021709297223004853
2236.0,-0.00021709297223004853
2235.0,-0.00021709297223004853
2234.0,-0.00021709297223004853
2233.0,-0.0002604985473904087
2232.0,-0.0002604985473904087
2231.0,-0.00021709297223004853
2230.0,-0.00013026880522692963
2229.0,-8.685021164911433e-05
2228.0,-8.685021164911433e-05
2227.0,-8.685021164911433e-05
2226.0,-0.00013026880522692963
2225.0,-0.00017368305846510168
2224.0,-0.00013026880522692963
2223.0,-0.00013026880522692963
2222.0,-8.685021164911433e-05
2221.0,-4.3427276862573194e-05
2220.0,-4.3427276862573194e-05
2219.0,-8.685021164911433e-05
2218.0,-0.00013026880522692963
2217.0,-0.00017368305846510168
2216.0,-0.00017368305846510168
2215.0,-0.00013026880522692963
2214.0,-0.00013026880522692963
2213.0,-8.685021164911433e-05
2212.0,-8.685021164911433e-05
2211.0,-4.3427276862573194e-05
2210.0,0.0
2209.0,-4.3427276862573194e-05
2208.0,-4.3427276862573194e-05
2207.0,-0.00013026880522692963
2206.0,-0.00013026880522692963
2205.0,-0.00013026880522692963
2204.0,-0.00013026880522692963
2203.0,-0.00013026880522692963
2202.0,-0.00013026880522692963
2201.0,-0.00013026880522692963
2200.0,-0.00013026880522692963
2199.0,-0.00013026880522692963
2198.0,-0.00013026880522692963
2197.0,-0.00013026880522692963
2196.0,-8.685021164911433e-05
2195.0,-8.685021164911433e-05
2194.0,-0.00013026880522692963
2193.0,-0.00017368305846510168
2192.0,-0.00017368305846510168
2191.0,-0.00017368305846510168
2190.0,-0.00017368305846510168
2189.0,-0.00013026880522692963
2188.0,-0.00017368305846510168
2187.0,-0.00021709297223004853
2186.0,-0.0002604985473904087
2185.0,-0.0002604985473904087
2184.0,-0.00017368305846510168
2183.0,-8.685021164911433e-05
2182.0,-4.3427276862573194e-05
2181.0,0.0
2180.0,0.0
2179.0,0.0
2178.0,0.0
2177.0,0.0
2176.0,0.0
2175.0,0.0
2174.0,-4.3427276862573194e-05
2173.0,-0.00013026880522692963
2172.0,-0.00013026880522692963
2171.0,-0.00017368305846510168
2170.0,-0.00021709297223004853
2169.0,-0.0002604985473904087
2168.0,-0.0002604985473904087
2167.0,-0.0002604985473904087
2166.0,-0.0002604985473904087
2165.0,-0.00021709297223004853
2164.0,-0.00021709297223004853
2163.0,-0.00021709297223004853
2162.0,-0.00021709297223004853
2161.0,-0.00021709297223004853
2160.0,-0.0002604985473904087
2159.0,-0.00030389978481260016
2158.0,-0.0003472966853634851
2157.0,-0.0003472966853634851
2156.0,-0.0003906892499099257
2155.0,-0.00043407747931878404
2154.0,-0.00043407747931878404
2153.0,-0.00043407747931878404
2152.0,-0.0003906892499099257
2151.0,-0.00030389978481260016
2150.0,-0.0002604985473904087
2149.0,-0.00021709297223004853
2148.0,-0.00013026880522692963
2147.0,-8.685021164911433e-05
2146.0,-8.685021164911433e-05
2145.0,-0.00017368305846510168
2144.0,-0.00021709297223004853
2143.0,-0.00030389978481260016
2142.0,-0.00030389978481260016
2141.0,-0.00030389978481260016
2140.0,-0.00030389978481260016
2139.0,-0.0002604985473904087
2138.0,-0.0002604985473904087
2137.0,-0.00021709297223004853
2136.0,-0.00021709297223004853
2135.0,-0.0002604985473904087
2134.0,-0.00030389978481260016
2133.0,-0.0003906892499099257
2132.0,-0.0003906892499099257
2131.0,-0.0003906892499099257
2130.0,-0.0003906892499099257
2129.0,-0.00043407747931878404
2128.0,-0.0003906892499099257
2127.0,-0.0003472966853634851
2126.0,-0.0002604985473904087
2125.0,-0.0002604985473904087
2124.0,-0.0002604985473904087
2123.0,-0.0002604985473904087
2122.0,-0.00021709297223004853
2121.0,-0.00013026880522692963
2120.0,-4.3427276862573194e-05
2119.0,-4.3427276862573194e-05
2118.0,-4.3427276862573194e-05
2117.0,-8.685021164911433e-05
2116.0,-8.685021164911433e-05
2115.0,-0.00013026880522692963
2114.0,-0.00017368305846510168
2113.0,-0.00021709297223004853
2112.0,-0.00021709297223004853
2111.0,-0.00021709297223004853
2110.0,-0.00021709297223004853
2109.0,-0.00021709297223004853
2108.0,-0.00021709297223004853
2107.0,-0.00021709297223004853
2106.0,-0.00017368305846510168
2105.0,-0.00017368305846510168
2104.0,-0.00017368305846510168
2103.0,-0.00013026880522692963
2102.0,-0.00013026880522692963
2101.0,-0.00017368305846510168
2100.0,-0.00021709297223004853
2099.0,-0.00017368305846510168
2098.0,-0.00013026880522692963
2097.0,-8.685021164911433e-05
2096.0,-4.3427276862573194e-05
2095.0,-4.3427276862573194e-05
2094.0,-8.685021164911433e-05
2093.0,-0.00017368305846510168
2092.0,-0.00021709297223004853
2091.0,-0.0002604985473904087
2090.0,-0.0002604985473904087
2089.0,-0.00021709297223004853
2088.0,-0.00013026880522692963
2087.0,-8.685021164911433e-05
2086.0,-8.685021164911433e-05
2085.0,-0.00013026880522692963
2084.0,-0.00017368305846510168
2083.0,-0.00021709297223004853
2082.0,-0.00021709297223004853
2081.0,-0.00021709297223004853
2080.0,-0.0002604985473904087
2079.0,-0.0002604985473904087
2078.0,-0.0002604985473904087
2077.0,-0.0002604985473904087
2076.0,-0.00030389978481260016
2075.0,-0.0003472966853634851
2074.0,-0.0003472966853634851
2073.0,-0.0003472966853634851
2072.0,-0.0003472966853634851
2071.0,-0.0002604985473904087
2070.0,-0.00021709297223004853
2069.0,-0.00017368305846510168
2068.0,-0.00021709297223004853
2067.0,-0.00021709297223004853
2066.0,-0.0002604985473904087
2065.0,-0.0002604985473904087
2064.0,-0.0002604985473904087
2063.0,-0.00030389978481260016
2062.0,-0.0003906892499099257
2061.0,-0.0004774613744551459
2060.0,-0.0005208409361854294
2059.0,-0.0005208409361854294
2058.0,-0.0004774613744551459
2057.0,-0.0003906892499099257
2056.0,-0.00030389978481260016
2055.0,-0.00030389978481260016
2054.0,-0.00030389978481260016
2053.0,-0.00030389978481260016
2052.0,-0.00030389978481260016
2051.0,-0.0002604985473904087
2050.0,-0.00021709297223004853
2049.0,-0.00013026880522692963
2048.0,-8.685021164911433e-05
2047.0,-8.685021164911433e-05
2046.0,-0.00013026880522692963
2045.0,-0.00021709297223004853
2044.0,-0.0002604985473904087
2043.0,-0.00021709297223004853
2042.0,-0.00017368305846510168
2041.0,-0.00013026880522692963
2040.0,-0.00013026880522692963
2039.0,-0.00013026880522692963
2038.0,-0.00017368305846510168
2037.0,-0.00021709297223004853
2036.0,-0.00021709297223004853
2035.0,-0.00021709297223004853
2034.0,-0.00017368305846510168
2033.0,-0.00017368305846510168
2032.0,-0.00017368305846510168
2031.0,-0.00017368305846510168
2030.0,-0.00017368305846510168
2029.0,-0.00017368305846510168
2028.0,-0.00021709297223004853
2027.0,-0.00017368305846510168
2026.0,-8.685021164911433e-05
2025.0,0.0
2024.0,4.343161980746579e-05
2023.0,0.0
2022.0,-4.3427276862573194e-05
2021.0,-0.00013026880522692963
2020.0,-0.00017368305846510168
2019.0,-0.00021709297223004853
2018.0,-0.00021709297223004853
2017.0,-0.00021709297223004853
2016.0,-0.00021709297223004853
2015.0,-0.0002604985473904087
2014.0,-0.00030389978481260016
2013.0,-0.00030389978481260016
2012.0,-0.00030389978481260016
2011.0,-0.0002604985473904087
2010.0,-0.00021709297223004853
2009.0,-0.00021709297223004853
2008.0,-0.00017368305846510168
2007.0,-0.00013026880522692963
2006.0,-0.00017368305846510168
2005.0,-0.00017368305846510168
2004.0,-0.00021709297223004853
2003.0,-0.0002604985473904087
2002.0,-0.00021709297223004853
2001.0,-0.00017368305846510168
2000.0,-0.00017368305846510168
1999.0,-0.00013026880522692963
1998.0,-0.00017368305846510168
1997.0,-0.00017368305846510168
1996.0,-0.00021709297223004853
1995.0,-0.00021709297223004853
1994.0,-0.00017368305846510168
1993.0,-0.00013026880522692963
1992.0,-0.00013026880522692963
1991.0,-8.685021164911433e-05
1990.0,-8.685021164911433e-05
1989.0,-0.00013026880522692963
1988.0,-0.00017368305846510168
1987.0,-0.00021709297223004853
1986.0,-0.00021709297223004853
1985.0,-0.00017368305846510168
1984.0,-0.00013026880522692963
1983.0,-8.685021164911433e-05
1982.0,-4.3427276862573194e-05
1981.0,-4.3427276862573194e-05
1980.0,-4.3427276862573194e-05
1979.0,-8.685021164911433e-05
1978.0,-0.00013026880522692963
1977.0,-0.00017368305846510168
1976.0,-0.00017368305846510168
1975.0,-0.00017368305846510168
1974.0,-0.00017368305846510168
1973.0,-0.00017368305846510168
1972.0,-0.00017368305846510168
1971.0,-0.00017368305846510168
1970.0,-0.00017368305846510168
1969.0,-0.00017368305846510168
1968.0,-0.00017368305846510168
1967.0,-0.00017368305846510168
1966.0,-0.00013026880522692963
1965.0,-0.00013026880522692963
1964.0,-8.685021164911433e-05
1963.0,-8.685021164911433e-05
1962.0,-8.685021164911433e-05
1961.0,-0.00013026880522692963
1960.0,-0.00017368305846510168
1959.0,-0.0002604985473904087
1958.0,-0.00030389978481260016
1957.0,-0.00030389978481260016
1956.0,-0.0002604985473904087
1955.0,-0.00021709297223004853
1954.0,-0.00021709297223004853
1953.0,-0.00021709297223004853
1952.0,-0.00017368305846510168
1951.0,-0.00017368305846510168
1950.0,-0.00017368305846510168
1949.0,-0.00013026880522692963
1948.0,-8.685021164911433e-05
1947.0,-4.3427276862573194e-05
1946.0,-4.3427276862573194e-05
1945.0,-4.3427276862573194e-05
1944.0,0.0
1943.0,0.0
1942.0,-4.3427276862573194e-05
1941.0,-4.3427276862573194e-05
1940.0,-8.685021164911433e-05
1939.0,-8.685021164911433e-05
1938.0,-8.685021164911433e-05
1937.0,-8.685021164911433e-05
1936.0,-8.685021164911433e-05
1935.0,-4.3427276862573194e-05
1934.0,-4.3427276862573194e-05
1933.0,-4.3427276862573194e-05
1932.0,-4.3427276862573194e-05
1931.0,-4.3427276862573194e-05
1930.0,0.0
1929.0,0.0
1928.0,0.0
1927.0,0.0
1926.0,-4.3427276862573194e-05
1925.0,-4.3427276862573194e-05
1924.0,-4.3427276862573194e-05
1923.0,-4.3427276862573194e-05
1922.0,-8.685021164911433e-05
1921.0,-8.685021164911433e-05
1920.0,-8.685021164911433e-05
1919.0,-8.685021164911433e-05
1918.0,-8.685021164911433e-05
1917.0,-8.685021164911433e-05
1916.0,0.0
1915.0,4.343161980746579e-05
1914.0,8.686758342868472e-05
1913.0,8.686758342868472e-05
1912.0,4.343161980746579e-05
1911.0,-4.3427276862573194e-05
1910.0,-8.685021164911433e-05
1909.0,-8.685021164911433e-05
1908.0,-4.3427276862573194e-05
1907.0,0.0
1906.0,4.343161980746579e-05
1905.0,4.343161980746579e-05
1904.0,0.0
1903.0,0.0
1902.0,-4.3427276862573194e-05
1901.0,-0.00013026880522692963
1900.0,-0.00017368305846510168
1899.0,-0.00017368305846510168
1898.0,-0.00017368305846510168
1897.0,-0.00017368305846510168
1896.0,-0.00013026880522692963
1895.0,-0.00013026880522692963
1894.0,-0.00013026880522692963
1893.0,-0.00017368305846510168
1892.0,-0.00013026880522692963
1891.0,-8.685021164911433e-05
1890.0,-4.3427276862573194e-05
1889.0,4.343161980746579e-05
1888.0,4.343161980746579e-05
1887.0,4.343161980746579e-05
1886.0,0.0
1885.0,-4.3427276862573194e-05
1884.0,-8.685021164911433e-05
1883.0,-0.00013026880522692963
1882.0,-8.685021164911433e-05
1881.0,-8.685021164911433e-05
1880.0,0.0
1879.0,8.686758342868472e-05
1878.0,0.0001303078917322953
1877.0,0.0001303078917322953
1876.0,8.686758342868472e-05
1875.0,4.343161980746579e-05
1874.0,0.0
1873.0,4.343161980746579e-05
1872.0,4.343161980746579e-05
1871.0,4.343161980746579e-05
1870.0,8.686758342868472e-05
1869.0,0.0001303078917322953
1868.0,0.00017375254558760211
1867.0,0.00017375254558760211
1866.0,0.00021720154586435392
1865.0,0.00017375254558760211
1864.0,0.0001303078917322953
1863.0,8.686758342868472e-05
1862.0,4.343161980746579e-05
1861.0,4.343161980746579e-05
1860.0,4.343161980746579e-05
1859.0,4.343161980746579e-05
1858.0,0.0
1857.0,4.343161980746579e-05
1856.0,4.343161980746579e-05
1855.0,0.0
1854.0,0.0
1853.0,0.0
1852.0,0.0
1851.0,4.343161980746579e-05
1850.0,4.343161980746579e-05
1849.0,4.343161980746579e-05
1848.0,4.343161980746579e-05
1847.0,4.343161980746579e-05
1846.0,4.343161980746579e-05
1845.0,8.686758342868472e-05
1844.0,0.0001303078917322953
1843.0,0.0001303078917322953
1842.0,4.343161980746579e-05
1841.0,0.0
1840.0,-4.3427276862573194e-05
1839.0,-4.3427276862573194e-05
1838.0,0.0
1837.0,4.343161980746579e-05
1836.0,4.343161980746579e-05
1835.0,4.343161980746579e-05
1834.0,0.0
1833.0,0.0
1832.0,0.0
1831.0,0.0
1830.0,0.0
1829.0,4.343161980746579e-05
1828.0,4.343161980746579e-05
1827.0,8.686758342868472e-05
1826.0,0.00017375254558760211
1825.0,0.00021720154586435392
1824.0,0.00026065489343207737
1823.0,0.00026065489343207737
1822.0,0.00026065489343207737
1821.0,0.00026065489343207737
1820.0,0.00026065489343207737
1819.0,0.00026065489343207737
1818.0,0.00026065489343207737
1817.0,0.00021720154586435392
1816.0,0.00017375254558760211
1815.0,0.0001303078917322953
1814.0,0.0001303078917322953
1813.0,0.00017375254558760211
1812.0,0.00021720154586435392
1811.0,0.00021720154586435392
1810.0,0.00021720154586435392
1809.0,0.00017375254558760211
1808.0,0.0001303078917322953
1807.0,0.0001303078917322953
1806.0,0.00017375254558760211
1805.0,0.00021720154586435392
1804.0,0.00021720154586435392
1803.0,0.00021720154586435392
1802.0,0.00017375254558760211
1801.0,0.0001303078917322953
1800.0,0.0001303078917322953
1799.0,0.00017375254558760211
1798.0,0.00021720154586435392
1797.0,0.00026065489343207737
1796.0,0.00030411258916074324
1795.0,0.0003475746339209884
1794.0,0.0003475746339209884
1793.0,0.0003910410285830057
1792.0,0.0003910410285830057
1791.0,0.00030411258916074324
1790.0,0.00026065489343207737
1789.0,0.00021720154586435392
1788.0,0.00021720154586435392
1787.0,0.00021720154586435392
1786.0,0.00021720154586435392
1785.0,0.00021720154586435392
1784.0,0.00017375254558760211
1783.0,0.00017375254558760211
1782.0,0.00017375254558760211
1781.0,0.00017375254558760211
1780.0,0.00021720154586435392
1779.0,0.00017375254558760211
1778.0,0.00017375254558760211
1777.0,0.00017375254558760211
1776.0,0.00017375254558760211
1775.0,0.00017375254558760211
1774.0,0.00021720154586435392
1773.0,0.00026065489343207737
1772.0,0.00030411258916074324
1771.0,0.00030411258916074324
1770.0,0.00030411258916074324
1769.0,0.0003475746339209884
1768.0,0.0003910410285830057
1767.0,0.0003910410285830057
1766.0,0.0003910410285830057
1765.0,0.0003910410285830057
1764.0,0.00043451177401765406
1763.0,0.0003910410285830057
1762.0,0.0003910410285830057
1761.0,0.0003475746339209884
1760.0,0.0003475746339209884
1759.0,0.0003475746339209884
1758.0,0.0003475746339209884
1757.0,0.0003475746339209884
1756.0,0.0003475746339209884
1755.0,0.0003475746339209884
1754.0,0.0003475746339209884
1753.0,0.0003475746339209884
1752.0,0.0003475746339209884
1751.0,0.0003475746339209884
1750.0,0.0003475746339209884
1749.0,0.0003475746339209884
1748.0,0.0003475746339209884
1747.0,0.0003910410285830057
1746.0,0.0003910410285830057
1745.0,0.0003910410285830057
1744.0,0.0003910410285830057
1743.0,0.00043451177401765406
1742.0,0.0003910410285830057
1741.0,0.0003475746339209884
1740.0,0.00030411258916074324
1739.0,0.00026065489343207737
1738.0,0.00026065489343207737
1737.0,0.00026065489343207737
1736.0,0.00026065489343207737
1735.0,0.00021720154586435392
1734.0,0.00017375254558760211
1733.0,0.0001303078917322953
1732.0,0.00017375254558760211
1731.0,0.00021720154586435392
1730.0,0.00026065489343207737
1729.0,0.00030411258916074324
1728.0,0.00030411258916074324
1727.0,0.00030411258916074324
1726.0,0.00030411258916074324
1725.0,0.00030411258916074324
1724.0,0.00026065489343207737
1723.0,0.00021720154586435392
1722.0,0.00017375254558760211
1721.0,0.00021720154586435392
1720.0,0.00026065489343207737
1719.0,0.00030411258916074324
1718.0,0.0003910410285830057
1717.0,0.0004779868710962365
1716.0,0.0004779868710962365
1715.0,0.0004779868710962365
1714.0,0.0004779868710962365
1713.0,0.0004779868710962365
1712.0,0.000521466320689834
1711.0,0.000521466320689834
1710.0,0.000521466320689834
1709.0,0.000521466320689834
1708.0,0.000521466320689834
1707.0,0.0004779868710962365
1706.0,0.00043451177401765406
1705.0,0.00043451177401765406
1704.0,0.0003910410285830057
1703.0,0.0003910410285830057
1702.0,0.0003910410285830057
1701.0,0.0003910410285830057
1700.0,0.00043451177401765406
1699.0,0.0004779868710962365
1698.0,0.000521466320689834
1697.0,0.0004779868710962365
1696.0,0.0003910410285830057
1695.0,0.0003475746339209884
1694.0,0.00030411258916074324
1693.0,0.0003475746339209884
1692.0,0.0003910410285830057
1691.0,0.00043451177401765406
1690.0,0.0004779868710962365
1689.0,0.00043451177401765406
1688.0,0.0003910410285830057
1687.0,0.0003910410285830057
1686.0,0.0003475746339209884
1685.0,0.0003475746339209884
1684.0,0.00043451177401765406
1683.0,0.00043451177401765406
1682.0,0.0003910410285830057
1681.0,0.0003910410285830057
1680.0,0.0003475746339209884
1679.0,0.0003475746339209884
1678.0,0.0003475746339209884
1677.0,0.0003475746339209884
1676.0,0.0003475746339209884
1675.0,0.00030411258916074324
1674.0,0.00030411258916074324
1673.0,0.00030411258916074324
1672.0,0.00030411258916074324
1671.0,0.0003475746339209884
1670.0,0.0003910410285830057
1669.0,0.0003910410285830057
1668.0,0.00043451177401765406
1667.0,0.00043451177401765406
1666.0,0.00043451177401765406
1665.0,0.00043451177401765406
1664.0,0.0003910410285830057
1663.0,0.0003475746339209884
1662.0,0.0003475746339209884
1661.0,0.00043451177401765406
1660.0,0.000521466320689834
1659.0,0.0005649501236701937
1658.0,0.000521466320689834
1657.0,0.0004779868710962365
1656.0,0.00043451177401765406
1655.0,0.00030411258916074324
1654.0,0.00017375254558760211
1653.0,0.00021720154586435392
1652.0,0.0003475746339209884
1651.0,0.00043451177401765406
1650.0,0.0004779868710962365
1649.0,0.0004779868710962365
1648.0,0.00043451177401765406
1647.0,0.0003910410285830057
1646.0,0.0003910410285830057
1645.0,0.00043451177401765406
1644.0,0.0004779868710962365
1643.0,0.0004779868710962365
1642.0,0.0004779868710962365
1641.0,0.0004779868710962365
1640.0,0.0004779868710962365
1639.0,0.000521466320689834
1638.0,0.0006084382809090627
1637.0,0.0006084382809090627
1636.0,0.0006084382809090627
1635.0,0.0005649501236701937
1634.0,0.000521466320689834
1633.0,0.0004779868710962365
1632.0,0.00043451177401765406
1631.0,0.0003910410285830057
1630.0,0.0003910410285830057
1629.0,0.0003910410285830057
1628.0,0.00043451177401765406
1627.0,0.000521466320689834
1626.0,0.000521466320689834
1625.0,0.0005649501236701937
1624.0,0.0006084382809090627
1623.0,0.0006084382809090627
1622.0,0.000521466320689834
1621.0,0.0004779868710962365
1620.0,0.00043451177401765406
1619.0,0.00043451177401765406
1618.0,0.0004779868710962365
1617.0,0.000521466320689834
1616.0,0.0005649501236701937
1615.0,0.0005649501236701937
1614.0,0.0006084382809090627
1613.0,0.0006519307932786322
1612.0,0.0006954276616513155
1611.0,0.0006954276616513155
1610.0,0.0006519307932786322
1609.0,0.0006084382809090627
1608.0,0.0005649501236701937
1607.0,0.000521466320689834
1606.0,0.0006084382809090627
1605.0,0.0006954276616513155
1604.0,0.000869458712629001
1603.0,0.0010000277816797354
1602.0,0.0010435595295137379
1601.0,0.0010000277816797354
1600.0,0.0009565003968372565
1599.0,0.0009565003968372565
1598.0,0.0009565003968372565
1597.0,0.0010000277816797354
1596.0,0.0010000277816797354
1595.0,0.0010435595295137379
1594.0,0.0010435595295137379
1593.0,0.0010435595295137379
1592.0,0.0010000277816797354
1591.0,0.0009565003968372565
1590.0,0.0009129773741116676
1589.0,0.0009129773741116676
1588.0,0.0009129773741116676
1587.0,0.000869458712629001
1586.0,0.0008259444115150671
1585.0,0.0007824344698965646
1584.0,0.0007824344698965646
1583.0,0.0007824344698965646
1582.0,0.0007824344698965646
1581.0,0.0007824344698965646
1580.0,0.0008259444115150671
1579.0,0.000869458712629001
1578.0,0.000869458712629001
1577.0,0.0009129773741116676
1576.0,0.000869458712629001
1575.0,0.0008259444115150671
1574.0,0.0007389288868995258
1573.0,0.0007389288868995258
1572.0,0.0007389288868995258
1571.0,0.0007389288868995258
1570.0,0.0006954276616513155
1569.0,0.0006954276616513155
1568.0,0.0006954276616513155
1567.0,0.0006954276616513155
1566.0,0.0006954276616513155
1565.0,0.0007389288868995258
1564.0,0.0007824344698965646
1563.0,0.0008259444115150671
1562.0,0.0009129773741116676
1561.0,0.0009565003968372565
1560.0,0.0009129773741116676
1559.0,0.0009129773741116676
1558.0,0.0009565003968372565
1557.0,0.0009565003968372565
1556.0,0.0009565003968372565
1555.0,0.0009129773741116676
1554.0,0.0009129773741116676
1553.0,0.0009129773741116676
1552.0,0.0009565003968372565
1551.0,0.0010435595295137379
1550.0,0.0010870956412141197
1549.0,0.0010435595295137379
1548.0,0.0010000277816797354
1547.0,0.0009565003968372565
1546.0,0.0010000277816797354
1545.0,0.0010435595295137379
1544.0,0.0011306361176557367
1543.0,0.0011741809597138886
1542.0,0.0012177301682640973
1541.0,0.0011741809597138886
1540.0,0.0010870956412141197
1539.0,0.0010000277816797354
1538.0,0.0009129773741116676
1537.0,0.000869458712629001
1536.0,0.000869458712629001
1535.0,0.0009129773741116676
1534.0,0.0010000277816797354
1533.0,0.0010435595295137379
1532.0,0.0010000277816797354
1531.0,0.0009129773741116676
1530.0,0.000869458712629001
1529.0,0.000869458712629001
1528.0,0.0008259444115150671
1527.0,0.0008259444115150671
1526.0,0.0007824344698965646
1525.0,0.0007824344698965646
1524.0,0.0008259444115150671
1523.0,0.0009129773741116676
1522.0,0.0010435595295137379
1521.0,0.0010870956412141197
1520.0,0.0010000277816797354
1519.0,0.0008259444115150671
1518.0,0.0007389288868995258
1517.0,0.0007389288868995258
1516.0,0.0008259444115150671
1515.0,0.0009129773741116676
1514.0,0.0009129773741116676
1513.0,0.0008259444115150671
1512.0,0.0006954276616513155
1511.0,0.0005649501236701937
1510.0,0.0004779868710962365
1509.0,0.0004779868710962365
1508.0,0.000521466320689834
1507.0,0.0006519307932786322
1506.0,0.0007389288868995258
1505.0,0.0007389288868995258
1504.0,0.0006954276616513155
1503.0,0.0006519307932786322
1502.0,0.0006519307932786322
1501.0,0.0007389288868995258
1500.0,0.0007824344698965646
1499.0,0.0007824344698965646
1498.0,0.0007824344698965646
1497.0,0.0008259444115150671
1496.0,0.0010000277816797354
1495.0,0.0012612837441823288
1494.0,0.0015226969634936083
1493.0,0.0017842676290416026
1492.0,0.001915112063444413
1491.0,0.0020023635919956817
1490.0,0.0019587356365717845
1489.0,0.0018278780605593958
1488.0,0.0017406615763013722
1487.0,0.0016534626036355249
1486.0,0.001609869681952425
1485.0,0.0015662811355310335
1484.0,0.0015662811355310335
1483.0,0.0015226969634936083
1482.0,0.0014791171649619628
1481.0,0.0014791171649619628
1480.0,0.0014355417390583547
1479.0,0.0014355417390583547
1478.0,0.0014355417390583547
1477.0,0.0013919706849057079
1476.0,0.0013919706849057079
1475.0,0.0013919706849057079
1474.0,0.0013919706849057079
1473.0,0.001348404001626502
1472.0,0.001304841688344327
1471.0,0.0012612837441823288
1470.0,0.0011741809597138886
1469.0,0.0011741809597138886
1468.0,0.0011741809597138886
1467.0,0.0012177301682640973
1466.0,0.0012177301682640973
1465.0,0.0012177301682640973
1464.0,0.0011306361176557367
1463.0,0.0010870956412141197
1462.0,0.0010000277816797354
1461.0,0.0010000277816797354
1460.0,0.0010435595295137379
1459.0,0.0011306361176557367
1458.0,0.001304841688344327
1457.0,0.0014791171649619628
1456.0,0.0015662811355310335
1455.0,0.0016534626036355249
1454.0,0.0017842676290416026
1453.0,0.001915112063444413
1452.0,0.002089632653256679
1451.0,0.0021769192542746563
1450.0,0.0021769192542746563
1449.0,0.0021769192542746563
1448.0,0.002089632653256679
1447.0,0.0019587356365717845
1446.0,0.0018714928717336043
1445.0,0.0018278780605593958
1444.0,0.0018278780605593958
1443.0,0.0018278780605593958
1442.0,0.0018714928717336043
1441.0,0.0018714928717336043
1440.0,0.001915112063444413
1439.0,0.0020023635919956817
1438.0,0.0020459959305969555
1437.0,0.0020459959305969555
1436.0,0.001915112063444413
1435.0,0.0017842676290416026
1434.0,0.0016534626036355249
1433.0,0.0016534626036355249
1432.0,0.0016534626036355249
1431.0,0.0017406615763013722
1430.0,0.0018278780605593958
1429.0,0.0018714928717336043
1428.0,0.001915112063444413
1427.0,0.001915112063444413
1426.0,0.001915112063444413
1425.0,0.0018714928717336043
1424.0,0.0018714928717336043
1423.0,0.0018714928717336043
1422.0,0.0018278780605593958
1421.0,0.0017842676290416026
1420.0,0.0017406615763013722
1419.0,0.0016970599014589638
1418.0,0.0017406615763013722
1417.0,0.0017406615763013722
1416.0,0.0017842676290416026
1415.0,0.0017842676290416026
1414.0,0.0017842676290416026
1413.0,0.0017842676290416026
1412.0,0.0017842676290416026
1411.0,0.0017842676290416026
1410.0,0.0017842676290416026
1409.0,0.0017406615763013722
1408.0,0.0017406615763013722
1407.0,0.0016534626036355249
1406.0,0.001609869681952425
1405.0,0.0015226969634936083
1404.0,0.0014355417390583547
1403.0,0.0013919706849057079
1402.0,0.0013919706849057079
1401.0,0.0014791171649619628
1400.0,0.0015226969634936083
1399.0,0.001609869681952425
1398.0,0.001609869681952425
1397.0,0.001609869681952425
1396.0,0.0015662811355310335
1395.0,0.0014791171649619628
1394.0,0.0013919706849057079
1393.0,0.001348404001626502
1392.0,0.001348404001626502
1391.0,0.0014355417390583547
1390.0,0.0014791171649619628
1389.0,0.0014791171649619628
1388.0,0.0014791171649619628
1387.0,0.0014791171649619628
1386.0,0.0014791171649619628
1385.0,0.0015226969634936083
1384.0,0.0015662811355310335
1383.0,0.0016534626036355249
1382.0,0.0016970599014589638
1381.0,0.0016970599014589638
1380.0,0.0016970599014589638
1379.0,0.0016970599014589638
1378.0,0.0017406615763013722
1377.0,0.0017842676290416026
1376.0,0.0018714928717336043
1375.0,0.0019587356365717845
1374.0,0.0020459959305969555
1373.0,0.0020459959305969555
1372.0,0.0020459959305969555
1371.0,0.0020023635919956817
1370.0,0.0020023635919956817
1369.0,0.0019587356365717845
1368.0,0.0020023635919956817
1367.0,0.0020459959305969555
1366.0,0.0021332737608552588
1365.0,0.0021769192542746563
1364.0,0.0022642234021015284
1363.0,0.0023078820582733695
1362.0,0.002351545103793873
1361.0,0.002351545103793873
1360.0,0.002351545103793873
1359.0,0.0022642234021015284
1358.0,0.0022205691343961664
1357.0,0.0021332737608552588
1356.0,0.0021332737608552588
1355.0,0.0021332737608552588
1354.0,0.0021332737608552588
1353.0,0.0021332737608552588
1352.0,0.002089632653256679
1351.0,0.002089632653256679
1350.0,0.0020459959305969555
1349.0,0.0020023635919956817
1348.0,0.0019587356365717845
1347.0,0.0019587356365717845
1346.0,0.0019587356365717845
1345.0,0.0019587356365717845
1344.0,0.0019587356365717845
1343.0,0.0019587356365717845
1342.0,0.0019587356365717845
1341.0,0.0019587356365717845
1340.0,0.0019587356365717845
1339.0,0.001915112063444413
1338.0,0.001915112063444413
1337.0,0.0018714928717336043
1336.0,0.0018278780605593958
1335.0,0.0018278780605593958
1334.0,0.0018278780605593958
1333.0,0.001915112063444413
1332.0,0.0019587356365717845
1331.0,0.0020023635919956817
1330.0,0.0020459959305969555
1329.0,0.0020459959305969555
1328.0,0.0020459959305969555
1327.0,0.0020459959305969555
1326.0,0.0020459959305969555
1325.0,0.002089632653256679
1324.0,0.0021332737608552588
1323.0,0.0021332737608552588
1322.0,0.0021769192542746563
1321.0,0.0022205691343961664
1320.0,0.0022642234021015284
1319.0,0.0023078820582733695
1318.0,0.002351545103793873
1317.0,0.002351545103793873
1316.0,0.002351545103793873
1315.0,0.002351545103793873
1314.0,0.002395212539545666
1313.0,0.0024388843664115978
1312.0,0.002482560585275184
1311.0,0.0025262411970197185
1310.0,0.002569926202528716
1309.0,0.002569926202528716
1308.0,0.002613615602686581
1307.0,0.002613615602686581
1306.0,0.002613615602686581
1305.0,0.002613615602686581
1304.0,0.002613615602686581
1303.0,0.002613615602686581
1302.0,0.002613615602686581
1301.0,0.002613615602686581
1300.0,0.002613615602686581
1299.0,0.002569926202528716
1298.0,0.0025262411970197185
1297.0,0.0025262411970197185
1296.0,0.002569926202528716
1295.0,0.002569926202528716
1294.0,0.0025262411970197185
1293.0,0.002482560585275184
1292.0,0.0024388843664115978
1291.0,0.002395212539545666
1290.0,0.002351545103793873
1289.0,0.002351545103793873
1288.0,0.002395212539545666
1287.0,0.002395212539545666
1286.0,0.002395212539545666
1285.0,0.002351545103793873
1284.0,0.002351545103793873
1283.0,0.002351545103793873
1282.0,0.002351545103793873
1281.0,0.0023078820582733695
1280.0,0.0022642234021015284
1279.0,0.0022642234021015284
1278.0,0.0022205691343961664
1277.0,0.0022205691343961664
1276.0,0.0022205691343961664
1275.0,0.0022642234021015284
1274.0,0.0022642234021015284
1273.0,0.0023078820582733695
1272.0,0.0023078820582733695
1271.0,0.0023078820582733695
1270.0,0.0022642234021015284
1269.0,0.0022642234021015284
1268.0,0.0023078820582733695
1267.0,0.0023078820582733695
1266.0,0.0023078820582733695
1265.0,0.002351545103793873
1264.0,0.002351545103793873
1263.0,0.002395212539545666
1262.0,0.002482560585275184
1261.0,0.0025262411970197185
1260.0,0.002569926202528716
1259.0,0.002613615602686581
1258.0,0.002613615602686581
1257.0,0.002613615602686581
1256.0,0.002613615602686581
1255.0,0.002613615602686581
1254.0,0.002613615602686581
1253.0,0.0026573093983774942
1252.0,0.002701007590486082
1251.0,0.0027447101798967477
1250.0,0.0027884171674950053
1249.0,0.0027884171674950053
1248.0,0.0027884171674950053
1247.0,0.0027884171674950053
1246.0,0.0027884171674950053
1245.0,0.0027884171674950053
1244.0,0.0028321285541661467
1243.0,0.0027884171674950053
1242.0,0.0027447101798967477
1241.0,0.002701007590486082
1240.0,0.002701007590486082
1239.0,0.002701007590486082
1238.0,0.0027447101798967477
1237.0,0.0027884171674950053
1236.0,0.0027884171674950053
1235.0,0.0027884171674950053
1234.0,0.0027447101798967477
1233.0,0.0027447101798967477
1232.0,0.0027447101798967477
1231.0,0.0027447101798967477
1230.0,0.002701007590486082
1229.0,0.002701007590486082
1228.0,0.0026573093983774942
1227.0,0.002701007590486082
1226.0,0.002701007590486082
1225.0,0.002701007590486082
1224.0,0.0026573093983774942
1223.0,0.002613615602686581
1222.0,0.002613615602686581
1221.0,0.002613615602686581
1220.0,0.002613615602686581
1219.0,0.002613615602686581
1218.0,0.002569926202528716
1217.0,0.002569926202528716
1216.0,0.002613615602686581
1215.0,0.002613615602686581
1214.0,0.002613615602686581
1213.0,0.002613615602686581
1212.0,0.002613615602686581
1211.0,0.002613615602686581
1210.0,0.0026573093983774942
1209.0,0.0027447101798967477
1208.0,0.0027884171674950053
1207.0,0.0027884171674950053
1206.0,0.0027884171674950053
1205.0,0.0027447101798967477
1204.0,0.0027447101798967477
1203.0,0.0027884171674950053
1202.0,0.0028758443407954637
1201.0,0.0029195645282691363
1200.0,0.0029195645282691363
1199.0,0.0029195645282691363
1198.0,0.0028758443407954637
1197.0,0.0028758443407954637
1196.0,0.0028758443407954637
1195.0,0.0028321285541661467
1194.0,0.0027447101798967477
1193.0,0.0027447101798967477
1192.0,0.0027884171674950053
1191.0,0.0028758443407954637
1190.0,0.0029195645282691363
1189.0,0.0029632891174733444
1188.0,0.0029632891174733444
1187.0,0.0029195645282691363
1186.0,0.0029195645282691363
1185.0,0.0029195645282691363
1184.0,0.0029632891174733444
1183.0,0.003050751504618754
1182.0,0.0030944893043338695
1181.0,0.0031819781204844855
1180.0,0.0031819781204844855
1179.0,0.0031819781204844855
1178.0,0.0031819781204844855
1177.0,0.0031819781204844855
1176.0,0.0031819781204844855
1175.0,0.0032257291386954545
1174.0,0.0032694845648473247
1173.0,0.0032257291386954545
1172.0,0.0031819781204844855
1171.0,0.0031819781204844855
1170.0,0.0031382315093266833
1169.0,0.0030944893043338695
1168.0,0.003050751504618754
1167.0,0.003050751504618754
1166.0,0.0030944893043338695
1165.0,0.0031382315093266833
1164.0,0.0031819781204844855
1163.0,0.0031819781204844855
1162.0,0.0031819781204844855
1161.0,0.0032257291386954545
1160.0,0.0032257291386954545
1159.0,0.0032257291386954545
1158.0,0.0031819781204844855
1157.0,0.0031819781204844855
1156.0,0.0032257291386954545
1155.0,0.0033132443998284966
1154.0,0.0034007772998332353
1153.0,0.003488327845821315
1152.0,0.0035321097382827737
1151.0,0.003488327845821315
1150.0,0.0034007772998332353
1149.0,0.0033132443998284966
1148.0,0.0032694845648473247
1147.0,0.0032694845648473247
1146.0,0.0032694845648473247
1145.0,0.0032257291386954545
1144.0,0.0032257291386954545
1143.0,0.0032257291386954545
1142.0,0.0032257291386954545
1141.0,0.0032694845648473247
1140.0,0.0033570086445275926
1139.0,0.0034007772998332353
1138.0,0.0034007772998332353
1137.0,0.0034007772998332353
1136.0,0.0033132443998284966
1135.0,0.0033132443998284966
1134.0,0.0033132443998284966
1133.0,0.0033570086445275926
1132.0,0.0033570086445275926
1131.0,0.0034007772998332353
1130.0,0.0033570086445275926
1129.0,0.0033132443998284966
1128.0,0.0033132443998284966
1127.0,0.0033132443998284966
1126.0,0.0033570086445275926
1125.0,0.0033570086445275926
1124.0,0.0033570086445275926
1123.0,0.0033132443998284966
1122.0,0.0033132443998284966
1121.0,0.0032694845648473247
1120.0,0.0033132443998284966
1119.0,0.0033132443998284966
1118.0,0.0033132443998284966
1117.0,0.0033132443998284966
1116.0,0.0033132443998284966
1115.0,0.0033132443998284966
1114.0,0.0033132443998284966
1113.0,0.0033132443998284966
1112.0,0.0033570086445275926
1111.0,0.0034445503666347133
1110.0,0.0035321097382827737
1109.0,0.0035321097382827737
1108.0,0.0035321097382827737
1107.0,0.0035321097382827737
1106.0,0.0035758960449088217
1105.0,0.0035758960449088217
1104.0,0.003619686766589858
1103.0,0.003619686766589858
1102.0,0.003619686766589858
1101.0,0.003619686766589858
1100.0,0.003619686766589858
1099.0,0.003619686766589858
1098.0,0.003619686766589858
1097.0,0.0036634819042162814
1096.0,0.003619686766589858
1095.0,0.0035321097382827737
1094.0,0.003488327845821315
1093.0,0.003488327845821315
1092.0,0.0035758960449088217
1091.0,0.003794893821675638
1090.0,0.003926345514724705
1089.0,0.003970171588923321
1088.0,0.003970171588923321
1087.0,0.003926345514724705
1086.0,0.0038825238627120395
1085.0,0.0038825238627120395
1084.0,0.0038387066319929275
1083.0,0.003794893821675638
1082.0,0.003794893821675638
1081.0,0.0038825238627120395
1080.0,0.003970171588923321
1079.0,0.00401400208620073
1078.0,0.00401400208620073
1077.0,0.00401400208620073
1076.0,0.00401400208620073
1075.0,0.00401400208620073
1074.0,0.003970171588923321
1073.0,0.003970171588923321
1072.0,0.0040578370074493275
1071.0,0.004145520125434121
1070.0,0.004233220950025984
1069.0,0.004277078004534696
1068.0,0.004277078004534696
1067.0,0.004277078004534696
1066.0,0.004233220950025984
1065.0,0.004233220950025984
1064.0,0.004189368323957332
1063.0,0.004145520125434121
1062.0,0.004101676353562844
1061.0,0.0040578370074493275
1060.0,0.004101676353562844
1059.0,0.004101676353562844
1058.0,0.004101676353562844
1057.0,0.003970171588923321
1056.0,0.0038387066319929275
1055.0,0.0037510854308679953
1054.0,0.0037510854308679953
1053.0,0.0038387066319929275
1052.0,0.00401400208620073
1051.0,0.004145520125434121
1050.0,0.004189368323957332
1049.0,0.004145520125434121
1048.0,0.004101676353562844
1047.0,0.0040578370074493275
1046.0,0.004101676353562844
1045.0,0.004189368323957332
1044.0,0.004233220950025984
1043.0,0.004233220950025984
1042.0,0.004277078004534696
1041.0,0.004277078004534696
1040.0,0.004277078004534696
1039.0,0.004277078004534696
1038.0,0.004320939488377862
1037.0,0.0043648054024501
1036.0,0.004408675747646695
1035.0,0.004452550524862486
1034.0,0.004540313378935901
1033.0,0.004628093971837721
1032.0,0.004759798137184523
1031.0,0.00489154225525934
1030.0,0.005023326350308999
1029.0,0.005155150446602086
1028.0,0.0052870145684298375
1027.0,0.00541891874010525
1026.0,0.005506877116487674
1025.0,0.005506877116487674
1024.0,0.005462895701502157
1023.0,0.00537494623139545
1022.0,0.005330978174470591
1021.0,0.005199100705396198
1020.0,0.005111204635089406
1019.0,0.005155150446602086
1018.0,0.005243055412371911
1017.0,0.0052870145684298375
1016.0,0.005243055412371911
1015.0,0.005111204635089406
1014.0,0.004979393875242044
1013.0,0.00489154225525934
1012.0,0.00484762310854614
1011.0,0.00489154225525934
1010.0,0.004935465843858511
1009.0,0.00489154225525934
1008.0,0.004759798137184523
1007.0,0.004715892310740433
1006.0,0.004759798137184523
1005.0,0.00484762310854614
1004.0,0.004935465843858511
1003.0,0.004935465843858511
1002.0,0.00489154225525934
1001.0,0.00484762310854614
1000.0,0.00489154225525934
999.0,0.004935465843858511
998.0,0.004935465843858511
997.0,0.004935465843858511
996.0,0.00489154225525934
995.0,0.004935465843858511
994.0,0.004979393875242044
993.0,0.005023326350308999
992.0,0.005067263269958211
991.0,0.005023326350308999
990.0,0.004979393875242044
989.0,0.004935465843858511
988.0,0.00484762310854614
987.0,0.004759798137184523
986.0,0.004715892310740433
985.0,0.004715892310740433
984.0,0.004759798137184523
983.0,0.004803708402820517
982.0,0.00489154225525934
981.0,0.004979393875242044
980.0,0.005155150446602086
979.0,0.0052870145684298375
978.0,0.00537494623139545
977.0,0.00541891874010525
976.0,0.00541891874010525
975.0,0.00537494623139545
974.0,0.0052870145684298375
973.0,0.005199100705396198
972.0,0.005111204635089406
971.0,0.005111204635089406
970.0,0.005155150446602086
969.0,0.005243055412371911
968.0,0.005330978174470591
967.0,0.00541891874010525
966.0,0.00541891874010525
965.0,0.00537494623139545
964.0,0.005330978174470591
963.0,0.0052870145684298375
962.0,0.005111204635089406
961.0,0.004979393875242044
960.0,0.00489154225525934
959.0,0.004935465843858511
958.0,0.005067263269958211
957.0,0.005199100705396198
956.0,0.005199100705396198
955.0,0.005155150446602086
954.0,0.005111204635089406
953.0,0.005111204635089406
952.0,0.005111204635089406
951.0,0.005111204635089406
950.0,0.005155150446602086
949.0,0.005155150446602086
948.0,0.005111204635089406
947.0,0.005067263269958211
946.0,0.004979393875242044
945.0,0.005023326350308999
944.0,0.005111204635089406
943.0,0.005199100705396198
942.0,0.005330978174470591
941.0,0.00541891874010525
940.0,0.005462895701502157
939.0,0.00541891874010525
938.0,0.00537494623139545
937.0,0.005330978174470591
936.0,0.0052870145684298375
935.0,0.005330978174470591
934.0,0.005330978174470591
933.0,0.005330978174470591
932.0,0.005243055412371911
931.0,0.005199100705396198
930.0,0.005155150446602086
929.0,0.005199100705396198
928.0,0.0052870145684298375
927.0,0.005462895701502157
926.0,0.005594853310833647
925.0,0.005682847330363394
924.0,0.005682847330363394
923.0,0.005638848091999105
922.0,0.005594853310833647
921.0,0.005638848091999105
920.0,0.005682847330363394
919.0,0.005726851026829571
918.0,0.00577085918230158
917.0,0.005814871797682919
916.0,0.005858888873877532
915.0,0.00590291041179003
914.0,0.006035001804881146
913.0,0.00612308505878878
912.0,0.00621118618129457
911.0,0.006343371384537999
910.0,0.006475596832934416
909.0,0.006519680930003435
908.0,0.006519680930003435
907.0,0.006475596832934416
906.0,0.006519680930003435
905.0,0.006607862550997545
904.0,0.006651960076740071
903.0,0.006651960076740071
902.0,0.006607862550997545
901.0,0.00656376950238835
900.0,0.006475596832934416
899.0,0.006387442061109638
898.0,0.006299305179649828
897.0,0.00621118618129457
896.0,0.006079041198713275
895.0,0.00590291041179003
894.0,0.005814871797682919
893.0,0.005726851026829571
892.0,0.005726851026829571
891.0,0.005682847330363394
890.0,0.005638848091999105
889.0,0.005550862985963967
888.0,0.005462895701502157
887.0,0.005462895701502157
886.0,0.005594853310833647
885.0,0.005682847330363394
884.0,0.005726851026829571
883.0,0.005726851026829571
882.0,0.005682847330363394
881.0,0.005682847330363394
880.0,0.00577085918230158
879.0,0.005814871797682919
878.0,0.005858888873877532
877.0,0.005814871797682919
876.0,0.00577085918230158
875.0,0.005682847330363394
874.0,0.005594853310833647
873.0,0.005506877116487674
872.0,0.005506877116487674
871.0,0.005638848091999105
870.0,0.005858888873877532
869.0,0.006035001804881146
868.0,0.00612308505878878
867.0,0.006035001804881146
866.0,0.00590291041179003
865.0,0.005814871797682919
864.0,0.00577085918230158
863.0,0.005858888873877532
862.0,0.006035001804881146
861.0,0.006167133386013823
860.0,0.00621118618129457
859.0,0.00621118618129457
858.0,0.006167133386013823
857.0,0.00621118618129457
856.0,0.00625524344553785
855.0,0.006299305179649828
854.0,0.00625524344553785
853.0,0.00621118618129457
852.0,0.006167133386013823
851.0,0.006167133386013823
850.0,0.00612308505878878
849.0,0.006079041198713275
848.0,0.006035001804881146
847.0,0.006079041198713275
846.0,0.00621118618129457
845.0,0.006431517210272464
844.0,0.00656376950238835
843.0,0.006696062080525422
842.0,0.006696062080525422
841.0,0.006696062080525422
840.0,0.006651960076740071
839.0,0.00656376950238835
838.0,0.006519680930003435
837.0,0.006387442061109638
836.0,0.006299305179649828
835.0,0.006167133386013823
834.0,0.006035001804881146
833.0,0.00590291041179003
832.0,0.005726851026829571
831.0,0.005726851026829571
830.0,0.005814871797682919
829.0,0.005990966876386672
828.0,0.006035001804881146
827.0,0.005946936412324799
826.0,0.005726851026829571
825.0,0.005462895701502157
824.0,0.0052870145684298375
823.0,0.0052870145684298375
822.0,0.005330978174470591
821.0,0.005462895701502157
820.0,0.005506877116487674
819.0,0.005462895701502157
818.0,0.005506877116487674
817.0,0.005638848091999105
816.0,0.005726851026829571
815.0,0.00577085918230158
814.0,0.00577085918230158
813.0,0.00577085918230158
812.0,0.005858888873877532
811.0,0.005946936412324799
810.0,0.005990966876386672
809.0,0.006035001804881146
808.0,0.006035001804881146
807.0,0.005946936412324799
806.0,0.005858888873877532
805.0,0.005858888873877532
804.0,0.005858888873877532
803.0,0.005946936412324799
802.0,0.005990966876386672
801.0,0.005990966876386672
800.0,0.005990966876386672
799.0,0.005946936412324799
798.0,0.005990966876386672
797.0,0.006035001804881146
796.0,0.006035001804881146
795.0,0.005946936412324799
794.0,0.005814871797682919
793.0,0.005682847330363394
792.0,0.005682847330363394
791.0,0.00577085918230158
790.0,0.005946936412324799
789.0,0.006079041198713275
788.0,0.006035001804881146
787.0,0.005946936412324799
786.0,0.00577085918230158
785.0,0.005682847330363394
784.0,0.005682847330363394
783.0,0.00577085918230158
782.0,0.00590291041179003
781.0,0.006167133386013823
780.0,0.006387442061109638
779.0,0.006475596832934416
778.0,0.006475596832934416
777.0,0.006519680930003435
776.0,0.006696062080525422
775.0,0.007049039429553483
774.0,0.0075790439479759275
773.0,0.008198201155356077
772.0,0.008818242332126802
771.0,0.009306039320248427
770.0,0.00974996707218323
769.0,0.010105436281226954
768.0,0.01037222925484893
767.0,0.010594681998483901
766.0,0.010817248744452446
765.0,0.011218156546359825
764.0,0.011797899741219142
763.0,0.012423105273012602
762.0,0.013049212141483357
761.0,0.013631406429727155
760.0,0.014214382227394795
759.0,0.014753209197138295
758.0,0.015202742910707112
757.0,0.01547268665620738
756.0,0.015607721475734415
755.0,0.015877917138889863
754.0,0.01628352608625061
753.0,0.01677978535189717
752.0,0.017141057687924732
751.0,0.01727661233145472
750.0,0.017186237868137555
749.0,0.017050711425501408
748.0,0.017005545341335804
747.0,0.017050711425501408
746.0,0.017095882207371904
745.0,0.017005545341335804
744.0,0.016870075265299933
743.0,0.016644385668211692
742.0,0.01628352608625061
741.0,0.015652742414136167
740.0,0.014888020460646079
739.0,0.014169510141607944
738.0,0.013631406429727155
737.0,0.013362604389846044
736.0,0.01318349541446362
735.0,0.012959713020733288
734.0,0.012557195064198723
733.0,0.012021084124518078
732.0,0.011351874764248926
731.0,0.010594681998483901
730.0,0.009794384815193347
729.0,0.009128595198514056
728.0,0.008596697419959609
727.0,0.008198201155356077
726.0,0.007888512213050314
725.0,0.0075790439479759275
724.0,0.007181479933320523
723.0,0.006740168563263094
722.0,0.006343371384537999
721.0,0.006035001804881146
720.0,0.005858888873877532
719.0,0.005594853310833647
718.0,0.005243055412371911
717.0,0.004935465843858511
716.0,0.004759798137184523
715.0,0.004803708402820517
714.0,0.004935465843858511
713.0,0.005067263269958211
712.0,0.005155150446602086
711.0,0.00537494623139545
710.0,0.006035001804881146
709.0,0.007181479933320523
708.0,0.008773924307505121
707.0,0.010639186223752484
706.0,0.012959713020733288
705.0,0.015832872853011715
704.0,0.019269623464054586
703.0,0.02296266477531872
702.0,0.026733563891471412
701.0,0.030444315779156517
700.0,0.03409308450480819
699.0,0.037488606492403154
698.0,0.04057697805689475
697.0,0.04325545471730896
696.0,0.04537162249272897
695.0,0.04662694927330402
694.0,0.04672366333269573
693.0,0.045564513671517703
692.0,0.0433514207947967
691.0,0.040481623027001756
690.0,0.037488606492403154
689.0,0.03479829897408804
688.0,0.032592443402527316
687.0,0.030910397045078586
686.0,0.029513651152349718
685.0,0.028353117935693284
684.0,0.02724191609646076
683.0,0.02617967564731627
682.0,0.025304128090317013
681.0,0.024660115394541604
680.0,0.024154774532432866
679.0,0.023604163388120325
678.0,0.023054249440757957
677.0,0.022505030926963654
676.0,0.021910826943857264
675.0,0.021271822861508305
674.0,0.020907099361673565
673.0,0.0209982515252789
672.0,0.021317434843055594
671.0,0.0211806132671577
670.0,0.01990568621470623
669.0,0.017321806616515723
668.0,0.015112798935672522
667.0,0.015112798935672522
666.0,0.016418813294209356
665.0,0.017547848615010242
664.0,0.018136109008649592
663.0,0.018181392829336396
662.0,0.01800028587012159
661.0,0.017728766960431575
660.0,0.017502630802287644
659.0,0.01727661233145472
658.0,0.017005545341335804
657.0,0.016599261819461697
656.0,0.016148281008528276
655.0,0.015562705203923999
654.0,0.015112798935672522
653.0,0.014888020460646079
652.0,0.015022873584506602
651.0,0.015517693597737248
650.0,0.016193358021584725
649.0,0.016689514205884493
648.0,0.01677978535189717
647.0,0.016509028184833463
646.0,0.01628352608625061
645.0,0.016193358021584725
644.0,0.016193358021584725
643.0,0.01596801972881945
642.0,0.015562705203923999
641.0,0.015112798935672522
640.0,0.014663358264387139
639.0,0.014349026309051105
638.0,0.014438812226654996
637.0,0.014932966849499074
636.0,0.015562705203923999
635.0,0.01578783323856614
634.0,0.015562705203923999
633.0,0.015157768594724175
632.0,0.014843078722943437
631.0,0.014843078722943437
630.0,0.015157768594724175
629.0,0.01578783323856614
628.0,0.016373712875465518
627.0,0.016734647433454652
626.0,0.016915227262211507
625.0,0.017095882207371904
624.0,0.017547848615010242
623.0,0.01809082990920774
622.0,0.018679826740892747
621.0,0.0192242260373785
620.0,0.019723858922159776
619.0,0.019996628416253603
618.0,0.019996628416253603
617.0,0.019860222254245663
616.0,0.01954210772389997
615.0,0.018951941086827073
614.0,0.018226681372252695
613.0,0.01768353030793479
612.0,0.017547848615010242
611.0,0.01781925440359733
610.0,0.018679826740892747
609.0,0.01995115493504329
608.0,0.0211806132671577
607.0,0.02159120737696063
606.0,0.0209982515252789
605.0,0.01995115493504329
604.0,0.019133445417920836
603.0,0.01899731005860028
602.0,0.0192242260373785
601.0,0.01940584422377989
600.0,0.019042683770379876
