cm-1,A
4000.0,0.035740369803151095
3999.0,0.035646070707806565
3998.0,0.03550466044490741
3997.0,0.035363296211498474
3996.0,0.03522197797762394
3995.0,0.03526907894637077
3994.0,0.03545753392086315
3993.0,0.03559892883726867
3992.0,0.035693217696063595
3991.0,0.035646070707806565
3990.0,0.03555179208333925
3989.0,0.03550466044490741
3988.0,0.035363296211498474
3987.0,0.03522197797762394
3986.0,0.03503362516890207
3985.0,0.0349394793888016
3984.0,0.03503362516890207
3983.0,0.03526907894637077
3982.0,0.03555179208333925
3981.0,0.03578752703018084
3980.0,0.03578752703018084
3979.0,0.035693217696063595
3978.0,0.03559892883726867
3977.0,0.03545753392086315
3976.0,0.03541041251009669
3975.0,0.03541041251009669
3974.0,0.03550466044490741
3973.0,0.035646070707806565
3972.0,0.035646070707806565
3971.0,0.03559892883726867
3970.0,0.03541041251009669
3969.0,0.03526907894637077
3968.0,0.03517488211661135
3967.0,0.03522197797762394
3966.0,0.03531618502395939
3965.0,0.035363296211498474
3964.0,0.03541041251009669
3963.0,0.03545753392086315
3962.0,0.03555179208333925
3961.0,0.035693217696063595
3960.0,0.03583468937826462
3959.0,0.03597620715996652
3958.0,0.0360705779734416
3957.0,0.03597620715996652
3956.0,0.035740369803151095
3955.0,0.03545753392086315
3954.0,0.03522197797762394
3953.0,0.03512779136222477
3952.0,0.03517488211661135
3951.0,0.03522197797762394
3950.0,0.03526907894637077
3949.0,0.03522197797762394
3948.0,0.03512779136222477
3947.0,0.03508070571335731
3946.0,0.03512779136222477
3945.0,0.03531618502395939
3944.0,0.035693217696063595
3943.0,0.0360705779734416
3942.0,0.03625938114211591
3941.0,0.03616496929785207
3940.0,0.03592902944204468
3939.0,0.03583468937826462
3938.0,0.03588185684851508
3937.0,0.03588185684851508
3936.0,0.035740369803151095
3935.0,0.03559892883726867
3934.0,0.03550466044490741
3933.0,0.03545753392086315
3932.0,0.03550466044490741
3931.0,0.035646070707806565
3930.0,0.03578752703018084
3929.0,0.03578752703018084
3928.0,0.03555179208333925
3927.0,0.03522197797762394
3926.0,0.03508070571335731
3925.0,0.03503362516890207
3924.0,0.03498654972775217
3923.0,0.03475124903287918
3922.0,0.034469056377139484
3921.0,0.03437503289075727
3920.0,0.03442204208947208
3919.0,0.034469056377139484
3918.0,0.03470420418834386
3917.0,0.03508070571335731
3916.0,0.03541041251009669
3915.0,0.03555179208333925
3914.0,0.035693217696063595
3913.0,0.03597620715996652
3912.0,0.03635381351515665
3911.0,0.03668448861388862
3910.0,0.036873558918095295
3909.0,0.03682628362474838
3908.0,0.03644826642590382
3907.0,0.03578752703018084
3906.0,0.03512779136222477
3905.0,0.03475124903287918
3904.0,0.03475124903287918
3903.0,0.03489241415094413
3902.0,0.0349394793888016
3901.0,0.03508070571335731
3900.0,0.03555179208333925
3899.0,0.03602339000339416
3898.0,0.03621217265444465
3897.0,0.03616496929785207
3896.0,0.03602339000339416
3895.0,0.03597620715996652
3894.0,0.03592902944204468
3893.0,0.03592902944204468
3892.0,0.03621217265444465
3891.0,0.036542739883292485
3890.0,0.03630659476198117
3889.0,0.035646070707806565
3888.0,0.03541041251009669
3887.0,0.03578752703018084
3886.0,0.03616496929785207
3885.0,0.03602339000339416
3884.0,0.03531618502395939
3883.0,0.03470420418834386
3882.0,0.03479829897408804
3881.0,0.03531618502395939
3880.0,0.035740369803151095
3879.0,0.035740369803151095
3878.0,0.03545753392086315
3877.0,0.03545753392086315
3876.0,0.035740369803151095
3875.0,0.03588185684851508
3874.0,0.035363296211498474
3873.0,0.03432802877989327
3872.0,0.033482823553208085
3871.0,0.03357665405630694
3870.0,0.03423403581731388
3869.0,0.03456310022373987
3868.0,0.03414006319292828
3867.0,0.033905220553829274
3866.0,0.03437503289075727
3865.0,0.03479829897408804
3864.0,0.03465716443937783
3863.0,0.034469056377139484
3862.0,0.03465716443937783
3861.0,0.03508070571335731
3860.0,0.03541041251009669
3859.0,0.03541041251009669
3858.0,0.03522197797762394
3857.0,0.03489241415094413
3856.0,0.03465716443937783
3855.0,0.03470420418834386
3854.0,0.03541041251009669
3853.0,0.03649550058570927
3852.0,0.03663723389626394
3851.0,0.03545753392086315
3850.0,0.03526907894637077
3849.0,0.03630659476198117
3848.0,0.03701541568300293
3847.0,0.0371100126082089
3846.0,0.0369681249461018
3845.0,0.036779013477011624
3844.0,0.03649550058570927
3843.0,0.03597620715996652
3842.0,0.03522197797762394
3841.0,0.03456310022373987
3840.0,0.03423403581731388
3839.0,0.03423403581731388
3838.0,0.03437503289075727
3837.0,0.03428102975577918
3836.0,0.03409308450480819
3835.0,0.03399914237121604
3834.0,0.03437503289075727
3833.0,0.0349394793888016
3832.0,0.03545753392086315
3831.0,0.035740369803151095
3830.0,0.03588185684851508
3829.0,0.036117771071222604
3828.0,0.036401037402758574
3827.0,0.036542739883292485
3826.0,0.036117771071222604
3825.0,0.03517488211661135
3824.0,0.03442204208947208
3823.0,0.03437503289075727
3822.0,0.03489241415094413
3821.0,0.035363296211498474
3820.0,0.03517488211661135
3819.0,0.03428102975577918
3818.0,0.03423403581731388
3817.0,0.03550466044490741
3816.0,0.036779013477011624
3815.0,0.037062711569998186
3814.0,0.036542739883292485
3813.0,0.03644826642590382
3812.0,0.0371573187987575
3811.0,0.03767802727041558
3810.0,0.03744126420403626
3809.0,0.03692083935817303
3808.0,0.03668448861388862
3807.0,0.03658998431977123
3806.0,0.0360705779734416
3805.0,0.0349394793888016
3804.0,0.03409308450480819
3803.0,0.03423403581731388
3802.0,0.03489241415094413
3801.0,0.03541041251009669
3800.0,0.035363296211498474
3799.0,0.03498654972775217
3798.0,0.03545753392086315
3797.0,0.036542739883292485
3796.0,0.037251946641359446
3795.0,0.03744126420403626
3794.0,0.037488606492403154
3793.0,0.03777276864991497
3792.0,0.038151940981675736
3791.0,0.038436537637930535
3790.0,0.038436537637930535
3789.0,0.038436537637930535
3788.0,0.03838909190871931
3787.0,0.03829421599749461
3786.0,0.038199360808321536
3785.0,0.03800971255993524
3784.0,0.03772539537668518
3783.0,0.037299268295658994
3782.0,0.0369681249461018
3781.0,0.0369681249461018
3780.0,0.0371100126082089
3779.0,0.037299268295658994
3778.0,0.037346595106788616
3777.0,0.037488606492403154
3776.0,0.03791491948264003
3775.0,0.03838909190871931
3774.0,0.03848398855105106
3773.0,0.03810452633214956
3772.0,0.03763066432997886
3771.0,0.03744126420403626
3770.0,0.037488606492403154
3769.0,0.03739392707587297
3768.0,0.037251946641359446
3767.0,0.037346595106788616
3766.0,0.03786753070176463
3765.0,0.038341651362284734
3764.0,0.03838909190871931
3763.0,0.03810452633214956
3762.0,0.03791491948264003
3761.0,0.03782014709123227
3760.0,0.03753595394209874
3759.0,0.037062711569998186
3758.0,0.03682628362474838
3757.0,0.036731748473764814
3756.0,0.036542739883292485
3755.0,0.03621217265444465
3754.0,0.03592902944204468
3753.0,0.03550466044490741
3752.0,0.03498654972775217
3751.0,0.03489241415094413
3750.0,0.03531618502395939
3749.0,0.03531618502395939
3748.0,0.034469056377139484
3747.0,0.033952178923546183
3746.0,0.03456310022373987
3745.0,0.03588185684851508
3744.0,0.03692083935817303
3743.0,0.036731748473764814
3742.0,0.03592902944204468
3741.0,0.036117771071222604
3740.0,0.036873558918095295
3739.0,0.036731748473764814
3738.0,0.03578752703018084
3737.0,0.03479829897408804
3736.0,0.03409308450480819
3735.0,0.03357665405630694
3734.0,0.033482823553208085
3733.0,0.03399914237121604
3732.0,0.03503362516890207
3731.0,0.03592902944204468
3730.0,0.036401037402758574
3729.0,0.03663723389626394
3728.0,0.036779013477011624
3727.0,0.03668448861388862
3726.0,0.036401037402758574
3725.0,0.03616496929785207
3724.0,0.03621217265444465
3723.0,0.03649550058570927
3722.0,0.03658998431977123
3721.0,0.036542739883292485
3720.0,0.036542739883292485
3719.0,0.036873558918095295
3718.0,0.03744126420403626
3717.0,0.03786753070176463
3716.0,0.03786753070176463
3715.0,0.037583306554248797
3714.0,0.037299268295658994
3713.0,0.0369681249461018
3712.0,0.03658998431977123
3711.0,0.03635381351515665
3710.0,0.03635381351515665
3709.0,0.03644826642590382
3708.0,0.036731748473764814
3707.0,0.0371100126082089
3706.0,0.037346595106788616
3705.0,0.037251946641359446
3704.0,0.037062711569998186
3703.0,0.0369681249461018
3702.0,0.03701541568300293
3701.0,0.0371100126082089
3700.0,0.0371573187987575
3699.0,0.037251946641359446
3698.0,0.03753595394209874
3697.0,0.03786753070176463
3696.0,0.03782014709123227
3695.0,0.037488606492403154
3694.0,0.037062711569998186
3693.0,0.036779013477011624
3692.0,0.03644826642590382
3691.0,0.03616496929785207
3690.0,0.03630659476198117
3689.0,0.036873558918095295
3688.0,0.037346595106788616
3687.0,0.037346595106788616
3686.0,0.03744126420403626
3685.0,0.038199360808321536
3684.0,0.03905380426616856
3683.0,0.03929144831144349
3682.0,0.039006291057664066
3681.0,0.03857890593355173
3680.0,0.038151940981675736
3679.0,0.037488606492403154
3678.0,0.036779013477011624
3677.0,0.03649550058570927
3676.0,0.03692083935817303
3675.0,0.03763066432997886
3674.0,0.03739392707587297
3673.0,0.036542739883292485
3672.0,0.036731748473764814
3671.0,0.03772539537668518
3670.0,0.03838909190871931
3669.0,0.038721320914956836
3668.0,0.038958783046687984
3667.0,0.03943409718180235
3666.0,0.04038628892895613
3665.0,0.04124505013091051
3664.0,0.04167506835594681
3663.0,0.04181850243505214
3662.0,0.04186632432376469
3661.0,0.0417706858116178
3660.0,0.041436116778032606
3659.0,0.041006334969674096
3658.0,0.04076775094900409
3657.0,0.04086316882962593
3656.0,0.041101805289228244
3655.0,0.041006334969674096
3654.0,0.04038628892895613
3653.0,0.03981472339538916
3652.0,0.03924390909822728
3651.0,0.03829421599749461
3650.0,0.037251946641359446
3649.0,0.0371573187987575
3648.0,0.03800971255993524
3647.0,0.038816290187564384
3646.0,0.03938654235209116
3645.0,0.04014804520039483
3644.0,0.04105406750606355
3643.0,0.04186632432376469
3642.0,0.04229695845116854
3641.0,0.04244059810252043
3640.0,0.042392712939904875
3639.0,0.04229695845116854
3638.0,0.04210551278710151
3637.0,0.04181850243505214
3636.0,0.04153168163305643
3635.0,0.04138834223512067
3634.0,0.041149548320321694
3633.0,0.04062466342415694
3632.0,0.039909932095080425
3631.0,0.03952922246570112
3630.0,0.03962436858984186
3629.0,0.04010041213405646
3628.0,0.040529297924893015
3627.0,0.040243327009005014
3626.0,0.0400527842915015
3625.0,0.04057697805689475
3624.0,0.041149548320321694
3623.0,0.041101805289228244
3622.0,0.04076775094900409
3621.0,0.04043395336207234
3620.0,0.040338629726504704
3619.0,0.040243327009005014
3618.0,0.040005161671583744
3617.0,0.03962436858984186
3616.0,0.039338992729018196
3615.0,0.03938654235209116
3614.0,0.03957679292217042
3613.0,0.039767126871487646
3612.0,0.039909932095080425
3611.0,0.0400527842915015
3610.0,0.0402909757535701
3609.0,0.040529297924893015
3608.0,0.04076775094900409
3607.0,0.040958607678906356
3606.0,0.041149548320321694
3605.0,0.041197296600497646
3604.0,0.041149548320321694
3603.0,0.041006334969674096
3602.0,0.04076775094900409
3601.0,0.040672354027829094
3600.0,0.04057697805689475
3599.0,0.040481623027001756
3598.0,0.040338629726504704
3597.0,0.04019568349166214
3596.0,0.04014804520039483
3595.0,0.04014804520039483
3594.0,0.040243327009005014
3593.0,0.04038628892895613
3592.0,0.04057697805689475
3591.0,0.04081545726880842
3590.0,0.041006334969674096
3589.0,0.041149548320321694
3588.0,0.041197296600497646
3587.0,0.041340572947066834
3586.0,0.041483896576958834
3585.0,0.041627267521392675
3584.0,0.04186632432376469
3583.0,0.04215336629184985
3582.0,0.042344833056508824
3581.0,0.04248848854552012
3580.0,0.04272802000705722
3579.0,0.043063586155803746
3578.0,0.04344740808260106
3577.0,0.043735497301724546
3576.0,0.04387961360698034
3575.0,0.0439276630048171
3574.0,0.0439276630048171
3573.0,0.04368746915880539
3572.0,0.04325545471730896
3571.0,0.04268010314465909
3570.0,0.042057664554595586
3569.0,0.04153168163305643
3568.0,0.04129280891271536
3567.0,0.041579471947481794
3566.0,0.04229695845116854
3565.0,0.042967683653061695
3564.0,0.04339941178682327
3563.0,0.04383156952463674
3562.0,0.04421607108308856
3561.0,0.04440844959427559
3560.0,0.04450467081587295
3559.0,0.04450467081587295
3558.0,0.04455278942230456
3557.0,0.04469717723830824
3556.0,0.04488976902944808
3555.0,0.04503426894157925
3554.0,0.044986096961949995
3553.0,0.04484161307420642
3552.0,0.04469717723830824
3551.0,0.04460091336073302
3550.0,0.04460091336073302
3549.0,0.04464904263234004
3548.0,0.04474531717982
3547.0,0.04469717723830824
3546.0,0.04455278942230456
3545.0,0.044360346976747955
3544.0,0.044312249686494276
3543.0,0.044456557540257124
3542.0,0.04484161307420642
3541.0,0.0451788169482068
3540.0,0.045323413081356456
3539.0,0.045323413081356456
3538.0,0.04527520902093718
3537.0,0.04537162249272897
3536.0,0.045660991397539874
3535.0,0.04599883231842972
3534.0,0.04628861957244457
3533.0,0.04633693625290869
3532.0,0.04628861957244457
3531.0,0.04628861957244457
3530.0,0.04633693625290869
3529.0,0.04653025674659861
3528.0,0.04682039893436585
3527.0,0.047062332249019345
3526.0,0.04715914332429838
3525.0,0.04711073508906982
3524.0,0.04696554274964315
3523.0,0.0469171560879138
3522.0,0.0469171560879138
3521.0,0.04701393480294458
3520.0,0.04720755695590784
3519.0,0.04749815213697639
3518.0,0.0478374257855374
3517.0,0.04827402457540786
3516.0,0.04875964967565971
3515.0,0.049148541111453614
3514.0,0.049245818406496555
3513.0,0.049148541111453614
3512.0,0.048905443158337114
3511.0,0.04885683989244738
3510.0,0.049148541111453614
3509.0,0.04968383607539972
3508.0,0.05012229596312534
3507.0,0.05021979163799939
3506.0,0.05012229596312534
3505.0,0.04987865248862655
3504.0,0.04978123335813667
3503.0,0.04997609347667353
3502.0,0.05036607620073763
3501.0,0.05065879322950262
3500.0,0.050805225762017736
3499.0,0.05065879322950262
3498.0,0.050463626623857394
3497.0,0.050414848673348
3496.0,0.05051241005349638
3495.0,0.050707598587974356
3494.0,0.05085404758005607
3493.0,0.050902874887084115
3492.0,0.05075640943173498
3491.0,0.05056119896349576
3490.0,0.05026854768429301
3489.0,0.049927370249842395
3488.0,0.04958646063061889
3487.0,0.04934311749548925
3486.0,0.049294465226138895
3485.0,0.049294465226138895
3484.0,0.049294465226138895
3483.0,0.04919717703534143
3482.0,0.04909991063361274
3481.0,0.04909991063361274
3480.0,0.04919717703534143
3479.0,0.04934311749548925
3478.0,0.04939177521576932
3477.0,0.04939177521576932
3476.0,0.04934311749548925
3475.0,0.049294465226138895
3474.0,0.04934311749548925
3473.0,0.04944043838819989
3472.0,0.04948910701400333
3471.0,0.04939177521576932
3470.0,0.049148541111453614
3469.0,0.048808242065293994
3468.0,0.04841965509660828
3467.0,0.048128442871635535
3466.0,0.047934409814949674
3465.0,0.047934409814949674
3464.0,0.04807992647970649
3463.0,0.048225491918274965
3462.0,0.04827402457540786
3461.0,0.048225491918274965
3460.0,0.048225491918274965
3459.0,0.04832256265669943
3458.0,0.048468209457651845
3457.0,0.048565334467987054
3456.0,0.04851676924770687
3455.0,0.04837110616336182
3454.0,0.04817696468408794
3453.0,0.04807992647970649
3452.0,0.04807992647970649
3451.0,0.04817696468408794
3450.0,0.04837110616336182
3449.0,0.048565334467987054
3448.0,0.04866248120408234
3447.0,0.0486139051197072
3446.0,0.04837110616336182
3445.0,0.04807992647970649
3444.0,0.047934409814949674
3443.0,0.047934409814949674
3442.0,0.047982909952573705
3441.0,0.047982909952573705
3440.0,0.047982909952573705
3439.0,0.04807992647970649
3438.0,0.04827402457540786
3437.0,0.04851676924770687
3436.0,0.0486139051197072
3435.0,0.048565334467987054
3434.0,0.04832256265669943
3433.0,0.04807992647970649
3432.0,0.0478374257855374
3431.0,0.04774046340917959
3430.0,0.047691990337874746
3429.0,0.04774046340917959
3428.0,0.047885915093007325
3427.0,0.048128442871635535
3426.0,0.048468209457651845
3425.0,0.04875964967565971
3424.0,0.04885683989244738
3423.0,0.048808242065293994
3422.0,0.04866248120408234
3421.0,0.048468209457651845
3420.0,0.04832256265669943
3419.0,0.04817696468408794
3418.0,0.04807992647970649
3417.0,0.04803141550708934
3416.0,0.04803141550708934
3415.0,0.04803141550708934
3414.0,0.04807992647970649
3413.0,0.04817696468408794
3412.0,0.04837110616336182
3411.0,0.04851676924770687
3410.0,0.048565334467987054
3409.0,0.04841965509660828
3408.0,0.04827402457540786
3407.0,0.04817696468408794
3406.0,0.048225491918274965
3405.0,0.04841965509660828
3404.0,0.04851676924770687
3403.0,0.04841965509660828
3402.0,0.04817696468408794
3401.0,0.047885915093007325
3400.0,0.04774046340917959
3399.0,0.04774046340917959
3398.0,0.047885915093007325
3397.0,0.04807992647970649
3396.0,0.048225491918274965
3395.0,0.048225491918274965
3394.0,0.048225491918274965
3393.0,0.048225491918274965
3392.0,0.04827402457540786
3391.0,0.048468209457651845
3390.0,0.048808242065293994
3389.0,0.04909991063361274
3388.0,0.04934311749548925
3387.0,0.04934311749548925
3386.0,0.049245818406496555
3385.0,0.049148541111453614
3384.0,0.04909991063361274
3383.0,0.04900266601119507
3382.0,0.048808242065293994
3381.0,0.048565334467987054
3380.0,0.04837110616336182
3379.0,0.048225491918274965
3378.0,0.048225491918274965
3377.0,0.04827402457540786
3376.0,0.048468209457651845
3375.0,0.04866248120408234
3374.0,0.048808242065293994
3373.0,0.04875964967565971
3372.0,0.04871106272232795
3371.0,0.04866248120408234
3370.0,0.04866248120408234
3369.0,0.04866248120408234
3368.0,0.048565334467987054
3367.0,0.048468209457651845
3366.0,0.048468209457651845
3365.0,0.048565334467987054
3364.0,0.04871106272232795
3363.0,0.048954051864180226
3362.0,0.049148541111453614
3361.0,0.049294465226138895
3360.0,0.04939177521576932
3359.0,0.04939177521576932
3358.0,0.049294465226138895
3357.0,0.04919717703534143
3356.0,0.04900266601119507
3355.0,0.04885683989244738
3354.0,0.04875964967565971
3353.0,0.04885683989244738
3352.0,0.04905128560059957
3351.0,0.04934311749548925
3350.0,0.04948910701400333
3349.0,0.04958646063061889
3348.0,0.04968383607539972
3347.0,0.04987865248862655
3346.0,0.050073556332087765
3345.0,0.050073556332087765
3344.0,0.04982994019179987
3343.0,0.04948910701400333
3342.0,0.04919717703534143
3341.0,0.04900266601119507
3340.0,0.048954051864180226
3339.0,0.04900266601119507
3338.0,0.04905128560059957
3337.0,0.04909991063361274
3336.0,0.049148541111453614
3335.0,0.049148541111453614
3334.0,0.049245818406496555
3333.0,0.049294465226138895
3332.0,0.04944043838819989
3331.0,0.04953778109440221
3330.0,0.04963514562387683
3329.0,0.04973253198641148
3328.0,0.04978123335813667
3327.0,0.04968383607539972
3326.0,0.04948910701400333
3325.0,0.04934311749548925
3324.0,0.04939177521576932
3323.0,0.04953778109440221
3322.0,0.04968383607539972
3321.0,0.04978123335813667
3320.0,0.04987865248862655
3319.0,0.04997609347667353
3318.0,0.050171041064686284
3317.0,0.05036607620073763
3316.0,0.050463626623857394
3315.0,0.05051241005349638
3314.0,0.050463626623857394
3313.0,0.050414848673348
3312.0,0.05026854768429301
3311.0,0.050171041064686284
3310.0,0.050073556332087765
3309.0,0.05002482217034632
3308.0,0.04997609347667353
3307.0,0.050073556332087765
3306.0,0.050171041064686284
3305.0,0.05026854768429301
3304.0,0.050317309204795935
3303.0,0.050317309204795935
3302.0,0.05036607620073763
3301.0,0.05056119896349576
3300.0,0.050805225762017736
3299.0,0.05100054597304693
3298.0,0.05095170768433621
3297.0,0.05075640943173498
3296.0,0.0506099933550872
3295.0,0.05051241005349638
3294.0,0.050463626623857394
3293.0,0.05051241005349638
3292.0,0.05056119896349576
3291.0,0.050707598587974356
3290.0,0.05085404758005607
3289.0,0.05095170768433621
3288.0,0.050902874887084115
3287.0,0.050805225762017736
3286.0,0.050707598587974356
3285.0,0.0506099933550872
3284.0,0.050463626623857394
3283.0,0.05021979163799939
3282.0,0.050073556332087765
3281.0,0.05012229596312534
3280.0,0.05036607620073763
3279.0,0.0506099933550872
3278.0,0.050707598587974356
3277.0,0.050707598587974356
3276.0,0.0506099933550872
3275.0,0.05056119896349576
3274.0,0.050414848673348
3273.0,0.05036607620073763
3272.0,0.050463626623857394
3271.0,0.050805225762017736
3270.0,0.051244819831730126
3269.0,0.05148923116234294
3268.0,0.051244819831730126
3267.0,0.0506099933550872
3266.0,0.05002482217034632
3265.0,0.04982994019179987
3264.0,0.05002482217034632
3263.0,0.05026854768429301
3262.0,0.050463626623857394
3261.0,0.05051241005349638
3260.0,0.0506099933550872
3259.0,0.05075640943173498
3258.0,0.050805225762017736
3257.0,0.050707598587974356
3256.0,0.05056119896349576
3255.0,0.050463626623857394
3254.0,0.05051241005349638
3253.0,0.05051241005349638
3252.0,0.050414848673348
3251.0,0.05021979163799939
3250.0,0.050073556332087765
3249.0,0.05012229596312534
3248.0,0.05026854768429301
3247.0,0.05036607620073763
3246.0,0.050317309204795935
3245.0,0.05026854768429301
3244.0,0.05026854768429301
3243.0,0.050414848673348
3242.0,0.0506099933550872
3241.0,0.05075640943173498
3240.0,0.05085404758005607
3239.0,0.05095170768433621
3238.0,0.051049389754451946
3237.0,0.051098239029786274
3236.0,0.05119595406718891
3235.0,0.05119595406718891
3234.0,0.05119595406718891
3233.0,0.05114709380028648
3232.0,0.051049389754451946
3231.0,0.050902874887084115
3230.0,0.050805225762017736
3229.0,0.05085404758005607
3228.0,0.051049389754451946
3227.0,0.05134256785867963
3226.0,0.05144033789103841
3225.0,0.05134256785867963
3224.0,0.051098239029786274
3223.0,0.05085404758005607
3222.0,0.05075640943173498
3221.0,0.050805225762017736
3220.0,0.05100054597304693
3219.0,0.05139145012356372
3218.0,0.05178270644002936
3217.0,0.05192951848105887
3216.0,0.051684859310652254
3215.0,0.05114709380028648
3214.0,0.05065879322950262
3213.0,0.05036607620073763
3212.0,0.05036607620073763
3211.0,0.05056119896349576
3210.0,0.050805225762017736
3209.0,0.05100054597304693
3208.0,0.05119595406718891
3207.0,0.05129369109514803
3206.0,0.051244819831730126
3205.0,0.051098239029786274
3204.0,0.05095170768433621
3203.0,0.050805225762017736
3202.0,0.050707598587974356
3201.0,0.05065879322950262
3200.0,0.0506099933550872
3199.0,0.05051241005349638
3198.0,0.05051241005349638
3197.0,0.05065879322950262
3196.0,0.05085404758005607
3195.0,0.05100054597304693
3194.0,0.051049389754451946
3193.0,0.05095170768433621
3192.0,0.050805225762017736
3191.0,0.050707598587974356
3190.0,0.050707598587974356
3189.0,0.05075640943173498
3188.0,0.05085404758005607
3187.0,0.05100054597304693
3186.0,0.05114709380028648
3185.0,0.05119595406718891
3184.0,0.05119595406718891
3183.0,0.05114709380028648
3182.0,0.05119595406718891
3181.0,0.05129369109514803
3180.0,0.05139145012356372
3179.0,0.05134256785867963
3178.0,0.051244819831730126
3177.0,0.05114709380028648
3176.0,0.051098239029786274
3175.0,0.051098239029786274
3174.0,0.05114709380028648
3173.0,0.05114709380028648
3172.0,0.051098239029786274
3171.0,0.051049389754451946
3170.0,0.051049389754451946
3169.0,0.05114709380028648
3168.0,0.05129369109514803
3167.0,0.05148923116234294
3166.0,0.05153812993871654
3165.0,0.05144033789103841
3164.0,0.05134256785867963
3163.0,0.051244819831730126
3162.0,0.05119595406718891
3161.0,0.05119595406718891
3160.0,0.05119595406718891
3159.0,0.05129369109514803
3158.0,0.05144033789103841
3157.0,0.051684859310652254
3156.0,0.05188057561946402
3155.0,0.05192951848105887
3154.0,0.05178270644002936
3153.0,0.0515870342213991
3152.0,0.05148923116234294
3151.0,0.0515870342213991
3150.0,0.051684859310652254
3149.0,0.051684859310652254
3148.0,0.05153812993871654
3147.0,0.05144033789103841
3146.0,0.05148923116234294
3145.0,0.05163594401163074
3144.0,0.05178270644002936
3143.0,0.051684859310652254
3142.0,0.05139145012356372
3141.0,0.05100054597304693
3140.0,0.05065879322950262
3139.0,0.0506099933550872
3138.0,0.050805225762017736
3137.0,0.051049389754451946
3136.0,0.051244819831730126
3135.0,0.05134256785867963
3134.0,0.05134256785867963
3133.0,0.05129369109514803
3132.0,0.051244819831730126
3131.0,0.051244819831730126
3130.0,0.051244819831730126
3129.0,0.051244819831730126
3128.0,0.051244819831730126
3127.0,0.05119595406718891
3126.0,0.051098239029786274
3125.0,0.051049389754451946
3124.0,0.051098239029786274
3123.0,0.051244819831730126
3122.0,0.05129369109514803
3121.0,0.05129369109514803
3120.0,0.05119595406718891
3119.0,0.05100054597304693
3118.0,0.05075640943173498
3117.0,0.05051241005349638
3116.0,0.050463626623857394
3115.0,0.05065879322950262
3114.0,0.05100054597304693
3113.0,0.05134256785867963
3112.0,0.05153812993871654
3111.0,0.0515870342213991
3110.0,0.05153812993871654
3109.0,0.05148923116234294
3108.0,0.05148923116234294
3107.0,0.05153812993871654
3106.0,0.0515870342213991
3105.0,0.0515870342213991
3104.0,0.05153812993871654
3103.0,0.05148923116234294
3102.0,0.05139145012356372
3101.0,0.05129369109514803
3100.0,0.05129369109514803
3099.0,0.05129369109514803
3098.0,0.051244819831730126
3097.0,0.05114709380028648
3096.0,0.051098239029786274
3095.0,0.051098239029786274
3094.0,0.051244819831730126
3093.0,0.05144033789103841
3092.0,0.051684859310652254
3091.0,0.05197846685889629
3090.0,0.05212534510230182
3089.0,0.05207638016827354
3088.0,0.05188057561946402
3087.0,0.05163594401163074
3086.0,0.05153812993871654
3085.0,0.0515870342213991
3084.0,0.05163594401163074
3083.0,0.05163594401163074
3082.0,0.05153812993871654
3081.0,0.05134256785867963
3080.0,0.051244819831730126
3079.0,0.05119595406718891
3078.0,0.05119595406718891
3077.0,0.051244819831730126
3076.0,0.05129369109514803
3075.0,0.05144033789103841
3074.0,0.0515870342213991
3073.0,0.05173378011970464
3072.0,0.051684859310652254
3071.0,0.05148923116234294
3070.0,0.051244819831730126
3069.0,0.05119595406718891
3068.0,0.05144033789103841
3067.0,0.05178270644002936
3066.0,0.05207638016827354
3065.0,0.05207638016827354
3064.0,0.05192951848105887
3063.0,0.05178270644002936
3062.0,0.05163594401163074
3061.0,0.0515870342213991
3060.0,0.05153812993871654
3059.0,0.05148923116234294
3058.0,0.05139145012356372
3057.0,0.05129369109514803
3056.0,0.051244819831730126
3055.0,0.05119595406718891
3054.0,0.05114709380028648
3053.0,0.05119595406718891
3052.0,0.05129369109514803
3051.0,0.05144033789103841
3050.0,0.05148923116234294
3049.0,0.05134256785867963
3048.0,0.051098239029786274
3047.0,0.050805225762017736
3046.0,0.05075640943173498
3045.0,0.050805225762017736
3044.0,0.05085404758005607
3043.0,0.05075640943173498
3042.0,0.05065879322950262
3041.0,0.0506099933550872
3040.0,0.050707598587974356
3039.0,0.050805225762017736
3038.0,0.050902874887084115
3037.0,0.050902874887084115
3036.0,0.050805225762017736
3035.0,0.05065879322950262
3034.0,0.0506099933550872
3033.0,0.05065879322950262
3032.0,0.05085404758005607
3031.0,0.051049389754451946
3030.0,0.05119595406718891
3029.0,0.05129369109514803
3028.0,0.05144033789103841
3027.0,0.05153812993871654
3026.0,0.05163594401163074
3025.0,0.05163594401163074
3024.0,0.05163594401163074
3023.0,0.05173378011970464
3022.0,0.052027420754219955
3021.0,0.05256627811294923
3020.0,0.05325306496641513
3019.0,0.05399011523423525
3018.0,0.054679159207724926
3017.0,0.05522131887649295
3016.0,0.05571477931124735
3015.0,0.05625823416868636
3014.0,0.05685187064143715
3013.0,0.05764465029232335
3012.0,0.05858795962645047
3011.0,0.0595831353183347
3010.0,0.06063052992534024
3009.0,0.061780582187257016
3008.0,0.06318476880236723
3007.0,0.06484555278383164
3006.0,0.06661395809694559
3005.0,0.06833876031551878
3004.0,0.06996838504902692
3003.0,0.0716553647351379
3002.0,0.07350321072677968
3001.0,0.07546228222451012
3000.0,0.07737832847680104
2999.0,0.07919861817434581
2998.0,0.08086958613938555
2997.0,0.08238947425013277
2996.0,0.08370400543686918
2995.0,0.08460016478773014
2994.0,0.08491689834879956
2993.0,0.08470571697731355
2992.0,0.08396738981143059
2991.0,0.08280969148843575
2990.0,0.08139308485501817
2989.0,0.07982447798997727
2988.0,0.07826151631540124
2987.0,0.07675598136972361
2986.0,0.07530729697981409
2985.0,0.07386342893255127
2984.0,0.07247565912497134
2983.0,0.07129697256940304
2982.0,0.07037674848475972
2981.0,0.06971335275448043
2980.0,0.0691018855898955
2979.0,0.06844043290919477
2978.0,0.06777998612288094
2977.0,0.06706985716921054
2976.0,0.0665127121512945
2975.0,0.06610796423578891
2974.0,0.06580465065211571
2973.0,0.06565307326174441
2972.0,0.06560255921901192
2971.0,0.0655520510510299
2970.0,0.06570359318059427
2969.0,0.06590573164451952
2968.0,0.06615853710127872
2967.0,0.06646209802829528
2966.0,0.06681652082538614
2965.0,0.06727263269847072
2964.0,0.06777998612288094
2963.0,0.06833876031551878
2962.0,0.06884736147670667
2961.0,0.06930561233546473
2960.0,0.06966236426227002
2959.0,0.07012147634321675
2958.0,0.07073438174693436
2957.0,0.07150173187630915
2956.0,0.07242434530888953
2955.0,0.07329750581735506
2954.0,0.07406940213152868
2953.0,0.07499749231902242
2952.0,0.0760310351245288
2951.0,0.0772226580712021
2950.0,0.07841755960658348
2949.0,0.07956359344924135
2948.0,0.08071265949561734
2947.0,0.08196966321511989
2946.0,0.08317771540408803
2945.0,0.08417821237960132
2944.0,0.08481129482684358
2943.0,0.08491689834879956
2942.0,0.08470571697731355
2941.0,0.08428366205400617
2940.0,0.08370400543686918
2939.0,0.08296737783760655
2938.0,0.08196966321511989
2937.0,0.0809742354126397
2936.0,0.08008551934056851
2935.0,0.0794071379151915
2934.0,0.07883394936226118
2933.0,0.0781575185941421
2932.0,0.07748213975538865
2931.0,0.07696333132921396
2930.0,0.07665234350217442
2929.0,0.07644514193245056
2928.0,0.07623803917129979
2927.0,0.0759792995259323
2926.0,0.07572071393811841
2925.0,0.07546228222451012
2924.0,0.07515236702446293
2923.0,0.07473949048056472
2922.0,0.07427547306393745
2921.0,0.07376047895413773
2920.0,0.07319468988839395
2919.0,0.07268097504034388
2918.0,0.07221915065262552
2917.0,0.07170658776779781
2916.0,0.07114346641808922
2915.0,0.07047889936889606
2914.0,0.06976434723371505
2913.0,0.0691018855898955
2912.0,0.0684912781333824
2911.0,0.06798309356579857
2910.0,0.06747550294945781
2909.0,0.06701917807680191
2908.0,0.06671522765130522
2907.0,0.0665127121512945
2906.0,0.06646209802829528
2905.0,0.06636088747507496
2904.0,0.06625970050306473
2903.0,0.06605739725873905
2902.0,0.06590573164451952
2901.0,0.06570359318059427
2900.0,0.0655520510510299
2899.0,0.0654005617819271
2898.0,0.06524912533642091
2897.0,0.06514819703433927
2896.0,0.06504729218214189
2895.0,0.06489597884855036
2894.0,0.06464390705442691
2893.0,0.06449273417528723
2892.0,0.06444235490698613
2891.0,0.06459351024765114
2890.0,0.06484555278383164
2889.0,0.06494641076893504
2888.0,0.06489597884855036
2887.0,0.06479513257341862
2886.0,0.06479513257341862
2885.0,0.06504729218214189
2884.0,0.06545105233385295
2883.0,0.0658551882075229
2882.0,0.06615853710127872
2881.0,0.06636088747507496
2880.0,0.06646209802829528
2879.0,0.06661395809694559
2878.0,0.06676587128519196
2877.0,0.06691783763020887
2876.0,0.06696850489759454
2875.0,0.06691783763020887
2874.0,0.06676587128519196
2873.0,0.06646209802829528
2872.0,0.0659562809644747
2871.0,0.0654005617819271
2870.0,0.06484555278383164
2869.0,0.06444235490698613
2868.0,0.06424089625468832
2867.0,0.06414020196211956
2866.0,0.06403953101083348
2865.0,0.06388856832514578
2864.0,0.06378795567975115
2863.0,0.06378795567975115
2862.0,0.06393888339001164
2861.0,0.06424089625468832
2860.0,0.06459351024765114
2859.0,0.06494641076893504
2858.0,0.06524912533642091
2857.0,0.06550154875643233
2856.0,0.06575411897692884
2855.0,0.06600683616875758
2854.0,0.06625970050306473
2853.0,0.0663102910421054
2852.0,0.06615853710127872
2851.0,0.0658551882075229
2850.0,0.0655520510510299
2849.0,0.06524912533642091
2848.0,0.06494641076893504
2847.0,0.06454311928839007
2846.0,0.06398920428479049
2845.0,0.06333548699992453
2844.0,0.06268275223750575
2843.0,0.06223143295006417
2842.0,0.06198090252378963
2841.0,0.061880730805688344
2840.0,0.061780582187257016
2839.0,0.06173051653708872
2838.0,0.06163040254819374
2837.0,0.061580354206806964
2836.0,0.06153031163235467
2835.0,0.06148027482350815
2834.0,0.06133019897732073
2833.0,0.06123017721688262
2832.0,0.06108018775522828
2831.0,0.06103020277710969
2830.0,0.06098022355133348
2829.0,0.06098022355133348
2828.0,0.06108018775522828
2827.0,0.06118017497378969
2826.0,0.06108018775522828
2825.0,0.06093025007657582
2824.0,0.06078036414518184
2823.0,0.06078036414518184
2822.0,0.06083032037482261
2821.0,0.06093025007657582
2820.0,0.06098022355133348
2819.0,0.06093025007657582
2818.0,0.06083032037482261
2817.0,0.06063052992534024
2816.0,0.060430831344098435
2815.0,0.060231224546650086
2814.0,0.060131455540490375
2813.0,0.060081579630943294
2812.0,0.060131455540490375
2811.0,0.0601813371786204
2810.0,0.0601813371786204
2809.0,0.0601813371786204
2808.0,0.060231224546650086
2807.0,0.060231224546650086
2806.0,0.060231224546650086
2805.0,0.060231224546650086
2804.0,0.060131455540490375
2803.0,0.05998184499233683
2802.0,0.05978244440026481
2801.0,0.05963295401433477
2800.0,0.0595831353183347
2799.0,0.05963295401433477
2798.0,0.05968277842578207
2797.0,0.05968277842578207
2796.0,0.05968277842578207
2795.0,0.05963295401433477
2794.0,0.05963295401433477
2793.0,0.05963295401433477
2792.0,0.05963295401433477
2791.0,0.0595831353183347
2790.0,0.05948351506743288
2789.0,0.05943371350990989
2788.0,0.05938391766259232
2787.0,0.05943371350990989
2786.0,0.05943371350990989
2785.0,0.05943371350990989
2784.0,0.05943371350990989
2783.0,0.05933412752417122
2782.0,0.05918479134919874
2781.0,0.059035506507200575
2780.0,0.0588862729628985
2779.0,0.0588862729628985
2778.0,0.058936011780097886
2777.0,0.05898575629443026
2776.0,0.05898575629443026
2775.0,0.05898575629443026
2774.0,0.05908526241971446
2773.0,0.05923456436878238
2772.0,0.05948351506743288
2771.0,0.05968277842578207
2770.0,0.05973260855398799
2769.0,0.05963295401433477
2768.0,0.05953332233647113
2767.0,0.05953332233647113
2766.0,0.0595831353183347
2765.0,0.05968277842578207
2764.0,0.05978244440026481
2763.0,0.05983228596592505
2762.0,0.05978244440026481
2761.0,0.05963295401433477
2760.0,0.05953332233647113
2759.0,0.05948351506743288
2758.0,0.05933412752417122
2757.0,0.05923456436878238
2756.0,0.05918479134919874
2755.0,0.05928434309333741
2754.0,0.05943371350990989
2753.0,0.05953332233647113
2752.0,0.05953332233647113
2751.0,0.05943371350990989
2750.0,0.05933412752417122
2749.0,0.05928434309333741
2748.0,0.05923456436878238
2747.0,0.05928434309333741
2746.0,0.05938391766259232
2745.0,0.05948351506743288
2744.0,0.0595831353183347
2743.0,0.05963295401433477
2742.0,0.05973260855398799
2741.0,0.05978244440026481
2740.0,0.05983228596592505
2739.0,0.05983228596592505
2738.0,0.05973260855398799
2737.0,0.0595831353183347
2736.0,0.05943371350990989
2735.0,0.05938391766259232
2734.0,0.05933412752417122
2733.0,0.05923456436878238
2732.0,0.059135024033278416
2731.0,0.05918479134919874
2730.0,0.05938391766259232
2729.0,0.05963295401433477
2728.0,0.05993198626064755
2727.0,0.06003170944866376
2726.0,0.05998184499233683
2725.0,0.05978244440026481
2724.0,0.05953332233647113
2723.0,0.05938391766259232
2722.0,0.05943371350990989
2721.0,0.05968277842578207
2720.0,0.05998184499233683
2719.0,0.060231224546650086
2718.0,0.06028111764589528
2717.0,0.060081579630943294
2716.0,0.05983228596592505
2715.0,0.05968277842578207
2714.0,0.05973260855398799
2713.0,0.05988213325228142
2712.0,0.05998184499233683
2711.0,0.06003170944866376
2710.0,0.05988213325228142
2709.0,0.05978244440026481
2708.0,0.05978244440026481
2707.0,0.05993198626064755
2706.0,0.060081579630943294
2705.0,0.0601813371786204
2704.0,0.060131455540490375
2703.0,0.06003170944866376
2702.0,0.05998184499233683
2701.0,0.05998184499233683
2700.0,0.060081579630943294
2699.0,0.0601813371786204
2698.0,0.060131455540490375
2697.0,0.05998184499233683
2696.0,0.05983228596592505
2695.0,0.05968277842578207
2694.0,0.0595831353183347
2693.0,0.05953332233647113
2692.0,0.05953332233647113
2691.0,0.0595831353183347
2690.0,0.05968277842578207
2689.0,0.05978244440026481
2688.0,0.05998184499233683
2687.0,0.060231224546650086
2686.0,0.06033101647767336
2685.0,0.06038092104330195
2684.0,0.06033101647767336
2683.0,0.060231224546650086
2682.0,0.060131455540490375
2681.0,0.0601813371786204
2680.0,0.06033101647767336
2679.0,0.06058059667068294
2678.0,0.060730413661268745
2677.0,0.06083032037482261
2676.0,0.06093025007657582
2675.0,0.060880282351513104
2674.0,0.06078036414518184
2673.0,0.06058059667068294
2672.0,0.06048074738138154
2671.0,0.060530669156469985
2670.0,0.06058059667068294
2669.0,0.06058059667068294
2668.0,0.06063052992534024
2667.0,0.06078036414518184
2666.0,0.06103020277710969
2665.0,0.0611301784870133
2664.0,0.06108018775522828
2663.0,0.06093025007657582
2662.0,0.06078036414518184
2661.0,0.060730413661268745
2660.0,0.06078036414518184
2659.0,0.060880282351513104
2658.0,0.06098022355133348
2657.0,0.06098022355133348
2656.0,0.06093025007657582
2655.0,0.06093025007657582
2654.0,0.06098022355133348
2653.0,0.06098022355133348
2652.0,0.06093025007657582
2651.0,0.06078036414518184
2650.0,0.06068046892176193
2649.0,0.06063052992534024
2648.0,0.06078036414518184
2647.0,0.06093025007657582
2646.0,0.06108018775522828
2645.0,0.06108018775522828
2644.0,0.06108018775522828
2643.0,0.06108018775522828
2642.0,0.06108018775522828
2641.0,0.06108018775522828
2640.0,0.06118017497378969
2639.0,0.06128018521761747
2638.0,0.06143024377893891
2637.0,0.06153031163235467
2636.0,0.06148027482350815
2635.0,0.06148027482350815
2634.0,0.06143024377893891
2633.0,0.061380218497318895
2632.0,0.06128018521761747
2631.0,0.06118017497378969
2630.0,0.06108018775522828
2629.0,0.06103020277710969
2628.0,0.06108018775522828
2627.0,0.0611301784870133
2626.0,0.06123017721688262
2625.0,0.061380218497318895
2624.0,0.06153031163235467
2623.0,0.061680456657844385
2622.0,0.061780582187257016
2621.0,0.061780582187257016
2620.0,0.061680456657844385
2619.0,0.06148027482350815
2618.0,0.06123017721688262
2617.0,0.06103020277710969
2616.0,0.06093025007657582
2615.0,0.06098022355133348
2614.0,0.06103020277710969
2613.0,0.0611301784870133
2612.0,0.06123017721688262
2611.0,0.06128018521761747
2610.0,0.06133019897732073
2609.0,0.06133019897732073
2608.0,0.06133019897732073
2607.0,0.061380218497318895
2606.0,0.061380218497318895
2605.0,0.06133019897732073
2604.0,0.06133019897732073
2603.0,0.06123017721688262
2602.0,0.06123017721688262
2601.0,0.06123017721688262
2600.0,0.06128018521761747
2599.0,0.061380218497318895
2598.0,0.06143024377893891
2597.0,0.06143024377893891
2596.0,0.06133019897732073
2595.0,0.06128018521761747
2594.0,0.06123017721688262
2593.0,0.06128018521761747
2592.0,0.06133019897732073
2591.0,0.06143024377893891
2590.0,0.06153031163235467
2589.0,0.06163040254819374
2588.0,0.061680456657844385
2587.0,0.061580354206806964
2586.0,0.06153031163235467
2585.0,0.06153031163235467
2584.0,0.061580354206806964
2583.0,0.06163040254819374
2582.0,0.06163040254819374
2581.0,0.061680456657844385
2580.0,0.061780582187257016
2579.0,0.06193081377661436
2578.0,0.06203099704854709
2577.0,0.06208109735221967
2576.0,0.06203099704854709
2575.0,0.061880730805688344
2574.0,0.06173051653708872
2573.0,0.06163040254819374
2572.0,0.061580354206806964
2571.0,0.06148027482350815
2570.0,0.06133019897732073
2569.0,0.06118017497378969
2568.0,0.06123017721688262
2567.0,0.06143024377893891
2566.0,0.06163040254819374
2565.0,0.06173051653708872
2564.0,0.061780582187257016
2563.0,0.06173051653708872
2562.0,0.06163040254819374
2561.0,0.061580354206806964
2560.0,0.06163040254819374
2559.0,0.061680456657844385
2558.0,0.061680456657844385
2557.0,0.06163040254819374
2556.0,0.06148027482350815
2555.0,0.06143024377893891
2554.0,0.061380218497318895
2553.0,0.06143024377893891
2552.0,0.06153031163235467
2551.0,0.061680456657844385
2550.0,0.061880730805688344
2549.0,0.06218131530164395
2548.0,0.062381820606176586
2547.0,0.06253226035662252
2546.0,0.06248210798265341
2545.0,0.062331685600995
2544.0,0.06223143295006417
2543.0,0.06218131530164395
2542.0,0.062131203436140536
2541.0,0.06208109735221967
2540.0,0.06198090252378963
2539.0,0.06193081377661436
2538.0,0.06198090252378963
2537.0,0.06208109735221967
2536.0,0.06218131530164395
2535.0,0.06223143295006417
2534.0,0.06223143295006417
2533.0,0.062131203436140536
2532.0,0.06198090252378963
2531.0,0.061830653609679764
2530.0,0.061830653609679764
2529.0,0.06198090252378963
2528.0,0.06218131530164395
2527.0,0.062331685600995
2526.0,0.06243196139961715
2525.0,0.06248210798265341
2524.0,0.06248210798265341
2523.0,0.062381820606176586
2522.0,0.06223143295006417
2521.0,0.06218131530164395
2520.0,0.06223143295006417
2519.0,0.062331685600995
2518.0,0.062381820606176586
2517.0,0.062331685600995
2516.0,0.062281556382736136
2515.0,0.06218131530164395
2514.0,0.062131203436140536
2513.0,0.06208109735221967
2512.0,0.06203099704854709
2511.0,0.06208109735221967
2510.0,0.06218131530164395
2509.0,0.062331685600995
2508.0,0.06248210798265341
2507.0,0.06263258248271053
2506.0,0.0627329277885873
2505.0,0.06278310913729457
2504.0,0.06278310913729457
2503.0,0.0627329277885873
2502.0,0.0627329277885873
2501.0,0.0627329277885873
2500.0,0.06268275223750575
2499.0,0.06248210798265341
2498.0,0.062281556382736136
2497.0,0.062131203436140536
2496.0,0.062131203436140536
2495.0,0.062281556382736136
2494.0,0.06243196139961715
2493.0,0.06248210798265341
2492.0,0.06243196139961715
2491.0,0.062381820606176586
2490.0,0.062331685600995
2489.0,0.06243196139961715
2488.0,0.06258241852286206
2487.0,0.06268275223750575
2486.0,0.06278310913729457
2485.0,0.06283329628496737
2484.0,0.06293368798257193
2483.0,0.06298389253518577
2482.0,0.06298389253518577
2481.0,0.06288348923294618
2480.0,0.0627329277885873
2479.0,0.06253226035662252
2478.0,0.062331685600995
2477.0,0.062281556382736136
2476.0,0.062331685600995
2475.0,0.06243196139961715
2474.0,0.06243196139961715
2473.0,0.062331685600995
2472.0,0.062331685600995
2471.0,0.062331685600995
2470.0,0.062281556382736136
2469.0,0.062131203436140536
2468.0,0.062131203436140536
2467.0,0.062281556382736136
2466.0,0.06253226035662252
2465.0,0.06278310913729457
2464.0,0.06288348923294618
2463.0,0.06288348923294618
2462.0,0.06278310913729457
2461.0,0.06263258248271053
2460.0,0.06258241852286206
2459.0,0.06263258248271053
2458.0,0.0627329277885873
2457.0,0.0627329277885873
2456.0,0.06263258248271053
2455.0,0.062381820606176586
2454.0,0.06218131530164395
2453.0,0.06203099704854709
2452.0,0.06193081377661436
2451.0,0.06198090252378963
2450.0,0.062131203436140536
2449.0,0.062281556382736136
2448.0,0.06243196139961715
2447.0,0.06248210798265341
2446.0,0.06258241852286206
2445.0,0.06268275223750575
2444.0,0.06278310913729457
2443.0,0.06293368798257193
2442.0,0.0630843190547461
2441.0,0.06323500239005853
2440.0,0.06323500239005853
2439.0,0.06313454102437754
2438.0,0.0630843190547461
2437.0,0.06303410289212974
2436.0,0.0630843190547461
2435.0,0.06313454102437754
2434.0,0.06318476880236723
2433.0,0.06323500239005853
2432.0,0.06328524178879635
2431.0,0.06338573802478864
2430.0,0.06343599486473406
2429.0,0.06353652599525317
2428.0,0.06363708040225546
2427.0,0.06373765809652254
2426.0,0.06383825908884244
2425.0,0.06388856832514578
2424.0,0.06398920428479049
2423.0,0.06403953101083348
2422.0,0.06403953101083348
2421.0,0.06388856832514578
2420.0,0.06363708040225546
2419.0,0.06343599486473406
2418.0,0.06333548699992453
2417.0,0.06343599486473406
2416.0,0.0636873663378068
2415.0,0.06393888339001164
2414.0,0.06414020196211956
2413.0,0.06429125215733666
2412.0,0.06439198148213077
2411.0,0.06449273417528723
2410.0,0.06459351024765114
2409.0,0.06464390705442691
2408.0,0.06469430971007495
2407.0,0.06459351024765114
2406.0,0.06444235490698613
2405.0,0.06424089625468832
2404.0,0.06419054619006714
2403.0,0.06429125215733666
2402.0,0.06449273417528723
2401.0,0.06464390705442691
2400.0,0.06479513257341862
2399.0,0.06479513257341862
2398.0,0.06469430971007495
2397.0,0.06454311928839007
2396.0,0.06454311928839007
2395.0,0.06469430971007495
2394.0,0.06489597884855036
2393.0,0.06504729218214189
2392.0,0.06504729218214189
2391.0,0.06499684854634524
2390.0,0.06489597884855036
2389.0,0.06484555278383164
2388.0,0.06469430971007495
2387.0,0.06454311928839007
2386.0,0.06429125215733666
2385.0,0.06398920428479049
2384.0,0.06373765809652254
2383.0,0.06358680028852026
2382.0,0.06338573802478864
2381.0,0.06298389253518577
2380.0,0.062381820606176586
2379.0,0.061680456657844385
2378.0,0.0611301784870133
2377.0,0.060880282351513104
2376.0,0.06098022355133348
2375.0,0.06133019897732073
2374.0,0.061780582187257016
2373.0,0.06223143295006417
2372.0,0.06263258248271053
2371.0,0.06283329628496737
2370.0,0.06243196139961715
2369.0,0.06143024377893891
2368.0,0.060081579630943294
2367.0,0.058836539841526925
2366.0,0.05794231615860479
2365.0,0.05729763111133224
2364.0,0.05690137699451481
2363.0,0.0567528748621382
2362.0,0.05729763111133224
2361.0,0.059135024033278416
2360.0,0.062331685600995
2359.0,0.0654005617819271
2358.0,0.06600683616875758
2357.0,0.06358680028852026
2356.0,0.05998184499233683
2355.0,0.0575950591438934
2354.0,0.05744631966579017
2353.0,0.058786812414678646
2352.0,0.05998184499233683
2351.0,0.060081579630943294
2350.0,0.05953332233647113
2349.0,0.05943371350990989
2348.0,0.05948351506743288
2347.0,0.058737090681050264
2346.0,0.0567528748621382
2345.0,0.05438372077326825
2344.0,0.053351266093323746
2343.0,0.054186873412661596
2342.0,0.056159373598738904
2341.0,0.05804158346918653
2340.0,0.05938391766259232
2339.0,0.06048074738138154
2338.0,0.06148027482350815
2337.0,0.06208109735221967
2336.0,0.061880730805688344
2335.0,0.06093025007657582
2334.0,0.05978244440026481
2333.0,0.05923456436878238
2332.0,0.0595831353183347
2331.0,0.0601813371786204
2330.0,0.060430831344098435
2329.0,0.060430831344098435
2328.0,0.06048074738138154
2327.0,0.06083032037482261
2326.0,0.06128018521761747
2325.0,0.06148027482350815
2324.0,0.06153031163235467
2323.0,0.06123017721688262
2322.0,0.060880282351513104
2321.0,0.060730413661268745
2320.0,0.060880282351513104
2319.0,0.06153031163235467
2318.0,0.062381820606176586
2317.0,0.06328524178879635
2316.0,0.06373765809652254
2315.0,0.0636873663378068
2314.0,0.06323500239005853
2313.0,0.06288348923294618
2312.0,0.0627329277885873
2311.0,0.06263258248271053
2310.0,0.06248210798265341
2309.0,0.06243196139961715
2308.0,0.06258241852286206
2307.0,0.0627329277885873
2306.0,0.06268275223750575
2305.0,0.06253226035662252
2304.0,0.062331685600995
2303.0,0.062281556382736136
2302.0,0.062381820606176586
2301.0,0.06248210798265341
2300.0,0.06268275223750575
2299.0,0.06288348923294618
2298.0,0.0630843190547461
2297.0,0.06328524178879635
2296.0,0.06343599486473406
2295.0,0.06348625752110681
2294.0,0.06348625752110681
2293.0,0.06338573802478864
2292.0,0.06333548699992453
2291.0,0.06333548699992453
2290.0,0.06333548699992453
2289.0,0.06333548699992453
2288.0,0.06343599486473406
2287.0,0.06348625752110681
2286.0,0.06358680028852026
2285.0,0.06373765809652254
2284.0,0.06398920428479049
2283.0,0.06419054619006714
2282.0,0.06424089625468832
2281.0,0.06414020196211956
2280.0,0.06403953101083348
2279.0,0.06403953101083348
2278.0,0.06398920428479049
2277.0,0.06383825908884244
2276.0,0.06363708040225546
2275.0,0.06348625752110681
2274.0,0.06333548699992453
2273.0,0.06323500239005853
2272.0,0.06323500239005853
2271.0,0.06338573802478864
2270.0,0.06343599486473406
2269.0,0.06348625752110681
2268.0,0.06348625752110681
2267.0,0.06343599486473406
2266.0,0.06333548699992453
2265.0,0.06318476880236723
2264.0,0.0630843190547461
2263.0,0.0630843190547461
2262.0,0.06313454102437754
2261.0,0.06318476880236723
2260.0,0.06333548699992453
2259.0,0.06353652599525317
2258.0,0.0636873663378068
2257.0,0.06373765809652254
2256.0,0.06383825908884244
2255.0,0.06388856832514578
2254.0,0.06398920428479049
2253.0,0.06393888339001164
2252.0,0.06388856832514578
2251.0,0.06378795567975115
2250.0,0.0636873663378068
2249.0,0.06348625752110681
2248.0,0.06338573802478864
2247.0,0.06348625752110681
2246.0,0.0636873663378068
2245.0,0.06393888339001164
2244.0,0.06408986356949264
2243.0,0.06414020196211956
2242.0,0.06408986356949264
2241.0,0.06388856832514578
2240.0,0.0636873663378068
2239.0,0.06348625752110681
2238.0,0.06338573802478864
2237.0,0.06343599486473406
2236.0,0.06353652599525317
2235.0,0.06373765809652254
2234.0,0.06388856832514578
2233.0,0.06393888339001164
2232.0,0.06388856832514578
2231.0,0.06373765809652254
2230.0,0.06358680028852026
2229.0,0.06343599486473406
2228.0,0.06348625752110681
2227.0,0.06353652599525317
2226.0,0.06353652599525317
2225.0,0.06343599486473406
2224.0,0.06333548699992453
2223.0,0.06323500239005853
2222.0,0.06328524178879635
2221.0,0.06343599486473406
2220.0,0.0636873663378068
2219.0,0.06393888339001164
2218.0,0.06398920428479049
2217.0,0.06383825908884244
2216.0,0.06363708040225546
2215.0,0.06343599486473406
2214.0,0.06328524178879635
2213.0,0.06318476880236723
2212.0,0.06313454102437754
2211.0,0.06303410289212974
2210.0,0.06288348923294618
2209.0,0.06263258248271053
2208.0,0.06253226035662252
2207.0,0.06258241852286206
2206.0,0.0627329277885873
2205.0,0.06283329628496737
2204.0,0.06283329628496737
2203.0,0.0627329277885873
2202.0,0.06258241852286206
2201.0,0.06248210798265341
2200.0,0.06248210798265341
2199.0,0.06258241852286206
2198.0,0.06253226035662252
2197.0,0.06243196139961715
2196.0,0.062281556382736136
2195.0,0.06223143295006417
2194.0,0.062281556382736136
2193.0,0.062331685600995
2192.0,0.062381820606176586
2191.0,0.06243196139961715
2190.0,0.06243196139961715
2189.0,0.06243196139961715
2188.0,0.062381820606176586
2187.0,0.062281556382736136
2186.0,0.06223143295006417
2185.0,0.062281556382736136
2184.0,0.06248210798265341
2183.0,0.0627329277885873
2182.0,0.06293368798257193
2181.0,0.06303410289212974
2180.0,0.06303410289212974
2179.0,0.06288348923294618
2178.0,0.06268275223750575
2177.0,0.06248210798265341
2176.0,0.062381820606176586
2175.0,0.06243196139961715
2174.0,0.06248210798265341
2173.0,0.06248210798265341
2172.0,0.06248210798265341
2171.0,0.06253226035662252
2170.0,0.06258241852286206
2169.0,0.06258241852286206
2168.0,0.06258241852286206
2167.0,0.06253226035662252
2166.0,0.062381820606176586
2165.0,0.06223143295006417
2164.0,0.06198090252378963
2163.0,0.061830653609679764
2162.0,0.061780582187257016
2161.0,0.061830653609679764
2160.0,0.061880730805688344
2159.0,0.06198090252378963
2158.0,0.06203099704854709
2157.0,0.06208109735221967
2156.0,0.06218131530164395
2155.0,0.06223143295006417
2154.0,0.06223143295006417
2153.0,0.06223143295006417
2152.0,0.06223143295006417
2151.0,0.062281556382736136
2150.0,0.062281556382736136
2149.0,0.062281556382736136
2148.0,0.062281556382736136
2147.0,0.06243196139961715
2146.0,0.06258241852286206
2145.0,0.06268275223750575
2144.0,0.0627329277885873
2143.0,0.0627329277885873
2142.0,0.06258241852286206
2141.0,0.062381820606176586
2140.0,0.06223143295006417
2139.0,0.062131203436140536
2138.0,0.062131203436140536
2137.0,0.06223143295006417
2136.0,0.062331685600995
2135.0,0.06243196139961715
2134.0,0.06248210798265341
2133.0,0.06243196139961715
2132.0,0.06243196139961715
2131.0,0.06243196139961715
2130.0,0.06248210798265341
2129.0,0.06258241852286206
2128.0,0.06263258248271053
2127.0,0.0627329277885873
2126.0,0.0627329277885873
2125.0,0.0627329277885873
2124.0,0.06268275223750575
2123.0,0.06278310913729457
2122.0,0.06288348923294618
2121.0,0.06298389253518577
2120.0,0.06293368798257193
2119.0,0.06283329628496737
2118.0,0.0627329277885873
2117.0,0.06268275223750575
2116.0,0.06268275223750575
2115.0,0.06278310913729457
2114.0,0.06283329628496737
2113.0,0.06278310913729457
2112.0,0.06278310913729457
2111.0,0.0627329277885873
2110.0,0.06268275223750575
2109.0,0.06258241852286206
2108.0,0.06248210798265341
2107.0,0.062381820606176586
2106.0,0.062381820606176586
2105.0,0.06243196139961715
2104.0,0.06248210798265341
2103.0,0.06243196139961715
2102.0,0.062331685600995
2101.0,0.06223143295006417
2100.0,0.06223143295006417
2099.0,0.062331685600995
2098.0,0.062381820606176586
2097.0,0.062381820606176586
2096.0,0.062381820606176586
2095.0,0.06243196139961715
2094.0,0.06258241852286206
2093.0,0.0627329277885873
2092.0,0.06288348923294618
2091.0,0.0630843190547461
2090.0,0.06323500239005853
2089.0,0.06333548699992453
2088.0,0.06333548699992453
2087.0,0.06323500239005853
2086.0,0.06313454102437754
2085.0,0.06303410289212974
2084.0,0.06298389253518577
2083.0,0.06288348923294618
2082.0,0.06278310913729457
2081.0,0.0627329277885873
2080.0,0.0627329277885873
2079.0,0.0627329277885873
2078.0,0.0627329277885873
2077.0,0.0627329277885873
2076.0,0.06283329628496737
2075.0,0.06288348923294618
2074.0,0.06278310913729457
2073.0,0.06263258248271053
2072.0,0.06243196139961715
2071.0,0.06223143295006417
2070.0,0.06208109735221967
2069.0,0.06198090252378963
2068.0,0.061880730805688344
2067.0,0.06193081377661436
2066.0,0.06193081377661436
2065.0,0.06193081377661436
2064.0,0.061830653609679764
2063.0,0.06173051653708872
2062.0,0.06163040254819374
2061.0,0.061580354206806964
2060.0,0.061580354206806964
2059.0,0.06163040254819374
2058.0,0.061580354206806964
2057.0,0.06148027482350815
2056.0,0.061380218497318895
2055.0,0.06143024377893891
2054.0,0.06143024377893891
2053.0,0.06133019897732073
2052.0,0.0611301784870133
2051.0,0.06083032037482261
2050.0,0.06058059667068294
2049.0,0.06028111764589528
2048.0,0.060081579630943294
2047.0,0.05988213325228142
2046.0,0.05978244440026481
2045.0,0.0595831353183347
2044.0,0.05938391766259232
2043.0,0.05923456436878238
2042.0,0.05908526241971446
2041.0,0.059035506507200575
2040.0,0.05898575629443026
2039.0,0.05898575629443026
2038.0,0.058936011780097886
2037.0,0.0588862729628985
2036.0,0.0588862729628985
2035.0,0.058836539841526925
2034.0,0.05868737463933793
2033.0,0.058538260652670315
2032.0,0.0583891978463662
2031.0,0.0583891978463662
2030.0,0.0583891978463662
2029.0,0.0582898510583536
2028.0,0.05824018618530458
2027.0,0.058190526991161784
2026.0,0.05804158346918653
2025.0,0.05789269101064454
2024.0,0.05769424710410598
2023.0,0.0575950591438934
2022.0,0.0575950591438934
2021.0,0.0575950591438934
2020.0,0.0575950591438934
2019.0,0.05764465029232335
2018.0,0.05764465029232335
2017.0,0.05769424710410598
2016.0,0.057743849580535134
2015.0,0.057743849580535134
2014.0,0.05764465029232335
2013.0,0.05749589383191922
2012.0,0.05744631966579017
2011.0,0.05749589383191922
2010.0,0.05754547365752294
2009.0,0.0575950591438934
2008.0,0.05764465029232335
2007.0,0.0575950591438934
2006.0,0.05744631966579017
2005.0,0.05724807957018618
2004.0,0.0571489934456626
2003.0,0.05709945885970602
2002.0,0.05709945885970602
2001.0,0.057049929922901255
2000.0,0.056950888991593285
1999.0,0.05685187064143715
1998.0,0.05670338543334519
1997.0,0.05655495097496965
1996.0,0.05650548409389744
1995.0,0.056406567231630955
1994.0,0.05630767289398331
1993.0,0.05630767289398331
1992.0,0.056406567231630955
1991.0,0.056456022846545606
1990.0,0.056406567231630955
1989.0,0.05620880107069848
1988.0,0.05610995175152733
1987.0,0.05601112492622806
1986.0,0.055912320584565744
1985.0,0.05581353871631256
1984.0,0.05581353871631256
1983.0,0.05581353871631256
1982.0,0.055764156206519866
1981.0,0.05566540802921782
1980.0,0.055566682299785564
1979.0,0.055566682299785564
1978.0,0.05546797900801881
1977.0,0.05531996611868961
1976.0,0.055122694036304765
1975.0,0.05502409158795207
1974.0,0.05502409158795207
1973.0,0.0549747987575373
1972.0,0.05502409158795207
1971.0,0.05507339001378431
1970.0,0.05502409158795207
1969.0,0.0549255115212699
1968.0,0.05477768336465916
1967.0,0.054679159207724926
1966.0,0.05462990550969615
1965.0,0.05458065739693696
1964.0,0.05462990550969615
1963.0,0.05462990550969615
1962.0,0.05453141486818014
1961.0,0.05438372077326825
1960.0,0.05433450056786593
1959.0,0.05433450056786593
1958.0,0.05423607688882637
1957.0,0.05403929642243144
1956.0,0.05379344615721715
1955.0,0.0534986094304124
1954.0,0.053203972728539606
1953.0,0.05290953578037816
1952.0,0.05281143447390635
1951.0,0.05286048235717078
1950.0,0.05295859474477971
1949.0,0.05295859474477971
1948.0,0.05286048235717078
1947.0,0.05266432405126009
1946.0,0.052419250695677544
1945.0,0.05207638016827354
1944.0,0.05173378011970464
1943.0,0.05144033789103841
1942.0,0.05114709380028648
1941.0,0.050902874887084115
1940.0,0.05085404758005607
1939.0,0.05095170768433621
1938.0,0.051049389754451946
1937.0,0.050902874887084115
1936.0,0.05065879322950262
1935.0,0.050414848673348
1934.0,0.05012229596312534
1933.0,0.04987865248862655
1932.0,0.04968383607539972
1931.0,0.04963514562387683
1930.0,0.04958646063061889
1929.0,0.04944043838819989
1928.0,0.049148541111453614
1927.0,0.048905443158337114
1926.0,0.04875964967565971
1925.0,0.04866248120408234
1924.0,0.048565334467987054
1923.0,0.04832256265669943
1922.0,0.047934409814949674
1921.0,0.04754660357696672
1920.0,0.04740126547022694
1919.0,0.04740126547022694
1918.0,0.047352830241056854
1917.0,0.04715914332429838
1916.0,0.04701393480294458
1915.0,0.04686877481655505
1914.0,0.04672366333269573
1913.0,0.046481918555007384
1912.0,0.046192002334692894
1911.0,0.045902279520810385
1910.0,0.045660991397539874
1909.0,0.04537162249272897
1908.0,0.0451788169482068
1907.0,0.04503426894157925
1906.0,0.04484161307420642
1905.0,0.04469717723830824
1904.0,0.04450467081587295
1903.0,0.04440844959427559
1902.0,0.044360346976747955
1901.0,0.044312249686494276
1900.0,0.044167989767578186
1899.0,0.04397571771932274
1898.0,0.04368746915880539
1897.0,0.04339941178682327
1896.0,0.0431115453499229
1895.0,0.04282386959515394
1894.0,0.04248848854552012
1893.0,0.042201225070002124
1892.0,0.04196198390166317
1891.0,0.0417706858116178
1890.0,0.041436116778032606
1889.0,0.041006334969674096
1888.0,0.04072004986906119
1887.0,0.04057697805689475
1886.0,0.040481623027001756
1885.0,0.040338629726504704
1884.0,0.04010041213405646
1883.0,0.03986232513620536
1882.0,0.03952922246570112
1881.0,0.03919637508823026
1880.0,0.038911280232103884
1879.0,0.038673844065289176
1878.0,0.03838909190871931
1877.0,0.038151940981675736
1876.0,0.03791491948264003
1875.0,0.03767802727041558
1874.0,0.037346595106788616
1873.0,0.03701541568300293
1872.0,0.036873558918095295
1871.0,0.03682628362474838
1870.0,0.036542739883292485
1869.0,0.03588185684851508
1868.0,0.03508070571335731
1867.0,0.03442204208947208
1866.0,0.03399914237121604
1865.0,0.03385826726096752
1864.0,0.0338113190438627
1863.0,0.03376437590141812
1862.0,0.03357665405630694
1861.0,0.033201453616638954
1860.0,0.032873418923587305
1859.0,0.032545631817259224
1858.0,0.03217132066984485
1857.0,0.03184406285002961
1856.0,0.03161045815293173
1855.0,0.03142366482450232
1854.0,0.031143625385307683
1853.0,0.0307239045110681
1852.0,0.030351159519274695
1851.0,0.030071810571884017
1850.0,0.029885677714903025
1849.0,0.029560137048236124
1848.0,0.029234840219232394
1847.0,0.029095501846216454
1846.0,0.029141943003497595
1845.0,0.028956208163971375
1844.0,0.028445846553939003
1843.0,0.027797161620935595
1842.0,0.02724191609646076
1841.0,0.027149444152769986
1840.0,0.027195677663422346
1839.0,0.02710321556345563
1838.0,0.026733563891471412
1837.0,0.026225806029419818
1836.0,0.025902996205869
1835.0,0.025856900097785074
1834.0,0.025902996205869
1833.0,0.026087429580295085
1832.0,0.02636422658259252
1831.0,0.026502691267936695
1830.0,0.02613355016462182
1829.0,0.02539620791296726
1828.0,0.02512002699306959
1827.0,0.025488307262671706
1826.0,0.025856900097785074
1825.0,0.025672564576383117
1824.0,0.025074013910237447
1823.0,0.024660115394541604
1822.0,0.024476287039668643
1821.0,0.02438440203310499
1820.0,0.024292536462819925
1819.0,0.024246610963712723
1818.0,0.024154774532432866
1817.0,0.023925268380126097
1816.0,0.023741750742954926
1815.0,0.02355831062115543
1814.0,0.023329119375188556
1813.0,0.023100049017062307
1812.0,0.02296266477531872
1811.0,0.022733787572707387
1810.0,0.022322112326006227
1809.0,0.021910826943857264
1808.0,0.021728158389364705
1807.0,0.021728158389364705
1806.0,0.02168250325324883
1805.0,0.02159120737696063
1804.0,0.021773818325474092
1803.0,0.02204787879853809
1802.0,0.022093572362881675
1801.0,0.021773818325474092
1800.0,0.02140867317992523
1799.0,0.0211806132671577
1798.0,0.021043834782408455
1797.0,0.021043834782408455
1796.0,0.021499930688540836
1795.0,0.022367834754000393
1794.0,0.02342078135989012
1793.0,0.024338466818941473
1792.0,0.025488307262671706
1791.0,0.02682594731702781
1790.0,0.02839947976994095
1789.0,0.030490901403433135
1788.0,0.03334211579824231
1787.0,0.03668448861388862
1786.0,0.040338629726504704
1785.0,0.04455278942230456
1784.0,0.04944043838819989
1783.0,0.05477768336465916
1782.0,0.06038092104330195
1781.0,0.06646209802829528
1780.0,0.07350321072677968
1779.0,0.08081727095749947
1778.0,0.08767164203958999
1777.0,0.09415017335768128
1776.0,0.10061729446673495
1775.0,0.10690433390377163
1774.0,0.11277666863747693
1773.0,0.11878658374498086
1772.0,0.12621453918179926
1771.0,0.134659094375416
1770.0,0.1427278264359586
1769.0,0.15101079374883275
1768.0,0.16077342598656452
1767.0,0.17204947169736973
1766.0,0.18362611124763806
1765.0,0.19524739784953948
1764.0,0.20795868928791772
1763.0,0.2235167441663184
1762.0,0.24359212745104175
1761.0,0.2675258227188064
1760.0,0.29174911140862236
1759.0,0.31327437892545795
1758.0,0.33292079453578327
1757.0,0.35291057128344505
1756.0,0.37304404856455253
1755.0,0.38944629468290537
1754.0,0.40044440901401956
1753.0,0.40804544495326445
1752.0,0.41465208890540906
1751.0,0.4207882197685009
1750.0,0.4257371702929731
1749.0,0.4295738216410274
1748.0,0.43273830764612553
1747.0,0.4337982811450871
1746.0,0.43250310889577737
1745.0,0.4294570601181025
1744.0,0.4249276742861876
1743.0,0.4189610512278328
1742.0,0.411840383616908
1741.0,0.4040630937308265
1740.0,0.3951262294473643
1739.0,0.384576047114056
1738.0,0.37468754903832613
1737.0,0.36713795989977016
1736.0,0.36061313098231595
1735.0,0.3517375942519556
1734.0,0.3388501427552135
1733.0,0.3255981871547182
1732.0,0.3159629625134803
1731.0,0.3087416418668889
1730.0,0.30172542332563235
1729.0,0.2949063894521269
1728.0,0.2886146209015483
1727.0,0.2829122750729809
1726.0,0.27761290582287623
1725.0,0.27262143054851107
1724.0,0.2677671197795022
1723.0,0.2628073572952627
1722.0,0.2582970160422602
1721.0,0.2546909400591719
1720.0,0.25142438306900816
1719.0,0.24764419584649922
1718.0,0.24298376526869947
1717.0,0.23882418684426865
1716.0,0.23567439437401605
1715.0,0.2327699018892817
1714.0,0.23003219867055757
1713.0,0.22738495015082916
1712.0,0.22446236521904295
1711.0,0.22105327203138314
1710.0,0.21759904750347014
1709.0,0.21431433171909875
1708.0,0.21119550695535172
1707.0,0.20795868928791772
1706.0,0.20432849405397824
1705.0,0.200797343699475
1704.0,0.1979107421182673
1703.0,0.19572423287090612
1702.0,0.19395576425191186
1701.0,0.19232969876951622
1700.0,0.1902383348928749
1699.0,0.18722029299103604
1698.0,0.18422307970163732
1697.0,0.18223636771963214
1696.0,0.18071935302751885
1695.0,0.17887967622317635
1694.0,0.1769172034671962
1693.0,0.1752235375244544
1692.0,0.17373078060627378
1691.0,0.17179138553205453
1690.0,0.16966800654803826
1689.0,0.16781053893148679
1688.0,0.16640670600154372
1687.0,0.16532502553725603
1686.0,0.16418264570652719
1685.0,0.16298005145909156
1684.0,0.16203298163134527
1683.0,0.16064767110457878
1682.0,0.15920410115290617
1681.0,0.15807768832054925
1680.0,0.15695418946543072
1679.0,0.15570925674565683
1678.0,0.15465386258859137
1677.0,0.15391041964201602
1676.0,0.15323004646278116
1675.0,0.15236565568174498
1674.0,0.15125681810431635
1673.0,0.14990540561329913
1672.0,0.14868048735125483
1671.0,0.1475810070629986
1670.0,0.14697138528701026
1669.0,0.14684956355215717
1668.0,0.1465451586319333
1667.0,0.1456939581989194
1666.0,0.14472319616990825
1665.0,0.1438755557576996
1664.0,0.14321071124668383
1663.0,0.1425468829647336
1662.0,0.1419442819496357
1661.0,0.14116214857141451
1660.0,0.14026143380285316
1659.0,0.13936258322624528
1658.0,0.1385253311428314
1657.0,0.13774932540207496
1656.0,0.13709378643700187
1655.0,0.13649869935854997
1654.0,0.13590442657575252
1653.0,0.13643923547375736
1652.0,0.13643923547375736
1651.0,0.13489602535887202
1650.0,0.13353543402825974
1649.0,0.13241467345296387
1648.0,0.1312967977214634
1647.0,0.13070959579060148
1646.0,0.13094438129809216
1645.0,0.13106182166708868
1644.0,0.1305922506177981
1643.0,0.12971317100740865
1642.0,0.12883586719705065
1641.0,0.1280769681176266
1640.0,0.12731939284807026
1639.0,0.12667939818460128
1638.0,0.126156466776564
1637.0,0.12586622117202761
1636.0,0.12598229613781387
1635.0,0.12621453918179926
1634.0,0.12592425477696523
1633.0,0.1252863112422209
1632.0,0.1244757360506914
1631.0,0.12355121312165873
1630.0,0.12268625668776156
1629.0,0.12193801870998744
1628.0,0.1213058996038916
1627.0,0.12061736282565727
1626.0,0.12015894401343741
1625.0,0.11992991593593283
1624.0,0.11981544717356662
1623.0,0.11970100857424737
1622.0,0.11935787359571504
1621.0,0.11878658374498086
1620.0,0.11827306462358211
1619.0,0.11787408022996826
1618.0,0.1175323851046286
1617.0,0.11730473761840288
1616.0,0.11684980031672243
1615.0,0.11628179803604044
1614.0,0.11588463798833115
1613.0,0.11577123036739612
1612.0,0.11543118508166672
1611.0,0.114865033936566
1610.0,0.11418662533951118
1609.0,0.11367851344052027
1608.0,0.11317099532301778
1607.0,0.11277666863747693
1606.0,0.11249522576462212
1605.0,0.11215773489264302
1604.0,0.1117081546434846
1603.0,0.11109074073646874
1602.0,0.1106422631110684
1601.0,0.11025022473596224
1600.0,0.10997041383658313
1599.0,0.10963487855187593
1598.0,0.10929960230112479
1597.0,0.10885296955122903
1596.0,0.1082953237608173
1595.0,0.10779405402422748
1594.0,0.10746019534136453
1593.0,0.10723776538418317
1592.0,0.10695988804288215
1591.0,0.10657115822045493
1590.0,0.1061827760325369
1589.0,0.10590557267730127
1588.0,0.10568393731556158
1587.0,0.10551778498990938
1586.0,0.10529634739076998
1585.0,0.10501970907203151
1584.0,0.10457745396059215
1583.0,0.10408045468998406
1582.0,0.10363915453068362
1581.0,0.10314322726279568
1580.0,0.10259286033841963
1579.0,0.10215306842042837
1578.0,0.10193333935836524
1577.0,0.1017686154869033
1576.0,0.10165883427249067
1575.0,0.10116516193172598
1574.0,0.1005078038618683
1573.0,0.10017949757290379
1572.0,0.10001543745060903
1571.0,0.09974214156222239
1570.0,0.09941441335003853
1569.0,0.09914149529800831
1568.0,0.09875969792669093
1567.0,0.09848719087006019
1566.0,0.09826930827078129
1565.0,0.09799710864927058
1564.0,0.09772507952549825
1563.0,0.09761631556752848
1562.0,0.09777947172068524
1561.0,0.09794268919153337
1560.0,0.0975619438013351
1559.0,0.09712721455392082
1558.0,0.09691001300805646
1557.0,0.0964759355287379
1556.0,0.09642170633694569
1555.0,0.09631326826349751
1554.0,0.09604229147682952
1553.0,0.09566320779750503
1552.0,0.09539263618455207
1551.0,0.09512223303659528
1550.0,0.09490603167212863
1549.0,0.09468993788391455
1548.0,0.09441997176475758
1547.0,0.09420411963213149
1546.0,0.09382663635595145
1545.0,0.09334178232840018
1544.0,0.09301884677114591
1543.0,0.09296504751658308
1542.0,0.09291125492570451
1541.0,0.09269615116603047
1540.0,0.09226626300234453
1539.0,0.09135416109288674
1538.0,0.09049745859458458
1537.0,0.09028354676565531
1536.0,0.09033701484598189
1535.0,0.09039048950983108
1534.0,0.09023008526723086
1533.0,0.0900163050601559
1532.0,0.08980263003399913
1531.0,0.08953568400438638
1530.0,0.08916223500731646
1529.0,0.08873582900163002
1528.0,0.08830984124613894
1527.0,0.08783110394037297
1526.0,0.08745911720936239
1525.0,0.0872466963286771
1524.0,0.08719360733870762
1523.0,0.08708744882390307
1522.0,0.0867691288864394
1521.0,0.08650404038287651
1520.0,0.0861331881037608
1519.0,0.08581556657675371
1518.0,0.08533956941077814
1517.0,0.08475850269380558
1516.0,0.08438913733853282
1515.0,0.08423093401631587
1514.0,0.08423093401631587
1513.0,0.08402008585977572
1512.0,0.08365134772453975
1511.0,0.08301995267961781
1510.0,0.08244197917456386
1509.0,0.08196966321511989
1508.0,0.08149786036382611
1507.0,0.08102656950704579
1506.0,0.08045124103115198
1505.0,0.07992887570247587
1504.0,0.07966792846041071
1503.0,0.07925073872429178
1502.0,0.07872981449018734
1501.0,0.07820951434181311
1500.0,0.07779372256098371
1499.0,0.07743023101428781
1498.0,0.07680780957933253
1497.0,0.0759792995259323
1496.0,0.07510073598571654
1495.0,0.07422394616325367
1494.0,0.07365755337434488
1493.0,0.07340034609297241
1492.0,0.07329750581735506
1491.0,0.07268097504034388
1490.0,0.07150173187630915
1489.0,0.07007043991541217
1488.0,0.0691018855898955
1487.0,0.068389593637038
1486.0,0.06777998612288094
1485.0,0.06732334137759932
1484.0,0.06701917807680191
1483.0,0.06656333217371957
1482.0,0.06580465065211571
1481.0,0.06484555278383164
1480.0,0.06403953101083348
1479.0,0.06358680028852026
1478.0,0.06323500239005853
1477.0,0.06288348923294618
1476.0,0.06268275223750575
1475.0,0.06253226035662252
1474.0,0.06243196139961715
1473.0,0.06278310913729457
1472.0,0.06419054619006714
1471.0,0.0663102910421054
1470.0,0.06864384953207203
1469.0,0.07145053299833615
1468.0,0.07499749231902242
1467.0,0.07925073872429178
1466.0,0.08470571697731355
1465.0,0.0922125568893839
1464.0,0.10165883427249067
1463.0,0.11103465569966264
1462.0,0.11924355548978971
1461.0,0.1270865583796048
1460.0,0.1352516643703412
1459.0,0.143996546002779
1458.0,0.1542200328881107
1457.0,0.1674910872937636
1456.0,0.17992996568767428
1455.0,0.18681946741398825
1454.0,0.19010375339756092
1453.0,0.19253262431572216
1452.0,0.19477108579657387
1451.0,0.1962698290254561
1450.0,0.19722627470802445
1449.0,0.1979107421182673
1448.0,0.1981848314185628
1447.0,0.19749993223560658
1446.0,0.19592875111433883
1445.0,0.19368433019188647
1444.0,0.19050762306265812
1443.0,0.18588564387087447
1442.0,0.18006143064460467
1441.0,0.17366599437777985
1440.0,0.16729952903943257
1439.0,0.16121385505340546
1438.0,0.1550260618531123
1437.0,0.1478861391502384
1436.0,0.1399616101928065
1435.0,0.13276828548110586
1434.0,0.12749410065407507
1433.0,0.12343578601615435
1432.0,0.11970100857424737
1431.0,0.11605480496572018
1430.0,0.11260778102815316
1429.0,0.10946720807225518
1428.0,0.10668218838388821
1427.0,0.10424605792627206
1426.0,0.10193333935836524
1425.0,0.09952362861074304
1424.0,0.09691001300805646
1423.0,0.09468993788391455
1422.0,0.09323411045927221
1421.0,0.09226626300234453
1420.0,0.09092559859909577
1419.0,0.08905559425002108
1418.0,0.08692825969074924
1417.0,0.08496970974083906
1416.0,0.0833881548906541
1415.0,0.08207457793525874
1414.0,0.08086958613938555
1413.0,0.07951143534170213
1412.0,0.0781575185941421
1411.0,0.07685964397479927
1410.0,0.07566901529132153
1409.0,0.07453319930846214
1408.0,0.07334892291111106
1407.0,0.07216786713341827
1406.0,0.0710411591191702
1405.0,0.06976434723371505
1404.0,0.0685421293109949
1403.0,0.06777998612288094
1402.0,0.06742477650170953
1401.0,0.06727263269847072
1400.0,0.06722192993944942
1399.0,0.06752623532284674
1398.0,0.0684912781333824
1397.0,0.07017251876930874
1396.0,0.07273231918911849
1395.0,0.07665234350217442
1394.0,0.08186477383364066
1393.0,0.08740600224789441
1392.0,0.09301884677114591
1391.0,0.0990869322623309
1390.0,0.10590557267730127
1389.0,0.11356568037106163
1388.0,0.12245589228405596
1387.0,0.13229686672990226
1386.0,0.1415229581866595
1385.0,0.14855818532794496
1384.0,0.1537866361206126
1383.0,0.15789023655938994
1382.0,0.16089921729284673
1381.0,0.16222223044626682
1380.0,0.1614027471833437
1379.0,0.1583902878315646
1378.0,0.15366288787019466
1377.0,0.1482525808667361
1376.0,0.14339193156306385
1375.0,0.1399616101928065
1374.0,0.13900356324280416
1373.0,0.1410419452819942
1372.0,0.1450869776921444
1371.0,0.14990540561329913
1370.0,0.1545918603782066
1369.0,0.15870311250971825
1368.0,0.16184381524785207
1367.0,0.16405589990615188
1366.0,0.1657700971483227
1365.0,0.16742722515382025
1364.0,0.16947548590274142
1363.0,0.17224313702138327
1362.0,0.17574396237031764
1361.0,0.17966715510059017
1360.0,0.18349356295364294
1359.0,0.18695303483989223
1358.0,0.18970025895983111
1357.0,0.19151894343404896
1356.0,0.19226207798589923
1355.0,0.19178902707577805
1354.0,0.19037295810595034
1353.0,0.18815699382352258
1352.0,0.18535293054814383
1351.0,0.18203819546800593
1350.0,0.17842097208799124
1349.0,0.17444406770964305
1348.0,0.1704389437006073
1347.0,0.1666616110606025
1346.0,0.16304326294044946
1345.0,0.159517512786558
1344.0,0.15602015552184012
1343.0,0.1527358982292355
1342.0,0.14953756723848333
1341.0,0.14648430324307138
1340.0,0.1432711096171173
1339.0,0.1400815147992842
1338.0,0.13727247168202528
1337.0,0.13501453934020602
1336.0,0.13300418688935212
1335.0,0.13106182166708868
1334.0,0.12918657608440243
1333.0,0.12731939284807026
1332.0,0.12557616941349803
1331.0,0.12395544975390482
1330.0,0.12234075588839133
1329.0,0.1207893947082408
1328.0,0.11935787359571504
1327.0,0.11810202642698875
1326.0,0.11702034596270106
1325.0,0.11611154211151953
1324.0,0.11526126223036814
1323.0,0.11441264381034388
1322.0,0.11367851344052027
1321.0,0.1130019543289007
1320.0,0.11227020271196975
1319.0,0.11153968196461372
1318.0,0.11081038795292675
1317.0,0.11025022473596224
1316.0,0.10969078310005154
1315.0,0.10918790104487552
1314.0,0.10885296955122903
1313.0,0.10862982530385179
1312.0,0.10846254232743546
1311.0,0.10835105612944096
1310.0,0.10835105612944096
1309.0,0.10868560061785693
1308.0,0.10929960230112479
1307.0,0.11008231656379408
1306.0,0.11097857790477517
1305.0,0.11176432672943282
1304.0,0.11227020271196975
1303.0,0.11238269966426384
1302.0,0.11210151190312767
1301.0,0.1114835389250548
1300.0,0.11075433910702048
1299.0,0.10997041383658313
1298.0,0.10924374808178183
1297.0,0.10857405715200596
1296.0,0.10790539730951965
1295.0,0.10707101764479421
1294.0,0.10601643278815298
1293.0,0.10457745396059215
1292.0,0.10253786198693682
1291.0,0.10001543745060903
1290.0,0.09718153191774648
1289.0,0.09447395156495153
1288.0,0.09215885741705532
1287.0,0.0905509530187334
1286.0,0.08969583193143116
1285.0,0.08958906008531176
1284.0,0.09023008526723086
1283.0,0.09140776115243066
1282.0,0.09312646527792956
1281.0,0.09523037409340485
1280.0,0.09767069414168117
1279.0,0.10034361969436434
1278.0,0.10325338439259446
1277.0,0.1062937069352865
1276.0,0.10918790104487552
1275.0,0.11193288659256306
1274.0,0.11435612816423602
1273.0,0.1165089098110701
1272.0,0.11827306462358211
1271.0,0.11975822410451964
1270.0,0.12101887660626365
1269.0,0.12211057462851604
1268.0,0.12297438413275108
1267.0,0.12360893818081231
1266.0,0.12378215940835768
1265.0,0.12360893818081231
1264.0,0.12314735239865637
1263.0,0.12239832027072817
1262.0,0.12136332697348307
1261.0,0.12004441487725082
1260.0,0.11855827805860697
1259.0,0.11684980031672243
1258.0,0.11520463605101905
1257.0,0.11350927482751816
1256.0,0.11176432672943282
1255.0,0.10991447328367476
1254.0,0.10801676914803293
1253.0,0.10612732120491852
1252.0,0.10435649517592083
1251.0,0.10264786565568684
1250.0,0.10111034407341357
1249.0,0.09968750301627338
1248.0,0.09832376867362447
1247.0,0.09707290398273716
1246.0,0.09587978652380036
1245.0,0.09490603167212863
1244.0,0.09404230090757282
1243.0,0.09328794305703592
1242.0,0.09258863922541383
1241.0,0.0919441259012328
1240.0,0.09140776115243066
1239.0,0.09097914578884403
1238.0,0.09076499663169257
1237.0,0.09071147583774919
1236.0,0.09092559859909577
1235.0,0.09130056764777605
1234.0,0.09183679994445204
1233.0,0.09253489323414388
1232.0,0.0935033402006471
1231.0,0.09506817260434741
1230.0,0.0972358560759139
1229.0,0.10001543745060903
1228.0,0.10330847343711591
1227.0,0.10707101764479421
1226.0,0.1114835389250548
1225.0,0.11662251025166115
1224.0,0.12257105921178035
1223.0,0.12901118623942476
1222.0,0.13578566953867033
1221.0,0.1427881576831076
1220.0,0.1500894416985039
1219.0,0.15776531365276036
1218.0,0.165706487557304
1217.0,0.1739900222088997
1216.0,0.18250073813224166
1215.0,0.1910467008440888
1214.0,0.1994203784308699
1213.0,0.20732821085843267
1212.0,0.21452779669361166
1211.0,0.22054781659593825
1210.0,0.2251911696892941
1209.0,0.22848601002033342
1208.0,0.23084430928560118
1207.0,0.2326214758858196
1206.0,0.23418248469008174
1205.0,0.23589862352377122
1204.0,0.23799703062488464
1203.0,0.2404832405378119
1202.0,0.24336389175415185
1201.0,0.2465701584245772
1200.0,0.25041826513444065
1199.0,0.2546909400591719
1198.0,0.2594794139463352
1197.0,0.2648004515776867
1196.0,0.27083521030723
1195.0,0.27777753603026967
1194.0,0.2855864077128789
1193.0,0.29447838657733283
1192.0,0.3046934775681973
1191.0,0.31659270086790503
1190.0,0.33003263009149597
1189.0,0.3452460667470698
1188.0,0.3625102704874894
1187.0,0.3817426551595986
1186.0,0.4025242101296225
1185.0,0.4249276742861876
1184.0,0.4485500020271247
1183.0,0.47249898901887977
1182.0,0.4949857599158929
1181.0,0.5142785735184199
1180.0,0.528855034839367
1179.0,0.5368538632736504
1178.0,0.5374522711973357
1177.0,0.5307672574933879
1176.0,0.5184140636323777
1175.0,0.5014137911824823
1174.0,0.4810914263085857
1173.0,0.4592952166892377
1172.0,0.43699381293820627
1171.0,0.41465208890540906
1170.0,0.3924377568164117
1169.0,0.3707943428976963
1168.0,0.35017853677543487
1167.0,0.3308691526266674
1166.0,0.3126494304419727
1165.0,0.29584948316020077
1164.0,0.28042014228627665
1163.0,0.26616099930285064
1162.0,0.25282132863983553
1161.0,0.24033215531036944
1160.0,0.22855951336008817
1159.0,0.21745571598998992
1158.0,0.20704829174986794
1157.0,0.19736308191718943
1156.0,0.18849202005467336
1155.0,0.18019293540924397
1154.0,0.1724368887452763
1153.0,0.16532502553725603
1152.0,0.15895353459069628
1151.0,0.15347733158371324
1150.0,0.1491088158640761
1149.0,0.14630178822382556
1148.0,0.14539036190420496
1147.0,0.14642345638035836
1146.0,0.14941502364796855
1145.0,0.1542200328881107
1144.0,0.16089921729284673
1143.0,0.16941133131485575
1142.0,0.17966715510059017
1141.0,0.19158644859963192
1140.0,0.20502425594886842
1139.0,0.21975471613464737
1138.0,0.23552497256559102
1137.0,0.252432837262375
1136.0,0.2701874928390644
1135.0,0.2882771081727653
1134.0,0.30583370406680177
1133.0,0.32248429520124255
1132.0,0.3378090091409929
1131.0,0.35105481783432757
1130.0,0.3618103598091631
1129.0,0.3696738451960533
1128.0,0.3748934245965323
1127.0,0.3769575657536184
1126.0,0.3756147585797349
1125.0,0.37099838071300817
1124.0,0.3638131048012756
1123.0,0.35447948509412597
1122.0,0.34390179798716813
1121.0,0.3327338806177258
1120.0,0.32175484807295796
1119.0,0.3111354319452082
1118.0,0.3011168632474097
1117.0,0.2921744316677686
1116.0,0.2849163293050727
1115.0,0.2793446434482756
1114.0,0.27580608048567035
1113.0,0.2743333396858214
1112.0,0.27506908580760214
1111.0,0.27785987454258443
1110.0,0.28207997416300645
1109.0,0.28777133038046476
1108.0,0.2946495371142881
1107.0,0.3025962767995123
1106.0,0.3114022249188302
1105.0,0.32075385458614103
1104.0,0.3308691526266674
1103.0,0.34141628459293716
1102.0,0.3520305416370282
1101.0,0.3629107264696696
1100.0,0.37417328671428884
1099.0,0.3861581781239307
1098.0,0.39848321634998984
1097.0,0.4112802203999435
1096.0,0.42469666657760086
1095.0,0.4385408287580841
1094.0,0.4527176920366969
1093.0,0.4669909775045147
1092.0,0.481617684454656
1091.0,0.4967542285348874
1090.0,0.5118725037525416
1089.0,0.5269511949114623
1088.0,0.541966807503494
1087.0,0.5565805382171827
1086.0,0.5702477199975919
1085.0,0.5826944167554744
1084.0,0.5938005763366871
1083.0,0.6025814576486523
1082.0,0.6087119514047026
1081.0,0.6122543403911362
1080.0,0.6143937264016879
1079.0,0.6156465858624938
1078.0,0.6154673845057514
1077.0,0.6138578910691816
1076.0,0.611011214875286
1075.0,0.6066003047068982
1074.0,0.6006724678413211
1073.0,0.5938005763366871
1072.0,0.5865325870141751
1071.0,0.5783960731301689
1070.0,0.5692801121367177
1069.0,0.5594057381601691
1068.0,0.5495969138446337
1067.0,0.5392524581558029
1066.0,0.5284149458148102
1065.0,0.5172692999200572
1064.0,0.5062631977231602
1063.0,0.4953932293580463
1062.0,0.4846561069116191
1061.0,0.47456644657117986
1060.0,0.4659738939438649
1059.0,0.45854557125241113
1058.0,0.45210228243690276
1057.0,0.44696698379756006
1056.0,0.4433357378774314
1055.0,0.4410515540219604
1054.0,0.43985416015095247
1053.0,0.43973460213728544
1052.0,0.44057220024051014
1051.0,0.4418916983694503
1050.0,0.44345629151648547
1049.0,0.44563199900991246
1048.0,0.4487940562520938
1047.0,0.45296410025998957
1046.0,0.4579218536643743
1045.0,0.4634415574284698
1044.0,0.4690323184280849
1043.0,0.47404865875198743
1042.0,0.47794719913117745
1041.0,0.4812229310732252
1040.0,0.484126156288321
1039.0,0.4861168143889072
1038.0,0.48651604329574294
1037.0,0.4854522473397138
1036.0,0.48333244090095717
1035.0,0.48030323284014687
1034.0,0.47651366765677206
1033.0,0.47249898901887977
1032.0,0.46852108295774486
1031.0,0.46470587995722945
1030.0,0.46054750845053904
1029.0,0.45642857603763454
1028.0,0.45259454033251023
1027.0,0.44928257653071735
1026.0,0.44611697335612566
1025.0,0.4433357378774314
1024.0,0.4409316659654632
1023.0,0.4386600585410987
1022.0,0.4360445350041873
1021.0,0.43297363384093956
1020.0,0.4298074389042741
1019.0,0.4262004177842593
1018.0,0.4223933226374643
1017.0,0.4186193112900132
1016.0,0.41544263947432514
1015.0,0.4122890349810886
1014.0,0.40882404968820873
1013.0,0.405165644416682
1012.0,0.40131890109283663
1011.0,0.39750593119271893
1010.0,0.3936186348893951
1009.0,0.3898723869240046
1008.0,0.38668683854454056
1007.0,0.38373459471829174
1006.0,0.38080228420705264
1005.0,0.3779933269931952
1004.0,0.3753054687279187
1003.0,0.3726341434072673
1002.0,0.36997914888659
1001.0,0.36764395376092684
1000.0,0.3655227298392685
999.0,0.3634118162701576
998.0,0.3609121289162627
997.0,0.3584267468218245
996.0,0.35634996178267087
995.0,0.35447948509412597
994.0,0.3527148549746333
993.0,0.35076252765039273
992.0,0.3486250560869568
991.0,0.3463052046849182
990.0,0.34390179798716813
989.0,0.341606973720876
988.0,0.3397038397292702
987.0,0.3380927072339792
986.0,0.3366760663717876
985.0,0.3352640314812949
984.0,0.3337629041041956
983.0,0.33208031468263854
982.0,0.3304042189756866
981.0,0.32882715728491685
980.0,0.3274403722367243
979.0,0.3262420634504233
978.0,0.32495526404410735
977.0,0.32358076828164006
976.0,0.32221060893113895
975.0,0.32075385458614103
974.0,0.319120825573189
973.0,0.3174939140609889
972.0,0.3158730743869247
971.0,0.3141687253739365
970.0,0.3122927203751811
969.0,0.3103360349842297
968.0,0.30856484785593796
967.0,0.3070649974688622
966.0,0.30574588797472146
965.0,0.304781081094849
964.0,0.3041682271733077
963.0,0.30364361126666783
962.0,0.3031196283172377
961.0,0.3025962767995123
960.0,0.30233483735232536
959.0,0.3025962767995123
958.0,0.3031196283172377
957.0,0.30373100325446734
956.0,0.3042557248026767
955.0,0.3044307729638145
954.0,0.3040807471686
953.0,0.30346888003039285
952.0,0.3027706572402824
951.0,0.302073555193495
950.0,0.301377570297902
949.0,0.3005959181846627
948.0,0.2996424721773401
947.0,0.2983456826742519
946.0,0.29688065376392214
945.0,0.29533481454547084
944.0,0.2941362877160807
943.0,0.2928558116575548
942.0,0.2915790998652872
941.0,0.2902213981517747
940.0,0.2892059000696725
939.0,0.2884458317498304
938.0,0.2876028685932852
937.0,0.28676153845433827
936.0,0.28592183501814405
935.0,0.2850000325879576
934.0,0.283829652140146
933.0,0.2827456872374503
932.0,0.2819137052169085
931.0,0.281415279972564
930.0,0.28108331398513897
929.0,0.2807516015520539
928.0,0.2803373169819534
927.0,0.28008893580166117
926.0,0.2800061736323962
925.0,0.2798406965940432
924.0,0.27975798171294297
923.0,0.27967528258255836
922.0,0.27967528258255836
921.0,0.2798406965940432
920.0,0.27992342723185937
919.0,0.27975798171294297
918.0,0.27926202298157476
917.0,0.2785191452299507
916.0,0.2781069837850425
915.0,0.27785987454258443
914.0,0.27761290582287623
913.0,0.2772016031290947
912.0,0.2766264329810155
911.0,0.27605202356835656
910.0,0.2754783728814374
909.0,0.27506908580760214
908.0,0.2745784499257413
907.0,0.2740883677049517
906.0,0.27343578383775524
905.0,0.27262143054851107
904.0,0.2717274021049829
903.0,0.27091624295638805
902.0,0.27010659603676235
901.0,0.26945996352288093
900.0,0.2689756201843121
899.0,0.26865302445404504
898.0,0.26833066817136375
897.0,0.2678475819347863
896.0,0.26736503246080434
895.0,0.26672246606741834
894.0,0.26600071346161314
893.0,0.26536016101230064
892.0,0.26472055193954325
891.0,0.2639223629960543
890.0,0.26272782346445656
889.0,0.2613779720820575
888.0,0.26011134491545684
887.0,0.25884840114821506
886.0,0.25743196563385795
885.0,0.25578527518583405
884.0,0.25430077339749424
883.0,0.25313237214957063
882.0,0.252432837262375
881.0,0.2523551806717519
880.0,0.2528990686350139
879.0,0.25430077339749424
878.0,0.2566470485904444
877.0,0.2597952644925503
876.0,0.26376290109527134
875.0,0.2685724129490521
874.0,0.2739251297846299
873.0,0.27975798171294297
872.0,0.28533500713746296
871.0,0.2903061302722081
870.0,0.2943073034622965
869.0,0.2971388294270707
868.0,0.2989503692708604
867.0,0.29972906264356314
866.0,0.29990229538694635
865.0,0.29990229538694635
864.0,0.3000755972575233
863.0,0.3000755972575233
862.0,0.29955589897224844
861.0,0.2984320149440727
860.0,0.29688065376392214
859.0,0.29507770877659834
858.0,0.2928558116575548
857.0,0.29039087892735127
856.0,0.28777133038046476
855.0,0.2852512392749402
854.0,0.283078926833239
853.0,0.2811662816961378
852.0,0.2793446434482756
851.0,0.27753061411596924
850.0,0.27580608048567035
849.0,0.2745784499257413
848.0,0.2737619531973625
847.0,0.27310985925817843
846.0,0.27245874297144357
845.0,0.2717274021049829
844.0,0.27099729072781
843.0,0.27010659603676235
842.0,0.26913700795350604
841.0,0.26808905788312765
840.0,0.2670436304243753
839.0,0.2659205927194057
838.0,0.26472055193954325
837.0,0.26376290109527134
836.0,0.26312563835157743
835.0,0.26256879948541756
834.0,0.261774551857495
833.0,0.26066503980392075
832.0,0.2596373105057561
831.0,0.2589272276266785
830.0,0.2582970160422602
829.0,0.2576677176428517
828.0,0.25688237478525844
827.0,0.25594183412116456
826.0,0.25492520841794253
825.0,0.25406684154055714
824.0,0.2534436385896308
823.0,0.25297682254837217
822.0,0.2527436025578558
821.0,0.25258819211357686
820.0,0.2523551806717519
819.0,0.2519671058698565
818.0,0.25157937753243176
817.0,0.25134690657573255
816.0,0.2509597312965428
815.0,0.2501091587285782
814.0,0.248951965179812
813.0,0.24787469270210183
812.0,0.24703013497091586
811.0,0.24626377782498987
810.0,0.24542234395526963
809.0,0.24496406623222855
808.0,0.24488773360492888
807.0,0.24496406623222855
806.0,0.2448114143916751
805.0,0.24412514432750854
804.0,0.2432878398352285
803.0,0.24252805223433205
802.0,0.24184537803260997
801.0,0.241315150117559
800.0,0.24070996697569602
799.0,0.2398037705448659
798.0,0.23882418684426865
797.0,0.23814730553361696
796.0,0.2379219126653609
795.0,0.2376966367122315
794.0,0.23717144681090963
793.0,0.23649713453240295
792.0,0.23582386760966934
791.0,0.23492779889720805
790.0,0.23395913961861092
789.0,0.2330669061627162
788.0,0.23254728190222673
787.0,0.23239893194966443
786.0,0.23232477597203993
785.0,0.23239893194966443
784.0,0.2326214758858196
783.0,0.23299263605019593
782.0,0.23321548450214102
781.0,0.2330669061627162
780.0,0.23232477597203993
779.0,0.23136189875238555
778.0,0.2306965398109182
777.0,0.23077041826340627
776.0,0.23143589048642665
775.0,0.2318801058152027
774.0,0.23150989482875484
773.0,0.2304749798289496
772.0,0.22951619056889205
771.0,0.22922160383085233
770.0,0.22951619056889205
769.0,0.2301797422364078
768.0,0.23106605781321843
767.0,0.23217650199248308
766.0,0.23336411368973242
765.0,0.23492779889720805
764.0,0.23672178898102136
763.0,0.2386736775785434
762.0,0.24093681183951277
761.0,0.24374435124576666
760.0,0.24749059921115713
759.0,0.2523551806717519
758.0,0.258060922270801
757.0,0.2639223629960543
756.0,0.2695407399542311
755.0,0.27417000967941973
754.0,0.27753061411596924
753.0,0.27926202298157476
752.0,0.2794272796357391
751.0,0.2786016244784948
750.0,0.27761290582287623
749.0,0.27728383251150523
748.0,0.27753061411596924
747.0,0.27769521312567225
746.0,0.27728383251150523
745.0,0.2767085535224161
744.0,0.27629810600873217
743.0,0.2758880460387878
742.0,0.27506908580760214
741.0,0.27400674107527756
740.0,0.273191317475036
739.0,0.2730284163171235
738.0,0.2733542797590882
737.0,0.2740883677049517
736.0,0.27466018409026294
735.0,0.2743333396858214
734.0,0.2725400791420911
733.0,0.2692177243336109
732.0,0.26512019720737245
731.0,0.2612194415156308
730.0,0.25798225285986165
729.0,0.25586354759875274
728.0,0.2546128786799913
727.0,0.25352149006996894
726.0,0.25181197299379954
725.0,0.2494144726589913
724.0,0.24710684511540615
723.0,0.24565166428898122
722.0,0.2453459307445678
721.0,0.24626377782498987
720.0,0.24779784682347894
719.0,0.24949160514865376
718.0,0.2509597312965428
717.0,0.2527436025578558
716.0,0.2548471049230996
715.0,0.2568039185512987
714.0,0.25790359769675564
713.0,0.258060922270801
712.0,0.258060922270801
711.0,0.2583757424961879
710.0,0.259321574772545
709.0,0.2609025538825249
708.0,0.2628073572952627
707.0,0.26432127409409545
706.0,0.2650402387275548
705.0,0.2652801583443203
704.0,0.26552021057442277
703.0,0.26600071346161314
702.0,0.2662411644127973
701.0,0.2663213443229122
700.0,0.26640153903866093
699.0,0.26672246606741834
698.0,0.2672043017106709
697.0,0.2676062401770314
696.0,0.2676062401770314
695.0,0.26728465965000714
694.0,0.2669633170664205
693.0,0.2668830185579356
692.0,0.2670436304243753
691.0,0.2672043017106709
690.0,0.26728465965000714
689.0,0.26744542014856787
688.0,0.2678475819347863
687.0,0.26825011647273667
686.0,0.2684918164039747
685.0,0.2685724129490521
684.0,0.2689756201843121
683.0,0.26945996352288093
682.0,0.26970233790285025
681.0,0.2692984557181548
680.0,0.2681695797118375
679.0,0.26648174856551243
678.0,0.26496029496627926
677.0,0.2641616656829262
676.0,0.2639223629960543
675.0,0.2639223629960543
674.0,0.2638426247268679
673.0,0.26376290109527134
672.0,0.26360349772335767
671.0,0.2634441528373641
670.0,0.26376290109527134
669.0,0.26520017041115307
668.0,0.2681695797118375
667.0,0.2715650490257453
666.0,0.272296116314646
665.0,0.2692984557181548
664.0,0.2657603955645449
663.0,0.263046046216854
662.0,0.26082336808927
661.0,0.258612007520731
660.0,0.25672547648806665
659.0,0.2550814575586471
658.0,0.2539888922480742
657.0,0.25383303562271453
656.0,0.25430077339749424
655.0,0.25406684154055714
654.0,0.25266589038409504
653.0,0.25088233764367773
652.0,0.2498002721708179
651.0,0.24933735386594424
650.0,0.24918315735024543
649.0,0.24956875133979795
648.0,0.2505729008782511
647.0,0.2509597312965428
646.0,0.2498774732165998
645.0,0.24779784682347894
644.0,0.2461106685401666
643.0,0.24519314464557662
642.0,0.24511677174783242
641.0,0.24626377782498987
640.0,0.24933735386594424
639.0,0.25406684154055714
638.0,0.25924267669222956
637.0,0.2639223629960543
636.0,0.2679280590001334
635.0,0.27075419277469326
634.0,0.27115943166002854
633.0,0.26833066817136375
632.0,0.2628073572952627
631.0,0.2560201347581572
630.0,0.2498774732165998
629.0,0.24626377782498987
628.0,0.2450404122782901
627.0,0.2450404122782901
626.0,0.24519314464557662
625.0,0.24565166428898122
624.0,0.24710684511540615
623.0,0.24864390027460637
622.0,0.248951965179812
621.0,0.24764419584649922
620.0,0.24595761321456378
619.0,0.24458253718906375
618.0,0.2430597639532759
617.0,0.24055880286630238
616.0,0.2377717157135255
615.0,0.23604817396667577
614.0,0.23672178898102136
613.0,0.23957751657678794
612.0,0.24275584897802993
611.0,0.24427755509654192
610.0,0.24313577593945102
609.0,0.24055880286630238
608.0,0.23799703062488464
607.0,0.23567439437401605
606.0,0.23321548450214102
605.0,0.23099212905622624
604.0,0.2299584456803314
603.0,0.22973726182940668
602.0,0.22929523178422073
601.0,0.22841251911874472
600.0,0.2280452510360509
