cm-1,A
4000.0,0.012557195064198723
3999.0,0.012467797270160563
3998.0,0.012423105273012602
3997.0,0.012378417874516323
3996.0,0.012333735073725371
3995.0,0.012378417874516323
3994.0,0.012378417874516323
3993.0,0.012378417874516323
3992.0,0.012423105273012602
3991.0,0.012467797270160563
3990.0,0.012557195064198723
3989.0,0.01264661126420652
3988.0,0.012780770091995297
3987.0,0.012825498912458322
3986.0,0.012825498912458322
3985.0,0.012780770091995297
3984.0,0.012736045877764557
3983.0,0.012691326268817527
3982.0,0.01264661126420652
3981.0,0.01264661126420652
3980.0,0.01260190086298274
3979.0,0.012557195064198723
3978.0,0.012512493866907004
3977.0,0.012423105273012602
3976.0,0.012378417874516323
3975.0,0.012333735073725371
3974.0,0.012244383261476699
3973.0,0.01215504982870197
3972.0,0.01215504982870197
3971.0,0.012199714248127602
3970.0,0.012333735073725371
3969.0,0.012423105273012602
3968.0,0.012512493866907004
3967.0,0.012512493866907004
3966.0,0.012512493866907004
3965.0,0.012512493866907004
3964.0,0.012557195064198723
3963.0,0.01264661126420652
3962.0,0.012691326268817527
3961.0,0.012736045877764557
3960.0,0.012736045877764557
3959.0,0.012691326268817527
3958.0,0.01260190086298274
3957.0,0.012467797270160563
3956.0,0.012378417874516323
3955.0,0.012333735073725371
3954.0,0.012289056869694281
3953.0,0.012289056869694281
3952.0,0.012289056869694281
3951.0,0.012289056869694281
3950.0,0.012289056869694281
3949.0,0.012244383261476699
3948.0,0.012110390002254778
3947.0,0.011887159731648111
3946.0,0.011753276624621556
3945.0,0.011797899741219142
3944.0,0.012065734767841452
3943.0,0.012333735073725371
3942.0,0.012512493866907004
3941.0,0.012512493866907004
3940.0,0.012512493866907004
3939.0,0.012557195064198723
3938.0,0.012557195064198723
3937.0,0.012423105273012602
3936.0,0.012289056869694281
3935.0,0.012244383261476699
3934.0,0.012244383261476699
3933.0,0.012289056869694281
3932.0,0.012289056869694281
3931.0,0.012199714248127602
3930.0,0.012110390002254778
3929.0,0.012110390002254778
3928.0,0.012199714248127602
3927.0,0.012289056869694281
3926.0,0.012333735073725371
3925.0,0.012333735073725371
3924.0,0.012289056869694281
3923.0,0.012199714248127602
3922.0,0.01215504982870197
3921.0,0.012110390002254778
3920.0,0.012065734767841452
3919.0,0.012021084124518078
3918.0,0.012065734767841452
3917.0,0.012199714248127602
3916.0,0.012333735073725371
3915.0,0.012423105273012602
3914.0,0.012512493866907004
3913.0,0.01264661126420652
3912.0,0.012691326268817527
3911.0,0.01264661126420652
3910.0,0.012557195064198723
3909.0,0.012423105273012602
3908.0,0.012289056869694281
3907.0,0.012199714248127602
3906.0,0.012110390002254778
3905.0,0.012021084124518078
3904.0,0.011797899741219142
3903.0,0.011530229790124524
3902.0,0.011396456654336085
3901.0,0.011530229790124524
3900.0,0.011664044143949504
3899.0,0.011708658092512314
3898.0,0.011708658092512314
3897.0,0.011753276624621556
3896.0,0.011931796607364653
3895.0,0.012065734767841452
3894.0,0.01215504982870197
3893.0,0.012199714248127602
3892.0,0.01215504982870197
3891.0,0.0119764380713403
3890.0,0.011664044143949504
3889.0,0.011619434777991433
3888.0,0.011931796607364653
3887.0,0.012333735073725371
3886.0,0.012557195064198723
3885.0,0.012333735073725371
3884.0,0.011887159731648111
3883.0,0.011664044143949504
3882.0,0.011797899741219142
3881.0,0.012021084124518078
3880.0,0.012021084124518078
3879.0,0.011753276624621556
3878.0,0.011664044143949504
3877.0,0.011842527443247208
3876.0,0.012110390002254778
3875.0,0.01215504982870197
3874.0,0.011887159731648111
3873.0,0.011441043121384498
3872.0,0.011307297450183107
3871.0,0.011485634166333858
3870.0,0.011753276624621556
3869.0,0.011664044143949504
3868.0,0.011530229790124524
3867.0,0.011708658092512314
3866.0,0.0119764380713403
3865.0,0.012065734767841452
3864.0,0.012021084124518078
3863.0,0.011931796607364653
3862.0,0.0119764380713403
3861.0,0.012065734767841452
3860.0,0.012065734767841452
3859.0,0.0119764380713403
3858.0,0.011797899741219142
3857.0,0.011574829993696856
3856.0,0.011441043121384498
3855.0,0.011619434777991433
3854.0,0.012065734767841452
3853.0,0.012021084124518078
3852.0,0.011708658092512314
3851.0,0.011931796607364653
3850.0,0.01264661126420652
3849.0,0.013093968619278806
3848.0,0.013049212141483357
3847.0,0.012780770091995297
3846.0,0.012423105273012602
3845.0,0.012110390002254778
3844.0,0.011753276624621556
3843.0,0.011441043121384498
3842.0,0.01117359295472431
3841.0,0.011084479487313281
3840.0,0.011262724711199823
3839.0,0.011574829993696856
3838.0,0.011753276624621556
3837.0,0.011708658092512314
3836.0,0.011664044143949504
3835.0,0.011797899741219142
3834.0,0.012110390002254778
3833.0,0.012423105273012602
3832.0,0.01260190086298274
3831.0,0.012557195064198723
3830.0,0.012333735073725371
3829.0,0.012199714248127602
3828.0,0.012199714248127602
3827.0,0.012289056869694281
3826.0,0.012199714248127602
3825.0,0.011931796607364653
3824.0,0.011753276624621556
3823.0,0.011797899741219142
3822.0,0.012021084124518078
3821.0,0.012021084124518078
3820.0,0.011485634166333858
3819.0,0.01117359295472431
3818.0,0.011441043121384498
3817.0,0.012021084124518078
3816.0,0.012423105273012602
3815.0,0.012512493866907004
3814.0,0.012557195064198723
3813.0,0.012780770091995297
3812.0,0.013004460275618523
3811.0,0.012870232340102872
3810.0,0.012512493866907004
3809.0,0.012289056869694281
3808.0,0.012333735073725371
3807.0,0.012333735073725371
3806.0,0.01215504982870197
3805.0,0.011931796607364653
3804.0,0.012065734767841452
3803.0,0.012467797270160563
3802.0,0.012870232340102872
3801.0,0.012870232340102872
3800.0,0.012557195064198723
3799.0,0.012512493866907004
3798.0,0.012780770091995297
3797.0,0.013049212141483357
3796.0,0.013093968619278806
3795.0,0.013049212141483357
3794.0,0.013093968619278806
3793.0,0.01322826573375524
3792.0,0.013273040668781544
3791.0,0.01318349541446362
3790.0,0.013004460275618523
3789.0,0.012825498912458322
3788.0,0.012736045877764557
3787.0,0.01264661126420652
3786.0,0.01264661126420652
3785.0,0.012557195064198723
3784.0,0.012378417874516323
3783.0,0.012199714248127602
3782.0,0.01215504982870197
3781.0,0.012378417874516323
3780.0,0.012691326268817527
3779.0,0.012870232340102872
3778.0,0.012825498912458322
3777.0,0.012825498912458322
3776.0,0.012870232340102872
3775.0,0.012959713020733288
3774.0,0.012870232340102872
3773.0,0.012736045877764557
3772.0,0.012825498912458322
3771.0,0.013004460275618523
3770.0,0.013093968619278806
3769.0,0.012914970375878188
3768.0,0.012736045877764557
3767.0,0.012780770091995297
3766.0,0.012914970375878188
3765.0,0.012959713020733288
3764.0,0.012825498912458322
3763.0,0.01264661126420652
3762.0,0.012557195064198723
3761.0,0.012467797270160563
3760.0,0.012423105273012602
3759.0,0.012378417874516323
3758.0,0.012333735073725371
3757.0,0.012199714248127602
3756.0,0.0119764380713403
3755.0,0.011619434777991433
3754.0,0.011218156546359825
3753.0,0.010995384301463185
3752.0,0.011262724711199823
3751.0,0.011931796607364653
3750.0,0.012244383261476699
3749.0,0.01215504982870197
3748.0,0.012021084124518078
3747.0,0.01215504982870197
3746.0,0.01264661126420652
3745.0,0.013138729709955221
3744.0,0.013004460275618523
3743.0,0.012423105273012602
3742.0,0.012244383261476699
3741.0,0.012467797270160563
3740.0,0.012512493866907004
3739.0,0.012199714248127602
3738.0,0.011931796607364653
3737.0,0.011753276624621556
3736.0,0.011664044143949504
3735.0,0.011441043121384498
3734.0,0.011396456654336085
3733.0,0.011664044143949504
3732.0,0.012110390002254778
3731.0,0.012467797270160563
3730.0,0.012691326268817527
3729.0,0.012825498912458322
3728.0,0.012914970375878188
3727.0,0.012825498912458322
3726.0,0.01264661126420652
3725.0,0.012423105273012602
3724.0,0.012423105273012602
3723.0,0.012512493866907004
3722.0,0.01260190086298274
3721.0,0.01264661126420652
3720.0,0.01260190086298274
3719.0,0.01264661126420652
3718.0,0.012691326268817527
3717.0,0.012736045877764557
3716.0,0.012736045877764557
3715.0,0.012736045877764557
3714.0,0.012736045877764557
3713.0,0.012825498912458322
3712.0,0.012870232340102872
3711.0,0.012870232340102872
3710.0,0.012736045877764557
3709.0,0.012736045877764557
3708.0,0.012780770091995297
3707.0,0.012870232340102872
3706.0,0.012825498912458322
3705.0,0.012780770091995297
3704.0,0.012825498912458322
3703.0,0.012959713020733288
3702.0,0.013138729709955221
3701.0,0.01318349541446362
3700.0,0.01318349541446362
3699.0,0.01322826573375524
3698.0,0.013362604389846044
3697.0,0.013362604389846044
3696.0,0.01322826573375524
3695.0,0.013004460275618523
3694.0,0.012780770091995297
3693.0,0.012512493866907004
3692.0,0.012289056869694281
3691.0,0.012065734767841452
3690.0,0.012110390002254778
3689.0,0.012244383261476699
3688.0,0.012423105273012602
3687.0,0.01264661126420652
3686.0,0.013004460275618523
3685.0,0.013273040668781544
3684.0,0.013362604389846044
3683.0,0.01322826573375524
3682.0,0.013093968619278806
3681.0,0.012959713020733288
3680.0,0.012736045877764557
3679.0,0.012378417874516323
3678.0,0.012199714248127602
3677.0,0.012467797270160563
3676.0,0.013093968619278806
3675.0,0.013138729709955221
3674.0,0.01260190086298274
3673.0,0.012378417874516323
3672.0,0.01264661126420652
3671.0,0.013049212141483357
3670.0,0.013407393177789162
3669.0,0.013407393177789162
3668.0,0.013362604389846044
3667.0,0.013586594534531482
3666.0,0.013945219230304673
3665.0,0.014214382227394795
3664.0,0.014304140310157809
3663.0,0.014304140310157809
3662.0,0.014259258949925524
3661.0,0.01403492169512921
3660.0,0.01381070026317599
3659.0,0.013631406429727155
3658.0,0.013676222949234651
3657.0,0.01381070026317599
3656.0,0.01381070026317599
3655.0,0.013586594534531482
3654.0,0.013273040668781544
3653.0,0.012959713020733288
3652.0,0.01260190086298274
3651.0,0.012467797270160563
3650.0,0.012691326268817527
3649.0,0.012959713020733288
3648.0,0.013093968619278806
3647.0,0.01322826573375524
3646.0,0.013496984613259544
3645.0,0.013900374944870508
3644.0,0.014349026309051105
3643.0,0.014663358264387139
3642.0,0.014888020460646079
3641.0,0.015022873584506602
3640.0,0.015067833932588037
3639.0,0.015067833932588037
3638.0,0.015067833932588037
3637.0,0.014977917890464765
3636.0,0.014888020460646079
3635.0,0.014843078722943437
3634.0,0.014753209197138295
3633.0,0.014573525916998342
3632.0,0.014349026309051105
3631.0,0.014393916947563534
3630.0,0.014753209197138295
3629.0,0.015112798935672522
3628.0,0.014932966849499074
3627.0,0.014708281407112
3626.0,0.014888020460646079
3625.0,0.015112798935672522
3624.0,0.015022873584506602
3623.0,0.014708281407112
3622.0,0.014349026309051105
3621.0,0.014214382227394795
3620.0,0.014349026309051105
3619.0,0.01452861671041239
3618.0,0.014618439768003144
3617.0,0.014708281407112
3616.0,0.014932966849499074
3615.0,0.015112798935672522
3614.0,0.015202742910707112
3613.0,0.015067833932588037
3612.0,0.014843078722943437
3611.0,0.014798141635428141
3610.0,0.015022873584506602
3609.0,0.01538268676325183
3608.0,0.015652742414136167
3607.0,0.015697768020096703
3606.0,0.015652742414136167
3605.0,0.015652742414136167
3604.0,0.015607721475734415
3603.0,0.015607721475734415
3602.0,0.015607721475734415
3601.0,0.015607721475734415
3600.0,0.015517693597737248
3599.0,0.01538268676325183
3598.0,0.015337693809893471
3597.0,0.01538268676325183
3596.0,0.015517693597737248
3595.0,0.015607721475734415
3594.0,0.015652742414136167
3593.0,0.015517693597737248
3592.0,0.015292705517326866
3591.0,0.015022873584506602
3590.0,0.014843078722943437
3589.0,0.014888020460646079
3588.0,0.015157768594724175
3587.0,0.01538268676325183
3586.0,0.015427684378367834
3585.0,0.015517693597737248
3584.0,0.015697768020096703
3583.0,0.015922966097169144
3582.0,0.016103208673694303
3581.0,0.016193358021584725
3580.0,0.016193358021584725
3579.0,0.016148281008528276
3578.0,0.016193358021584725
3577.0,0.01632861713980338
3576.0,0.016554142658660398
3575.0,0.016734647433454652
3574.0,0.01677978535189717
3573.0,0.016734647433454652
3572.0,0.016554142658660398
3571.0,0.016238439713835096
3570.0,0.01596801972881945
3569.0,0.015877917138889863
3568.0,0.01596801972881945
3567.0,0.016058141016111804
3566.0,0.016103208673694303
3565.0,0.016238439713835096
3564.0,0.016509028184833463
3563.0,0.016870075265299933
3562.0,0.017095882207371904
3561.0,0.017231422748988034
3560.0,0.017321806616515723
3559.0,0.017412209298337533
3558.0,0.017547848615010242
3557.0,0.017547848615010242
3556.0,0.017457417697056554
3555.0,0.017321806616515723
3554.0,0.017231422748988034
3553.0,0.01727661233145472
3552.0,0.017321806616515723
3551.0,0.017231422748988034
3550.0,0.017095882207371904
3549.0,0.017005545341335804
3548.0,0.017005545341335804
3547.0,0.017186237868137555
3546.0,0.017502630802287644
3545.0,0.017774008325325275
3544.0,0.01800028587012159
3543.0,0.018226681372252695
3542.0,0.018362575344230914
3541.0,0.01831727262871463
3540.0,0.018181392829336396
3539.0,0.018045555530026514
3538.0,0.017955020928509757
3537.0,0.018045555530026514
3536.0,0.018136109008649592
3535.0,0.018181392829336396
3534.0,0.018181392829336396
3533.0,0.018136109008649592
3532.0,0.018045555530026514
3531.0,0.01800028587012159
3530.0,0.017955020928509757
3529.0,0.017864505196230507
3528.0,0.01768353030793479
3527.0,0.017457417697056554
3526.0,0.017321806616515723
3525.0,0.01727661233145472
3524.0,0.017412209298337533
3523.0,0.01759307113620534
3522.0,0.017774008325325275
3521.0,0.017909760704207134
3520.0,0.01809082990920774
3519.0,0.01831727262871463
3518.0,0.01845319495476394
3517.0,0.018498511851753108
3516.0,0.01840788278591865
3515.0,0.018226681372252695
3514.0,0.01800028587012159
3513.0,0.017909760704207134
3512.0,0.017909760704207134
3511.0,0.01800028587012159
3510.0,0.01809082990920774
3509.0,0.01809082990920774
3508.0,0.01800028587012159
3507.0,0.017864505196230507
3506.0,0.017864505196230507
3505.0,0.017955020928509757
3504.0,0.018045555530026514
3503.0,0.018136109008649592
3502.0,0.018045555530026514
3501.0,0.017909760704207134
3500.0,0.017774008325325275
3499.0,0.017728766960431575
3498.0,0.017774008325325275
3497.0,0.017864505196230507
3496.0,0.017955020928509757
3495.0,0.017955020928509757
3494.0,0.017909760704207134
3493.0,0.01781925440359733
3492.0,0.01768353030793479
3491.0,0.017547848615010242
3490.0,0.017547848615010242
3489.0,0.017638298366853045
3488.0,0.017864505196230507
3487.0,0.01800028587012159
3486.0,0.01800028587012159
3485.0,0.017909760704207134
3484.0,0.01781925440359733
3483.0,0.017864505196230507
3482.0,0.017955020928509757
3481.0,0.017909760704207134
3480.0,0.017774008325325275
3479.0,0.017638298366853045
3478.0,0.01759307113620534
3477.0,0.01768353030793479
3476.0,0.01781925440359733
3475.0,0.017909760704207134
3474.0,0.017955020928509757
3473.0,0.018045555530026514
3472.0,0.018136109008649592
3471.0,0.018271974638383703
3470.0,0.01831727262871463
3469.0,0.01831727262871463
3468.0,0.018271974638383703
3467.0,0.018226681372252695
3466.0,0.018271974638383703
3465.0,0.01831727262871463
3464.0,0.018362575344230914
3463.0,0.01845319495476394
3462.0,0.018498511851753108
3461.0,0.018543833477873584
3460.0,0.018634490921455527
3459.0,0.018679826740892747
3458.0,0.018679826740892747
3457.0,0.018725167293411005
3456.0,0.018725167293411005
3455.0,0.018815862601645694
3454.0,0.018906576854070378
3453.0,0.01899731005860028
3452.0,0.0190880622231564
3451.0,0.0190880622231564
3450.0,0.019042683770379876
3449.0,0.019042683770379876
3448.0,0.019133445417920836
3447.0,0.019178833355664393
3446.0,0.019269623464054586
3445.0,0.019360432556262852
3444.0,0.01954210772389997
3443.0,0.019814763052665052
3442.0,0.020087589665283012
3441.0,0.020315076172974234
3440.0,0.02045162529590483
3439.0,0.02058821736556471
3438.0,0.02067930261797568
3437.0,0.02067930261797568
3436.0,0.020633757603838898
3435.0,0.02058821736556471
3434.0,0.02058821736556471
3433.0,0.02067930261797568
3432.0,0.020770406977844713
3431.0,0.020861530453190058
3430.0,0.020861530453190058
3429.0,0.02081596632558158
3428.0,0.020770406977844713
3427.0,0.020770406977844713
3426.0,0.02067930261797568
3425.0,0.020542681902151694
3424.0,0.020406104151069693
3423.0,0.020406104151069693
3422.0,0.02045162529590483
3421.0,0.020497151212598652
3420.0,0.020406104151069693
3419.0,0.02026956933771462
3418.0,0.02004210665933459
3417.0,0.01990568621470623
3416.0,0.019860222254245663
3415.0,0.019769308608968306
3414.0,0.019678413991243593
3413.0,0.01949668180660491
3412.0,0.019315025636685412
3411.0,0.019133445417920836
3410.0,0.01899731005860028
3409.0,0.018906576854070378
3408.0,0.018906576854070378
3407.0,0.01899731005860028
3406.0,0.0190880622231564
3405.0,0.019178833355664393
3404.0,0.019269623464054586
3403.0,0.019360432556262852
3402.0,0.01940584422377989
3401.0,0.019360432556262852
3400.0,0.019315025636685412
3399.0,0.019315025636685412
3398.0,0.019360432556262852
3397.0,0.01940584422377989
3396.0,0.01940584422377989
3395.0,0.019269623464054586
3394.0,0.019042683770379876
3393.0,0.018815862601645694
3392.0,0.018725167293411005
3391.0,0.018770512579999288
3390.0,0.018861217359339655
3389.0,0.018906576854070378
3388.0,0.018906576854070378
3387.0,0.018861217359339655
3386.0,0.018815862601645694
3385.0,0.018770512579999288
3384.0,0.018770512579999288
3383.0,0.018815862601645694
3382.0,0.018861217359339655
3381.0,0.018906576854070378
3380.0,0.018951941086827073
3379.0,0.018951941086827073
3378.0,0.01899731005860028
3377.0,0.01899731005860028
3376.0,0.018951941086827073
3375.0,0.018906576854070378
3374.0,0.018906576854070378
3373.0,0.018861217359339655
3372.0,0.018770512579999288
3371.0,0.018634490921455527
3370.0,0.018498511851753108
3369.0,0.01840788278591865
3368.0,0.01840788278591865
3367.0,0.01840788278591865
3366.0,0.01845319495476394
3365.0,0.018498511851753108
3364.0,0.01858915983411169
3363.0,0.01858915983411169
3362.0,0.01858915983411169
3361.0,0.018543833477873584
3360.0,0.01845319495476394
3359.0,0.01840788278591865
3358.0,0.01845319495476394
3357.0,0.018498511851753108
3356.0,0.01858915983411169
3355.0,0.01858915983411169
3354.0,0.018498511851753108
3353.0,0.01845319495476394
3352.0,0.01845319495476394
3351.0,0.01858915983411169
3350.0,0.018634490921455527
3349.0,0.018634490921455527
3348.0,0.018543833477873584
3347.0,0.01845319495476394
3346.0,0.01845319495476394
3345.0,0.018498511851753108
3344.0,0.01858915983411169
3343.0,0.018679826740892747
3342.0,0.018770512579999288
3341.0,0.018861217359339655
3340.0,0.018951941086827073
3339.0,0.019042683770379876
3338.0,0.0190880622231564
3337.0,0.019178833355664393
3336.0,0.019178833355664393
3335.0,0.019178833355664393
3334.0,0.0190880622231564
3333.0,0.019042683770379876
3332.0,0.01899731005860028
3331.0,0.01899731005860028
3330.0,0.018951941086827073
3329.0,0.018906576854070378
3328.0,0.018815862601645694
3327.0,0.018815862601645694
3326.0,0.018815862601645694
3325.0,0.018770512579999288
3324.0,0.018679826740892747
3323.0,0.01858915983411169
3322.0,0.018498511851753108
3321.0,0.018498511851753108
3320.0,0.018498511851753108
3319.0,0.01858915983411169
3318.0,0.018679826740892747
3317.0,0.018815862601645694
3316.0,0.018951941086827073
3315.0,0.019042683770379876
3314.0,0.01899731005860028
3313.0,0.018951941086827073
3312.0,0.018861217359339655
3311.0,0.018861217359339655
3310.0,0.018861217359339655
3309.0,0.018906576854070378
3308.0,0.018951941086827073
3307.0,0.018951941086827073
3306.0,0.018951941086827073
3305.0,0.018906576854070378
3304.0,0.018861217359339655
3303.0,0.018770512579999288
3302.0,0.018725167293411005
3301.0,0.018725167293411005
3300.0,0.018770512579999288
3299.0,0.018906576854070378
3298.0,0.019042683770379876
3297.0,0.0190880622231564
3296.0,0.0190880622231564
3295.0,0.019042683770379876
3294.0,0.01899731005860028
3293.0,0.019042683770379876
3292.0,0.0190880622231564
3291.0,0.019042683770379876
3290.0,0.018906576854070378
3289.0,0.018770512579999288
3288.0,0.018634490921455527
3287.0,0.018634490921455527
3286.0,0.018770512579999288
3285.0,0.018906576854070378
3284.0,0.018951941086827073
3283.0,0.018815862601645694
3282.0,0.018634490921455527
3281.0,0.018498511851753108
3280.0,0.018498511851753108
3279.0,0.018543833477873584
3278.0,0.018543833477873584
3277.0,0.018543833477873584
3276.0,0.01858915983411169
3275.0,0.018679826740892747
3274.0,0.018815862601645694
3273.0,0.018906576854070378
3272.0,0.01899731005860028
3271.0,0.019042683770379876
3270.0,0.019042683770379876
3269.0,0.01899731005860028
3268.0,0.018951941086827073
3267.0,0.018906576854070378
3266.0,0.018906576854070378
3265.0,0.018906576854070378
3264.0,0.018861217359339655
3263.0,0.018861217359339655
3262.0,0.018861217359339655
3261.0,0.018815862601645694
3260.0,0.018725167293411005
3259.0,0.018634490921455527
3258.0,0.018543833477873584
3257.0,0.018498511851753108
3256.0,0.018498511851753108
3255.0,0.018543833477873584
3254.0,0.01858915983411169
3253.0,0.018634490921455527
3252.0,0.018725167293411005
3251.0,0.018906576854070378
3250.0,0.0190880622231564
3249.0,0.0192242260373785
3248.0,0.019269623464054586
3247.0,0.019315025636685412
3246.0,0.019315025636685412
3245.0,0.0192242260373785
3244.0,0.019178833355664393
3243.0,0.019178833355664393
3242.0,0.019133445417920836
3241.0,0.019042683770379876
3240.0,0.018951941086827073
3239.0,0.018815862601645694
3238.0,0.018679826740892747
3237.0,0.018543833477873584
3236.0,0.01845319495476394
3235.0,0.01845319495476394
3234.0,0.018498511851753108
3233.0,0.018543833477873584
3232.0,0.018543833477873584
3231.0,0.018543833477873584
3230.0,0.018543833477873584
3229.0,0.018543833477873584
3228.0,0.01858915983411169
3227.0,0.018634490921455527
3226.0,0.018679826740892747
3225.0,0.018679826740892747
3224.0,0.018634490921455527
3223.0,0.018543833477873584
3222.0,0.01845319495476394
3221.0,0.01845319495476394
3220.0,0.018498511851753108
3219.0,0.01858915983411169
3218.0,0.018634490921455527
3217.0,0.018634490921455527
3216.0,0.018543833477873584
3215.0,0.01840788278591865
3214.0,0.018271974638383703
3213.0,0.018181392829336396
3212.0,0.018181392829336396
3211.0,0.018271974638383703
3210.0,0.018271974638383703
3209.0,0.018226681372252695
3208.0,0.018136109008649592
3207.0,0.01809082990920774
3206.0,0.018181392829336396
3205.0,0.018362575344230914
3204.0,0.018498511851753108
3203.0,0.018498511851753108
3202.0,0.018362575344230914
3201.0,0.018136109008649592
3200.0,0.017909760704207134
3199.0,0.01781925440359733
3198.0,0.017864505196230507
3197.0,0.018045555530026514
3196.0,0.018226681372252695
3195.0,0.018362575344230914
3194.0,0.01845319495476394
3193.0,0.01845319495476394
3192.0,0.01840788278591865
3191.0,0.018362575344230914
3190.0,0.01831727262871463
3189.0,0.018271974638383703
3188.0,0.01831727262871463
3187.0,0.018362575344230914
3186.0,0.01840788278591865
3185.0,0.01840788278591865
3184.0,0.018362575344230914
3183.0,0.018226681372252695
3182.0,0.018136109008649592
3181.0,0.01809082990920774
3180.0,0.018136109008649592
3179.0,0.018181392829336396
3178.0,0.018181392829336396
3177.0,0.018136109008649592
3176.0,0.018045555530026514
3175.0,0.017955020928509757
3174.0,0.017864505196230507
3173.0,0.01781925440359733
3172.0,0.01781925440359733
3171.0,0.017864505196230507
3170.0,0.017909760704207134
3169.0,0.017909760704207134
3168.0,0.017909760704207134
3167.0,0.017955020928509757
3166.0,0.017909760704207134
3165.0,0.01781925440359733
3164.0,0.01768353030793479
3163.0,0.01759307113620534
3162.0,0.017638298366853045
3161.0,0.017774008325325275
3160.0,0.017909760704207134
3159.0,0.017955020928509757
3158.0,0.017909760704207134
3157.0,0.01781925440359733
3156.0,0.017774008325325275
3155.0,0.017774008325325275
3154.0,0.017774008325325275
3153.0,0.017774008325325275
3152.0,0.01781925440359733
3151.0,0.017955020928509757
3150.0,0.018181392829336396
3149.0,0.018271974638383703
3148.0,0.018271974638383703
3147.0,0.01809082990920774
3146.0,0.017909760704207134
3145.0,0.017774008325325275
3144.0,0.01768353030793479
3143.0,0.017728766960431575
3142.0,0.017774008325325275
3141.0,0.017864505196230507
3140.0,0.017864505196230507
3139.0,0.01781925440359733
3138.0,0.01781925440359733
3137.0,0.017864505196230507
3136.0,0.017955020928509757
3135.0,0.018045555530026514
3134.0,0.018136109008649592
3133.0,0.018226681372252695
3132.0,0.018226681372252695
3131.0,0.018271974638383703
3130.0,0.018271974638383703
3129.0,0.018226681372252695
3128.0,0.018181392829336396
3127.0,0.018136109008649592
3126.0,0.01809082990920774
3125.0,0.01809082990920774
3124.0,0.018045555530026514
3123.0,0.017955020928509757
3122.0,0.017909760704207134
3121.0,0.017864505196230507
3120.0,0.017909760704207134
3119.0,0.01800028587012159
3118.0,0.018181392829336396
3117.0,0.01840788278591865
3116.0,0.01858915983411169
3115.0,0.018725167293411005
3114.0,0.018770512579999288
3113.0,0.018770512579999288
3112.0,0.018770512579999288
3111.0,0.018815862601645694
3110.0,0.018906576854070378
3109.0,0.018906576854070378
3108.0,0.018951941086827073
3107.0,0.019042683770379876
3106.0,0.019178833355664393
3105.0,0.019315025636685412
3104.0,0.01940584422377989
3103.0,0.01940584422377989
3102.0,0.019360432556262852
3101.0,0.019269623464054586
3100.0,0.0192242260373785
3099.0,0.019133445417920836
3098.0,0.01899731005860028
3097.0,0.018906576854070378
3096.0,0.018770512579999288
3095.0,0.018725167293411005
3094.0,0.018634490921455527
3093.0,0.01858915983411169
3092.0,0.01858915983411169
3091.0,0.018634490921455527
3090.0,0.018725167293411005
3089.0,0.018861217359339655
3088.0,0.019042683770379876
3087.0,0.0192242260373785
3086.0,0.01940584422377989
3085.0,0.01954210772389997
3084.0,0.019632973815224997
3083.0,0.019632973815224997
3082.0,0.01958753839310856
3081.0,0.01954210772389997
3080.0,0.01949668180660491
3079.0,0.019451260640229506
3078.0,0.019360432556262852
3077.0,0.019269623464054586
3076.0,0.019269623464054586
3075.0,0.019315025636685412
3074.0,0.01940584422377989
3073.0,0.01954210772389997
3072.0,0.019632973815224997
3071.0,0.019723858922159776
3070.0,0.019769308608968306
3069.0,0.019814763052665052
3068.0,0.019860222254245663
3067.0,0.019814763052665052
3066.0,0.019769308608968306
3065.0,0.019632973815224997
3064.0,0.01954210772389997
3063.0,0.01949668180660491
3062.0,0.019451260640229506
3061.0,0.019451260640229506
3060.0,0.019451260640229506
3059.0,0.01954210772389997
3058.0,0.019678413991243593
3057.0,0.019860222254245663
3056.0,0.02004210665933459
3055.0,0.02013307743509718
3054.0,0.020178569969774962
3053.0,0.02013307743509718
3052.0,0.019996628416253603
3051.0,0.019769308608968306
3050.0,0.019451260640229506
3049.0,0.019133445417920836
3048.0,0.018861217359339655
3047.0,0.018679826740892747
3046.0,0.018498511851753108
3045.0,0.01831727262871463
3044.0,0.01809082990920774
3043.0,0.01781925440359733
3042.0,0.017638298366853045
3041.0,0.017502630802287644
3040.0,0.017457417697056554
3039.0,0.017412209298337533
3038.0,0.017367005605150476
3037.0,0.017367005605150476
3036.0,0.017367005605150476
3035.0,0.017367005605150476
3034.0,0.017367005605150476
3033.0,0.017321806616515723
3032.0,0.01727661233145472
3031.0,0.01727661233145472
3030.0,0.017231422748988034
3029.0,0.017186237868137555
3028.0,0.017186237868137555
3027.0,0.017231422748988034
3026.0,0.017321806616515723
3025.0,0.017412209298337533
3024.0,0.017457417697056554
3023.0,0.017502630802287644
3022.0,0.017502630802287644
3021.0,0.017547848615010242
3020.0,0.01759307113620534
3019.0,0.01768353030793479
3018.0,0.01781925440359733
3017.0,0.01800028587012159
3016.0,0.018181392829336396
3015.0,0.018362575344230914
3014.0,0.018543833477873584
3013.0,0.018634490921455527
3012.0,0.018725167293411005
3011.0,0.018815862601645694
3010.0,0.018861217359339655
3009.0,0.018906576854070378
3008.0,0.01899731005860028
3007.0,0.019042683770379876
3006.0,0.019133445417920836
3005.0,0.019178833355664393
3004.0,0.019269623464054586
3003.0,0.019360432556262852
3002.0,0.01949668180660491
3001.0,0.01958753839310856
3000.0,0.019632973815224997
2999.0,0.019723858922159776
2998.0,0.019814763052665052
2997.0,0.01990568621470623
2996.0,0.01995115493504329
2995.0,0.020087589665283012
2994.0,0.02022406727031445
2993.0,0.02036058777709271
2992.0,0.02045162529590483
2991.0,0.020542681902151694
2990.0,0.020633757603838898
2989.0,0.020770406977844713
2988.0,0.020952673052035298
2987.0,0.0211806132671577
2986.0,0.02140867317992523
2985.0,0.021636852916117055
2984.0,0.021910826943857264
2983.0,0.022230681908425698
2982.0,0.02255077261765881
2981.0,0.022871099419317753
2980.0,0.02314585342378117
2979.0,0.023374947949272418
2978.0,0.023695883447997224
2977.0,0.024154774532432866
2976.0,0.02475205875931885
2975.0,0.025304128090317013
2974.0,0.025718641122169483
2973.0,0.025949097207122573
2972.0,0.026225806029419818
2971.0,0.026502691267936695
2970.0,0.02691835039863255
2969.0,0.027426919073445077
2968.0,0.02798240132598462
2967.0,0.028538594975413334
2966.0,0.029002634427514717
2965.0,0.02942069428514915
2964.0,0.029792641193145286
2963.0,0.030164906924202484
2962.0,0.030537492025363155
2961.0,0.030863766403287585
2960.0,0.03105031901865729
2959.0,0.031143625385307683
2958.0,0.031096969696171817
2957.0,0.030957032694186815
2956.0,0.03081714076773867
2955.0,0.03063068826647264
2954.0,0.030490901403433135
2953.0,0.03030458888152676
2952.0,0.030071810571884017
2951.0,0.029746130405213123
2950.0,0.029234840219232394
2949.0,0.02858497661500481
2948.0,0.027889771597169544
2947.0,0.027288159452933503
2946.0,0.02677975314776626
2945.0,0.026271941311972746
2944.0,0.025764722556973707
2943.0,0.025304128090317013
2942.0,0.024798037742147727
2941.0,0.024338466818941473
2940.0,0.023879381700184332
2939.0,0.02351246269481
2938.0,0.02314585342378117
2937.0,0.02291687968414724
2936.0,0.022733787572707387
2935.0,0.02255077261765881
2934.0,0.022322112326006227
2933.0,0.022093572362881675
2932.0,0.021819483062586187
2931.0,0.02159120737696063
2930.0,0.02140867317992523
2929.0,0.021271822861508305
2928.0,0.021135015652343103
2927.0,0.021089422824428272
2926.0,0.021089422824428272
2925.0,0.021135015652343103
2924.0,0.021135015652343103
2923.0,0.0211806132671577
2922.0,0.021135015652343103
2921.0,0.021089422824428272
2920.0,0.021043834782408455
2919.0,0.0209982515252789
2918.0,0.020952673052035298
2917.0,0.020952673052035298
2916.0,0.020907099361673565
2915.0,0.020861530453190058
2914.0,0.02081596632558158
2913.0,0.020770406977844713
2912.0,0.020770406977844713
2911.0,0.02081596632558158
2910.0,0.02081596632558158
2909.0,0.020861530453190058
2908.0,0.020861530453190058
2907.0,0.020907099361673565
2906.0,0.020907099361673565
2905.0,0.020952673052035298
2904.0,0.0209982515252789
2903.0,0.0209982515252789
2902.0,0.0209982515252789
2901.0,0.0209982515252789
2900.0,0.020952673052035298
2899.0,0.020952673052035298
2898.0,0.020952673052035298
2897.0,0.020907099361673565
2896.0,0.020952673052035298
2895.0,0.021089422824428272
2894.0,0.021271822861508305
2893.0,0.021499930688540836
2892.0,0.02168250325324883
2891.0,0.021819483062586187
2890.0,0.021956506090037076
2889.0,0.02200219004126036
2888.0,0.02200219004126036
2887.0,0.021910826943857264
2886.0,0.021773818325474092
2885.0,0.021636852916117055
2884.0,0.021545566634771474
2883.0,0.0214542995372613
2882.0,0.021317434843055594
2881.0,0.0211806132671577
2880.0,0.0209982515252789
2879.0,0.020907099361673565
2878.0,0.020861530453190058
2877.0,0.02081596632558158
2876.0,0.020770406977844713
2875.0,0.020770406977844713
2874.0,0.02067930261797568
2873.0,0.02058821736556471
2872.0,0.02045162529590483
2871.0,0.02036058777709271
2870.0,0.02026956933771462
2869.0,0.020178569969774962
2868.0,0.020087589665283012
2867.0,0.019996628416253603
2866.0,0.019996628416253603
2865.0,0.02004210665933459
2864.0,0.020087589665283012
2863.0,0.02013307743509718
2862.0,0.02013307743509718
2861.0,0.02013307743509718
2860.0,0.020087589665283012
2859.0,0.02013307743509718
2858.0,0.020178569969774962
2857.0,0.020178569969774962
2856.0,0.02013307743509718
2855.0,0.02004210665933459
2854.0,0.01995115493504329
2853.0,0.019814763052665052
2852.0,0.019769308608968306
2851.0,0.019678413991243593
2850.0,0.01954210772389997
2849.0,0.019360432556262852
2848.0,0.019133445417920836
2847.0,0.01899731005860028
2846.0,0.018951941086827073
2845.0,0.018861217359339655
2844.0,0.018815862601645694
2843.0,0.018725167293411005
2842.0,0.01858915983411169
2841.0,0.01845319495476394
2840.0,0.018271974638383703
2839.0,0.01809082990920774
2838.0,0.017955020928509757
2837.0,0.017909760704207134
2836.0,0.017864505196230507
2835.0,0.017774008325325275
2834.0,0.017638298366853045
2833.0,0.017502630802287644
2832.0,0.017412209298337533
2831.0,0.017457417697056554
2830.0,0.01759307113620534
2829.0,0.01768353030793479
2828.0,0.017728766960431575
2827.0,0.017638298366853045
2826.0,0.017547848615010242
2825.0,0.017457417697056554
2824.0,0.017457417697056554
2823.0,0.017502630802287644
2822.0,0.01759307113620534
2821.0,0.017638298366853045
2820.0,0.017638298366853045
2819.0,0.01759307113620534
2818.0,0.017547848615010242
2817.0,0.017457417697056554
2816.0,0.017412209298337533
2815.0,0.017321806616515723
2814.0,0.01727661233145472
2813.0,0.017231422748988034
2812.0,0.017231422748988034
2811.0,0.01727661233145472
2810.0,0.017321806616515723
2809.0,0.017321806616515723
2808.0,0.017231422748988034
2807.0,0.017141057687924732
2806.0,0.017095882207371904
2805.0,0.017095882207371904
2804.0,0.017141057687924732
2803.0,0.017141057687924732
2802.0,0.017050711425501408
2801.0,0.016915227262211507
2800.0,0.01677978535189717
2799.0,0.01677978535189717
2798.0,0.01677978535189717
2797.0,0.01677978535189717
2796.0,0.016734647433454652
2795.0,0.016734647433454652
2794.0,0.016824927962187042
2793.0,0.016824927962187042
2792.0,0.016824927962187042
2791.0,0.016689514205884493
2790.0,0.016554142658660398
2789.0,0.01646391839700767
2788.0,0.016418813294209356
2787.0,0.01646391839700767
2786.0,0.016599261819461697
2785.0,0.016689514205884493
2784.0,0.016689514205884493
2783.0,0.016554142658660398
2782.0,0.016418813294209356
2781.0,0.01632861713980338
2780.0,0.01628352608625061
2779.0,0.016238439713835096
2778.0,0.016193358021584725
2777.0,0.016193358021584725
2776.0,0.016193358021584725
2775.0,0.016193358021584725
2774.0,0.016193358021584725
2773.0,0.016238439713835096
2772.0,0.01628352608625061
2771.0,0.01632861713980338
2770.0,0.01628352608625061
2769.0,0.016193358021584725
2768.0,0.016148281008528276
2767.0,0.016103208673694303
2766.0,0.016103208673694303
2765.0,0.016103208673694303
2764.0,0.016148281008528276
2763.0,0.016238439713835096
2762.0,0.01632861713980338
2761.0,0.016373712875465518
2760.0,0.01632861713980338
2759.0,0.01628352608625061
2758.0,0.016238439713835096
2757.0,0.016193358021584725
2756.0,0.016103208673694303
2755.0,0.016013078034810446
2754.0,0.015922966097169144
2753.0,0.015832872853011715
2752.0,0.015832872853011715
2751.0,0.015832872853011715
2750.0,0.01578783323856614
2749.0,0.015697768020096703
2748.0,0.015652742414136167
2747.0,0.015697768020096703
2746.0,0.01578783323856614
2745.0,0.015832872853011715
2744.0,0.015832872853011715
2743.0,0.015742798294583915
2742.0,0.015697768020096703
2741.0,0.015607721475734415
2740.0,0.015562705203923999
2739.0,0.015562705203923999
2738.0,0.015652742414136167
2737.0,0.015697768020096703
2736.0,0.015697768020096703
2735.0,0.015697768020096703
2734.0,0.015697768020096703
2733.0,0.015697768020096703
2732.0,0.015697768020096703
2731.0,0.015652742414136167
2730.0,0.015562705203923999
2729.0,0.01547268665620738
2728.0,0.01547268665620738
2727.0,0.015562705203923999
2726.0,0.015652742414136167
2725.0,0.015652742414136167
2724.0,0.015562705203923999
2723.0,0.01538268676325183
2722.0,0.015292705517326866
2721.0,0.015292705517326866
2720.0,0.015337693809893471
2719.0,0.015337693809893471
2718.0,0.015337693809893471
2717.0,0.015292705517326866
2716.0,0.015157768594724175
2715.0,0.015067833932588037
2714.0,0.014977917890464765
2713.0,0.014932966849499074
2712.0,0.014888020460646079
2711.0,0.014888020460646079
2710.0,0.014888020460646079
2709.0,0.014932966849499074
2708.0,0.014932966849499074
2707.0,0.014932966849499074
2706.0,0.014888020460646079
2705.0,0.014843078722943437
2704.0,0.014798141635428141
2703.0,0.014798141635428141
2702.0,0.014798141635428141
2701.0,0.014798141635428141
2700.0,0.014798141635428141
2699.0,0.014843078722943437
2698.0,0.014843078722943437
2697.0,0.014843078722943437
2696.0,0.014798141635428141
2695.0,0.014753209197138295
2694.0,0.014753209197138295
2693.0,0.014798141635428141
2692.0,0.014843078722943437
2691.0,0.014843078722943437
2690.0,0.014798141635428141
2689.0,0.014798141635428141
2688.0,0.014798141635428141
2687.0,0.014753209197138295
2686.0,0.014618439768003144
2685.0,0.0144837121472845
2684.0,0.014393916947563534
2683.0,0.014349026309051105
2682.0,0.014349026309051105
2681.0,0.014393916947563534
2680.0,0.014438812226654996
2679.0,0.014438812226654996
2678.0,0.0144837121472845
2677.0,0.01452861671041239
2676.0,0.014573525916998342
2675.0,0.014663358264387139
2674.0,0.014708281407112
2673.0,0.014663358264387139
2672.0,0.014618439768003144
2671.0,0.0144837121472845
2670.0,0.014438812226654996
2669.0,0.014393916947563534
2668.0,0.014393916947563534
2667.0,0.014393916947563534
2666.0,0.014349026309051105
2665.0,0.014304140310157809
2664.0,0.014259258949925524
2663.0,0.014214382227394795
2662.0,0.014214382227394795
2661.0,0.014169510141607944
2660.0,0.014124642691606404
2659.0,0.014124642691606404
2658.0,0.014079779876432497
2657.0,0.013990068146738865
2656.0,0.013990068146738865
2655.0,0.013990068146738865
2654.0,0.01403492169512921
2653.0,0.014124642691606404
2652.0,0.014124642691606404
2651.0,0.014079779876432497
2650.0,0.013990068146738865
2649.0,0.013990068146738865
2648.0,0.01403492169512921
2647.0,0.01403492169512921
2646.0,0.013945219230304673
2645.0,0.01385553528947936
2644.0,0.01385553528947936
2643.0,0.013900374944870508
2642.0,0.01403492169512921
2641.0,0.014124642691606404
2640.0,0.014169510141607944
2639.0,0.014169510141607944
2638.0,0.014124642691606404
2637.0,0.014124642691606404
2636.0,0.014124642691606404
2635.0,0.014169510141607944
2634.0,0.014169510141607944
2633.0,0.014124642691606404
2632.0,0.014124642691606404
2631.0,0.014169510141607944
2630.0,0.014214382227394795
2629.0,0.014214382227394795
2628.0,0.014214382227394795
2627.0,0.014259258949925524
2626.0,0.014304140310157809
2625.0,0.014349026309051105
2624.0,0.014349026309051105
2623.0,0.014259258949925524
2622.0,0.014124642691606404
2621.0,0.01403492169512921
2620.0,0.01403492169512921
2619.0,0.01403492169512921
2618.0,0.01403492169512921
2617.0,0.013990068146738865
2616.0,0.013900374944870508
2615.0,0.013765869865004277
2614.0,0.013676222949234651
2613.0,0.013676222949234651
2612.0,0.013676222949234651
2611.0,0.013765869865004277
2610.0,0.01381070026317599
2609.0,0.01385553528947936
2608.0,0.013900374944870508
2607.0,0.013945219230304673
2606.0,0.013945219230304673
2605.0,0.013900374944870508
2604.0,0.013900374944870508
2603.0,0.01381070026317599
2602.0,0.01372104409400876
2601.0,0.013586594534531482
2600.0,0.013541787262693505
2599.0,0.013541787262693505
2598.0,0.013586594534531482
2597.0,0.013631406429727155
2596.0,0.013631406429727155
2595.0,0.013586594534531482
2594.0,0.013631406429727155
2593.0,0.013631406429727155
2592.0,0.013676222949234651
2591.0,0.013676222949234651
2590.0,0.013676222949234651
2589.0,0.01372104409400876
2588.0,0.01381070026317599
2587.0,0.013900374944870508
2586.0,0.013945219230304673
2585.0,0.013945219230304673
2584.0,0.013945219230304673
2583.0,0.013945219230304673
2582.0,0.013990068146738865
2581.0,0.013990068146738865
2580.0,0.013945219230304673
2579.0,0.013900374944870508
2578.0,0.01381070026317599
2577.0,0.013765869865004277
2576.0,0.013765869865004277
2575.0,0.01381070026317599
2574.0,0.01385553528947936
2573.0,0.01381070026317599
2572.0,0.01372104409400876
2571.0,0.013676222949234651
2570.0,0.013676222949234651
2569.0,0.013765869865004277
2568.0,0.01385553528947936
2567.0,0.013945219230304673
2566.0,0.013900374944870508
2565.0,0.01385553528947936
2564.0,0.013765869865004277
2563.0,0.01372104409400876
2562.0,0.01372104409400876
2561.0,0.013765869865004277
2560.0,0.01381070026317599
2559.0,0.01381070026317599
2558.0,0.013765869865004277
2557.0,0.013676222949234651
2556.0,0.013586594534531482
2555.0,0.013541787262693505
2554.0,0.013496984613259544
2553.0,0.013541787262693505
2552.0,0.013586594534531482
2551.0,0.013676222949234651
2550.0,0.013765869865004277
2549.0,0.01381070026317599
2548.0,0.01381070026317599
2547.0,0.01381070026317599
2546.0,0.01372104409400876
2545.0,0.013676222949234651
2544.0,0.013631406429727155
2543.0,0.013586594534531482
2542.0,0.013586594534531482
2541.0,0.013586594534531482
2540.0,0.013586594534531482
2539.0,0.013586594534531482
2538.0,0.013541787262693505
2537.0,0.013452186585275916
2536.0,0.013407393177789162
2535.0,0.013407393177789162
2534.0,0.013541787262693505
2533.0,0.013586594534531482
2532.0,0.013631406429727155
2531.0,0.013586594534531482
2530.0,0.013541787262693505
2529.0,0.013496984613259544
2528.0,0.013496984613259544
2527.0,0.013541787262693505
2526.0,0.013541787262693505
2525.0,0.013586594534531482
2524.0,0.013586594534531482
2523.0,0.013541787262693505
2522.0,0.013496984613259544
2521.0,0.013407393177789162
2520.0,0.013317820220494436
2519.0,0.013317820220494436
2518.0,0.013362604389846044
2517.0,0.013362604389846044
2516.0,0.013407393177789162
2515.0,0.013362604389846044
2514.0,0.013362604389846044
2513.0,0.013362604389846044
2512.0,0.013317820220494436
2511.0,0.01322826573375524
2510.0,0.01318349541446362
2509.0,0.01318349541446362
2508.0,0.013138729709955221
2507.0,0.013138729709955221
2506.0,0.013049212141483357
2505.0,0.013049212141483357
2504.0,0.013093968619278806
2503.0,0.01322826573375524
2502.0,0.013317820220494436
2501.0,0.013317820220494436
2500.0,0.013317820220494436
2499.0,0.013317820220494436
2498.0,0.013317820220494436
2497.0,0.01322826573375524
2496.0,0.013093968619278806
2495.0,0.012914970375878188
2494.0,0.012780770091995297
2493.0,0.012780770091995297
2492.0,0.012825498912458322
2491.0,0.012870232340102872
2490.0,0.012870232340102872
2489.0,0.012870232340102872
2488.0,0.012870232340102872
2487.0,0.012870232340102872
2486.0,0.012870232340102872
2485.0,0.012870232340102872
2484.0,0.012825498912458322
2483.0,0.012825498912458322
2482.0,0.012825498912458322
2481.0,0.012825498912458322
2480.0,0.012780770091995297
2479.0,0.012736045877764557
2478.0,0.012691326268817527
2477.0,0.01264661126420652
2476.0,0.01260190086298274
2475.0,0.01260190086298274
2474.0,0.012557195064198723
2473.0,0.012512493866907004
2472.0,0.012467797270160563
2471.0,0.012467797270160563
2470.0,0.012378417874516323
2469.0,0.012333735073725371
2468.0,0.012244383261476699
2467.0,0.012244383261476699
2466.0,0.012289056869694281
2465.0,0.012333735073725371
2464.0,0.012244383261476699
2463.0,0.01215504982870197
2462.0,0.012065734767841452
2461.0,0.012065734767841452
2460.0,0.012110390002254778
2459.0,0.01215504982870197
2458.0,0.01215504982870197
2457.0,0.01215504982870197
2456.0,0.01215504982870197
2455.0,0.012199714248127602
2454.0,0.012199714248127602
2453.0,0.01215504982870197
2452.0,0.012065734767841452
2451.0,0.012065734767841452
2450.0,0.012110390002254778
2449.0,0.012110390002254778
2448.0,0.012110390002254778
2447.0,0.012065734767841452
2446.0,0.012021084124518078
2445.0,0.0119764380713403
2444.0,0.011931796607364653
2443.0,0.011931796607364653
2442.0,0.011931796607364653
2441.0,0.011887159731648111
2440.0,0.011842527443247208
2439.0,0.011797899741219142
2438.0,0.011842527443247208
2437.0,0.011842527443247208
2436.0,0.011887159731648111
2435.0,0.011887159731648111
2434.0,0.011931796607364653
2433.0,0.0119764380713403
2432.0,0.012021084124518078
2431.0,0.012021084124518078
2430.0,0.012021084124518078
2429.0,0.0119764380713403
2428.0,0.0119764380713403
2427.0,0.0119764380713403
2426.0,0.012021084124518078
2425.0,0.012021084124518078
2424.0,0.012021084124518078
2423.0,0.012065734767841452
2422.0,0.012110390002254778
2421.0,0.012110390002254778
2420.0,0.012065734767841452
2419.0,0.012110390002254778
2418.0,0.01215504982870197
2417.0,0.012199714248127602
2416.0,0.012244383261476699
2415.0,0.012199714248127602
2414.0,0.012110390002254778
2413.0,0.012021084124518078
2412.0,0.0119764380713403
2411.0,0.0119764380713403
2410.0,0.012021084124518078
2409.0,0.012110390002254778
2408.0,0.012244383261476699
2407.0,0.012289056869694281
2406.0,0.012333735073725371
2405.0,0.012244383261476699
2404.0,0.01215504982870197
2403.0,0.012110390002254778
2402.0,0.012110390002254778
2401.0,0.01215504982870197
2400.0,0.012289056869694281
2399.0,0.012423105273012602
2398.0,0.012557195064198723
2397.0,0.012691326268817527
2396.0,0.012736045877764557
2395.0,0.012691326268817527
2394.0,0.01260190086298274
2393.0,0.012467797270160563
2392.0,0.012378417874516323
2391.0,0.012289056869694281
2390.0,0.012289056869694281
2389.0,0.012289056869694281
2388.0,0.012333735073725371
2387.0,0.012423105273012602
2386.0,0.012467797270160563
2385.0,0.012467797270160563
2384.0,0.012423105273012602
2383.0,0.012244383261476699
2382.0,0.0119764380713403
2381.0,0.011619434777991433
2380.0,0.011129033935354915
2379.0,0.010639186223752484
2378.0,0.01023881228122181
2377.0,0.01001654169860089
2376.0,0.009972101229705377
2375.0,0.010194349063173958
2374.0,0.010505687227290839
2373.0,0.010817248744452446
2372.0,0.010995384301463185
2371.0,0.011039929609661936
2370.0,0.010906307389674463
2369.0,0.010683695010048622
2368.0,0.010550182333308289
2367.0,0.01077272626946324
2366.0,0.011129033935354915
2365.0,0.011351874764248926
2364.0,0.011218156546359825
2363.0,0.01077272626946324
2362.0,0.010149890396819572
2361.0,0.009572341514736404
2360.0,0.009350411681145587
2359.0,0.009527946474380489
2358.0,0.00966114521239847
2357.0,0.009572341514736404
2356.0,0.009306039320248427
2355.0,0.009172949432521227
2354.0,0.009217308196862062
2353.0,0.009217308196862062
2352.0,0.009172949432521227
2351.0,0.009128595198514056
2350.0,0.00908424549391551
2349.0,0.008951223547323472
2348.0,0.008773924307505121
2347.0,0.008596697419959609
2346.0,0.008640997362049818
2345.0,0.008906891951112605
2344.0,0.009128595198514056
2343.0,0.00908424549391551
2342.0,0.008596697419959609
2341.0,0.007755855953228474
2340.0,0.006916639301937977
2339.0,0.006431517210272464
2338.0,0.00625524344553785
2337.0,0.006299305179649828
2336.0,0.00656376950238835
2335.0,0.007049039429553483
2334.0,0.007490664932224611
2333.0,0.007711646202907652
2332.0,0.007800070204414977
2331.0,0.007976972236149349
2330.0,0.008198201155356077
2329.0,0.008330992620051436
2328.0,0.008375265465994541
2327.0,0.008330992620051436
2326.0,0.008242460465651913
2325.0,0.008153946355103248
2324.0,0.008065450281052211
2323.0,0.007976972236149349
2322.0,0.007888512213050314
2321.0,0.007888512213050314
2320.0,0.008065450281052211
2319.0,0.008419542825660153
2318.0,0.008818242332126802
2317.0,0.009172949432521227
2316.0,0.009350411681145587
2315.0,0.009350411681145587
2314.0,0.009306039320248427
2313.0,0.009261671492462709
2312.0,0.009306039320248427
2311.0,0.00939478857608056
2310.0,0.009527946474380489
2309.0,0.00966114521239847
2308.0,0.009705553871561357
2307.0,0.009705553871561357
2306.0,0.009705553871561357
2305.0,0.00974996707218323
2304.0,0.009883233932095559
2303.0,0.010060986715464404
2302.0,0.010149890396819572
2301.0,0.01023881228122181
2300.0,0.010327752376126709
2299.0,0.010416710688994968
2298.0,0.01046119667949763
2297.0,0.01046119667949763
2296.0,0.010505687227290839
2295.0,0.010594681998483901
2294.0,0.010683695010048622
2293.0,0.01077272626946324
2292.0,0.010906307389674463
2291.0,0.010995384301463185
2290.0,0.011084479487313281
2289.0,0.011129033935354915
2288.0,0.011039929609661936
2287.0,0.010950843561779777
2286.0,0.01086177578421088
2285.0,0.01086177578421088
2284.0,0.010906307389674463
2283.0,0.010950843561779777
2282.0,0.010950843561779777
2281.0,0.010950843561779777
2280.0,0.010906307389674463
2279.0,0.01086177578421088
2278.0,0.01077272626946324
2277.0,0.010683695010048622
2276.0,0.010550182333308289
2275.0,0.010505687227290839
2274.0,0.01046119667949763
2273.0,0.010416710688994968
2272.0,0.010327752376126709
2271.0,0.01023881228122181
2270.0,0.010149890396819572
2269.0,0.010105436281226954
2268.0,0.010105436281226954
2267.0,0.010105436281226954
2266.0,0.010149890396819572
2265.0,0.01023881228122181
2264.0,0.010327752376126709
2263.0,0.01046119667949763
2262.0,0.010505687227290839
2261.0,0.010505687227290839
2260.0,0.010416710688994968
2259.0,0.010327752376126709
2258.0,0.010283280051895272
2257.0,0.010283280051895272
2256.0,0.010283280051895272
2255.0,0.01037222925484893
2254.0,0.01037222925484893
2253.0,0.01037222925484893
2252.0,0.010327752376126709
2251.0,0.010283280051895272
2250.0,0.010283280051895272
2249.0,0.010327752376126709
2248.0,0.010327752376126709
2247.0,0.010283280051895272
2246.0,0.010149890396819572
2245.0,0.009972101229705377
2244.0,0.009838807101520963
2243.0,0.009794384815193347
2242.0,0.009794384815193347
2241.0,0.009794384815193347
2240.0,0.009794384815193347
2239.0,0.00974996707218323
2238.0,0.00974996707218323
2237.0,0.00974996707218323
2236.0,0.00974996707218323
2235.0,0.00974996707218323
2234.0,0.009794384815193347
2233.0,0.009794384815193347
2232.0,0.009794384815193347
2231.0,0.00974996707218323
2230.0,0.00966114521239847
2229.0,0.009527946474380489
2228.0,0.00939478857608056
2227.0,0.009306039320248427
2226.0,0.009306039320248427
2225.0,0.009306039320248427
2224.0,0.009350411681145587
2223.0,0.00939478857608056
2222.0,0.009350411681145587
2221.0,0.009261671492462709
2220.0,0.009217308196862062
2219.0,0.009172949432521227
2218.0,0.009172949432521227
2217.0,0.009172949432521227
2216.0,0.009217308196862062
2215.0,0.009261671492462709
2214.0,0.009306039320248427
2213.0,0.009306039320248427
2212.0,0.009306039320248427
2211.0,0.009306039320248427
2210.0,0.009261671492462709
2209.0,0.009128595198514056
2208.0,0.008951223547323472
2207.0,0.008862564879688284
2206.0,0.008773924307505121
2205.0,0.008773924307505121
2204.0,0.008862564879688284
2203.0,0.008906891951112605
2202.0,0.008995559669244813
2201.0,0.008995559669244813
2200.0,0.009039900317800775
2199.0,0.00908424549391551
2198.0,0.009128595198514056
2197.0,0.009128595198514056
2196.0,0.00908424549391551
2195.0,0.009039900317800775
2194.0,0.008951223547323472
2193.0,0.008862564879688284
2192.0,0.0087296108049002
2191.0,0.008640997362049818
2190.0,0.008596697419959609
2189.0,0.008640997362049818
2188.0,0.008640997362049818
2187.0,0.008685301823389224
2186.0,0.008685301823389224
2185.0,0.008685301823389224
2184.0,0.008685301823389224
2183.0,0.008685301823389224
2182.0,0.008685301823389224
2181.0,0.008685301823389224
2180.0,0.008685301823389224
2179.0,0.008685301823389224
2178.0,0.008640997362049818
2177.0,0.008596697419959609
2176.0,0.008596697419959609
2175.0,0.008596697419959609
2174.0,0.008596697419959609
2173.0,0.008596697419959609
2172.0,0.008640997362049818
2171.0,0.008685301823389224
2170.0,0.0087296108049002
2169.0,0.0087296108049002
2168.0,0.0087296108049002
2167.0,0.0087296108049002
2166.0,0.008773924307505121
2165.0,0.008773924307505121
2164.0,0.008773924307505121
2163.0,0.008773924307505121
2162.0,0.008773924307505121
2161.0,0.008818242332126802
2160.0,0.008862564879688284
2159.0,0.008862564879688284
2158.0,0.008862564879688284
2157.0,0.008818242332126802
2156.0,0.008773924307505121
2155.0,0.0087296108049002
2154.0,0.008685301823389224
2153.0,0.0087296108049002
2152.0,0.0087296108049002
2151.0,0.0087296108049002
2150.0,0.0087296108049002
2149.0,0.0087296108049002
2148.0,0.008773924307505121
2147.0,0.008818242332126802
2146.0,0.008862564879688284
2145.0,0.008818242332126802
2144.0,0.0087296108049002
2143.0,0.008685301823389224
2142.0,0.008685301823389224
2141.0,0.008685301823389224
2140.0,0.008685301823389224
2139.0,0.008685301823389224
2138.0,0.008685301823389224
2137.0,0.0087296108049002
2136.0,0.008818242332126802
2135.0,0.008951223547323472
2134.0,0.008995559669244813
2133.0,0.008906891951112605
2132.0,0.008773924307505121
2131.0,0.008685301823389224
2130.0,0.008640997362049818
2129.0,0.008640997362049818
2128.0,0.008640997362049818
2127.0,0.008685301823389224
2126.0,0.0087296108049002
2125.0,0.0087296108049002
2124.0,0.008773924307505121
2123.0,0.008773924307505121
2122.0,0.0087296108049002
2121.0,0.0087296108049002
2120.0,0.0087296108049002
2119.0,0.008773924307505121
2118.0,0.008773924307505121
2117.0,0.008685301823389224
2116.0,0.008640997362049818
2115.0,0.008552401996197112
2114.0,0.00850811108984062
2113.0,0.008463824699968647
2112.0,0.008419542825660153
2111.0,0.008419542825660153
2110.0,0.008419542825660153
2109.0,0.008463824699968647
2108.0,0.008552401996197112
2107.0,0.008640997362049818
2106.0,0.008773924307505121
2105.0,0.008818242332126802
2104.0,0.008773924307505121
2103.0,0.008685301823389224
2102.0,0.00850811108984062
2101.0,0.008286724286910463
2100.0,0.008153946355103248
2099.0,0.008109696063975047
2098.0,0.008198201155356077
2097.0,0.008286724286910463
2096.0,0.008286724286910463
2095.0,0.008198201155356077
2094.0,0.008109696063975047
2093.0,0.008065450281052211
2092.0,0.008021209005416363
2091.0,0.008021209005416363
2090.0,0.008065450281052211
2089.0,0.008065450281052211
2088.0,0.008021209005416363
2087.0,0.007976972236149349
2086.0,0.007888512213050314
2085.0,0.007800070204414977
2084.0,0.007800070204414977
2083.0,0.007755855953228474
2082.0,0.007755855953228474
2081.0,0.007711646202907652
2080.0,0.007667440952535687
2079.0,0.00762324020119709
2078.0,0.0075790439479759275
2077.0,0.007490664932224611
2076.0,0.007358130121602358
2075.0,0.007269796045857202
2074.0,0.007181479933320523
2073.0,0.007137328610972382
2072.0,0.007093181776687496
2071.0,0.007049039429553483
2070.0,0.007004901568658406
2069.0,0.00696076819309055
2068.0,0.00696076819309055
2067.0,0.006916639301937977
2066.0,0.006872514894289861
2065.0,0.006872514894289861
2064.0,0.006916639301937977
2063.0,0.00696076819309055
2062.0,0.007004901568658406
2061.0,0.00696076819309055
2060.0,0.006828394969235152
2059.0,0.006696062080525422
2058.0,0.00656376950238835
2057.0,0.006519680930003435
2056.0,0.00656376950238835
2055.0,0.006607862550997545
2054.0,0.006651960076740071
2053.0,0.006651960076740071
2052.0,0.006651960076740071
2051.0,0.00656376950238835
2050.0,0.006431517210272464
2049.0,0.00621118618129457
2048.0,0.006035001804881146
2047.0,0.005946936412324799
2046.0,0.00590291041179003
2045.0,0.005814871797682919
2044.0,0.00577085918230158
2043.0,0.005726851026829571
2042.0,0.005726851026829571
2041.0,0.00577085918230158
2040.0,0.005726851026829571
2039.0,0.005638848091999105
2038.0,0.005506877116487674
2037.0,0.005462895701502157
2036.0,0.005462895701502157
2035.0,0.005506877116487674
2034.0,0.005506877116487674
2033.0,0.005506877116487674
2032.0,0.005550862985963967
2031.0,0.005594853310833647
2030.0,0.005682847330363394
2029.0,0.005726851026829571
2028.0,0.005682847330363394
2027.0,0.005550862985963967
2026.0,0.00541891874010525
2025.0,0.0052870145684298375
2024.0,0.005199100705396198
2023.0,0.005199100705396198
2022.0,0.005199100705396198
2021.0,0.005243055412371911
2020.0,0.005330978174470591
2019.0,0.00541891874010525
2018.0,0.005462895701502157
2017.0,0.005506877116487674
2016.0,0.005462895701502157
2015.0,0.00537494623139545
2014.0,0.00537494623139545
2013.0,0.00537494623139545
2012.0,0.00537494623139545
2011.0,0.00541891874010525
2010.0,0.00541891874010525
2009.0,0.00537494623139545
2008.0,0.005330978174470591
2007.0,0.0052870145684298375
2006.0,0.0052870145684298375
2005.0,0.005330978174470591
2004.0,0.00537494623139545
2003.0,0.00541891874010525
2002.0,0.005506877116487674
2001.0,0.005550862985963967
2000.0,0.005594853310833647
1999.0,0.005594853310833647
1998.0,0.005638848091999105
1997.0,0.005638848091999105
1996.0,0.005682847330363394
1995.0,0.005726851026829571
1994.0,0.00577085918230158
1993.0,0.005814871797682919
1992.0,0.005858888873877532
1991.0,0.00590291041179003
1990.0,0.005946936412324799
1989.0,0.005990966876386672
1988.0,0.006079041198713275
1987.0,0.00612308505878878
1986.0,0.00612308505878878
1985.0,0.006079041198713275
1984.0,0.005990966876386672
1983.0,0.005946936412324799
1982.0,0.005946936412324799
1981.0,0.005946936412324799
1980.0,0.005990966876386672
1979.0,0.006035001804881146
1978.0,0.006079041198713275
1977.0,0.006079041198713275
1976.0,0.006079041198713275
1975.0,0.00612308505878878
1974.0,0.006167133386013823
1973.0,0.00621118618129457
1972.0,0.00625524344553785
1971.0,0.006343371384537999
1970.0,0.006387442061109638
1969.0,0.006475596832934416
1968.0,0.00656376950238835
1967.0,0.006651960076740071
1966.0,0.006696062080525422
1965.0,0.006740168563263094
1964.0,0.006784279525863024
1963.0,0.006828394969235152
1962.0,0.006916639301937977
1961.0,0.007004901568658406
1960.0,0.007093181776687496
1959.0,0.007181479933320523
1958.0,0.007313960837872058
1957.0,0.0074464821678643656
1956.0,0.007534852191956709
1955.0,0.00762324020119709
1954.0,0.007667440952535687
1953.0,0.007667440952535687
1952.0,0.007667440952535687
1951.0,0.00762324020119709
1950.0,0.0075790439479759275
1949.0,0.0074464821678643656
1948.0,0.007358130121602358
1947.0,0.007313960837872058
1946.0,0.007269796045857202
1945.0,0.007181479933320523
1944.0,0.007137328610972382
1943.0,0.007093181776687496
1942.0,0.007049039429553483
1941.0,0.006916639301937977
1940.0,0.006784279525863024
1939.0,0.006651960076740071
1938.0,0.006431517210272464
1937.0,0.006167133386013823
1936.0,0.005946936412324799
1935.0,0.005726851026829571
1934.0,0.005594853310833647
1933.0,0.005506877116487674
1932.0,0.00537494623139545
1931.0,0.005243055412371911
1930.0,0.005067263269958211
1929.0,0.00484762310854614
1928.0,0.004628093971837721
1927.0,0.004452550524862486
1926.0,0.004320939488377862
1925.0,0.004277078004534696
1924.0,0.004320939488377862
1923.0,0.0043648054024501
1922.0,0.0043648054024501
1921.0,0.004277078004534696
1920.0,0.004233220950025984
1919.0,0.004189368323957332
1918.0,0.00401400208620073
1917.0,0.0037510854308679953
1916.0,0.0034007772998332353
1915.0,0.0031819781204844855
1914.0,0.0030070181092942683
1913.0,0.0029195645282691363
1912.0,0.0028758443407954637
1911.0,0.0029195645282691363
1910.0,0.0029195645282691363
1909.0,0.0027884171674950053
1908.0,0.002613615602686581
1907.0,0.002482560585275184
1906.0,0.002351545103793873
1905.0,0.0023078820582733695
1904.0,0.0021769192542746563
1903.0,0.0020459959305969555
1902.0,0.0018714928717336043
1901.0,0.0016970599014589638
1900.0,0.001609869681952425
1899.0,0.0015226969634936083
1898.0,0.0014791171649619628
1897.0,0.0013919706849057079
1896.0,0.0012612837441823288
1895.0,0.0010870956412141197
1894.0,0.0009565003968372565
1893.0,0.000869458712629001
1892.0,0.0007824344698965646
1891.0,0.0007389288868995258
1890.0,0.0006519307932786322
1889.0,0.000521466320689834
1888.0,0.0003910410285830057
1887.0,0.00026065489343207737
1886.0,0.00021720154586435392
1885.0,0.00017375254558760211
1884.0,0.0001303078917322953
1883.0,8.686758342868472e-05
1882.0,8.686758342868472e-05
1881.0,0.0
1880.0,-4.3427276862573194e-05
1879.0,-0.00013026880522692963
1878.0,-0.0002604985473904087
1877.0,-0.00043407747931878404
1876.0,-0.0005642161653756084
1875.0,-0.0006509536295951079
1874.0,-0.0006509536295951079
1873.0,-0.0006075870628903246
1872.0,-0.0005642161653756084
1871.0,-0.0005208409361854294
1870.0,-0.0005208409361854294
1869.0,-0.0005642161653756084
1868.0,-0.0006509536295951079
1867.0,-0.0007376737740329986
1866.0,-0.0008243766056055257
1865.0,-0.0009110621312231615
1864.0,-0.0009543984064577238
1863.0,-0.0009977303577937136
1862.0,-0.001041057986093552
1861.0,-0.0011277002770349043
1860.0,-0.0011710149414008164
1859.0,-0.00121432528617893
1858.0,-0.001257631312230778
1857.0,-0.0013009330204178937
1856.0,-0.001344230411601366
1855.0,-0.001344230411601366
1854.0,-0.0013009330204178937
1853.0,-0.001257631312230778
1852.0,-0.00121432528617893
1851.0,-0.0011277002770349043
1850.0,-0.0010843812922201046
1849.0,-0.001041057986093552
1848.0,-0.0009543984064577238
1847.0,-0.0008243766056055257
1846.0,-0.0006509536295951079
1845.0,-0.0006075870628903246
1844.0,-0.0006509536295951079
1843.0,-0.0007376737740329986
1842.0,-0.0007810273534953893
1841.0,-0.0007376737740329986
1840.0,-0.0007376737740329986
1839.0,-0.0006943158663546001
1838.0,-0.0006943158663546001
1837.0,-0.0006943158663546001
1836.0,-0.0006943158663546001
1835.0,-0.0006509536295951079
1834.0,-0.0006509536295951079
1833.0,-0.0006075870628903246
1832.0,-0.0005642161653756084
1831.0,-0.00043407747931878404
1830.0,-0.00043407747931878404
1829.0,-0.0005208409361854294
1828.0,-0.0006075870628903246
1827.0,-0.0004774613744551459
1826.0,-0.00030389978481260016
1825.0,-0.0002604985473904087
1824.0,-0.0003472966853634851
1823.0,-0.00043407747931878404
1822.0,-0.0005208409361854294
1821.0,-0.0006075870628903246
1820.0,-0.0006509536295951079
1819.0,-0.0006509536295951079
1818.0,-0.0006509536295951079
1817.0,-0.0006943158663546001
1816.0,-0.0008243766056055257
1815.0,-0.0009110621312231615
1814.0,-0.001041057986093552
1813.0,-0.0011710149414008164
1812.0,-0.0013009330204178937
1811.0,-0.0014308122463981832
1810.0,-0.0016039241497978196
1809.0,-0.001776967077439462
1808.0,-0.0018634626925240205
1807.0,-0.0018634626925240205
1806.0,-0.0019067040408846658
1805.0,-0.0019499410842680476
1804.0,-0.0019931738235303698
1803.0,-0.0019931738235303698
1802.0,-0.0019931738235303698
1801.0,-0.0021228462251614566
1800.0,-0.0022956825549340643
1799.0,-0.0023820749327607693
1798.0,-0.0024252646779014952
1797.0,-0.0024252646779014952
1796.0,-0.0024252646779014952
1795.0,-0.0023820749327607693
1794.0,-0.0024252646779014952
1793.0,-0.002597980719908577
1792.0,-0.0027706281011936618
1791.0,-0.0028137792246734072
1790.0,-0.0027706281011936618
1789.0,-0.002684312989729598
1788.0,-0.002597980719908577
1787.0,-0.0025548081484823015
1786.0,-0.0025548081484823015
1785.0,-0.002597980719908577
1784.0,-0.0027706281011936618
1783.0,-0.002900068611387585
1782.0,-0.0029432068763250996
1781.0,-0.0029863408567849525
1780.0,-0.0029863408567849525
1779.0,-0.0028137792246734072
1778.0,-0.0027274726898296464
1777.0,-0.002684312989729598
1776.0,-0.002684312989729598
1775.0,-0.002597980719908577
1774.0,-0.0024252646779014952
1773.0,-0.002338880892056583
1772.0,-0.002338880892056583
1771.0,-0.0022524799205383417
1770.0,-0.0019499410842680476
1769.0,-0.0015606526425728795
1768.0,-0.0011277002770349043
1767.0,-0.0007376737740329986
1766.0,-0.0004774613744551459
1765.0,-0.0003472966853634851
1764.0,-0.00013026880522692963
1763.0,0.00030411258916074324
1762.0,0.000869458712629001
1761.0,0.001348404001626502
1760.0,0.001915112063444413
1759.0,0.002701007590486082
1758.0,0.0037510854308679953
1757.0,0.004759798137184523
1756.0,0.005726851026829571
1755.0,0.006828394969235152
1754.0,0.008065450281052211
1753.0,0.009572341514736404
1752.0,0.011664044143949504
1751.0,0.01452861671041239
1750.0,0.017728766960431575
1749.0,0.021043834782408455
1748.0,0.024706084643793647
1747.0,0.02890978686288448
1746.0,0.03362357691107709
1745.0,0.039006291057664066
1744.0,0.04537162249272897
1743.0,0.052419250695677544
1742.0,0.05978244440026481
1741.0,0.0681862960408608
1740.0,0.07857365898473456
1739.0,0.0892155652071629
1738.0,0.09739886933346864
1737.0,0.10330847343711591
1736.0,0.11036219959333216
1735.0,0.1236666709136196
1734.0,0.1427881576831076
1733.0,0.15826522102525642
1732.0,0.16806626953325465
1731.0,0.17724366704860928
1730.0,0.188023055663046
1729.0,0.19948912310563194
1728.0,0.2101373699536182
1727.0,0.2199708726626617
1726.0,0.2299584456803314
1725.0,0.24101245313238073
1724.0,0.25313237214957063
1723.0,0.2648004515776867
1722.0,0.2735173032151703
1721.0,0.278684119394101
1720.0,0.2825791632776251
1719.0,0.2905604258675891
1718.0,0.30548254618884374
1717.0,0.3203904282202441
1716.0,0.32762502125392046
1715.0,0.32929040477620286
1714.0,0.32808698755841315
1713.0,0.32339783041798165
1712.0,0.31551370781126575
1711.0,0.3060093895392233
1710.0,0.29584948316020077
1709.0,0.2843308575990098
1708.0,0.2712405248321257
1707.0,0.2571963415308345
1706.0,0.24313577593945102
1705.0,0.2299584456803314
1704.0,0.21767073100316314
1703.0,0.20600019901552957
1702.0,0.1941594511853273
1701.0,0.18210424283820448
1700.0,0.17121125181504682
1699.0,0.1627904721987936
1698.0,0.1559579579589836
1697.0,0.1493537648169334
1696.0,0.1427278264359586
1695.0,0.13643923547375736
1694.0,0.1308856730206247
1693.0,0.12592425477696523
1692.0,0.12124847982699793
1691.0,0.11679296664760996
1690.0,0.1130019543289007
1689.0,0.10980261378997125
1688.0,0.10673771411200872
1687.0,0.10341867249426717
1686.0,0.10023419805561384
1685.0,0.09843270997155007
1684.0,0.09805153492691598
1683.0,0.09669292003582619
1682.0,0.09436599867304518
1681.0,0.0917831469106074
1680.0,0.08916223500731646
1679.0,0.08645104209348209
1678.0,0.08375666953466032
1677.0,0.0812359689720008
1676.0,0.079094395835976
1675.0,0.07717078033335123
1674.0,0.07520400420208784
1673.0,0.07309189829456408
1672.0,0.0710411591191702
1671.0,0.06915280831750303
1670.0,0.06767846801070698
1669.0,0.06625970050306473
1668.0,0.06459351024765114
1667.0,0.06278310913729457
1666.0,0.06093025007657582
1665.0,0.059135024033278416
1664.0,0.05749589383191922
1663.0,0.056159373598738904
1662.0,0.054876229877880656
1661.0,0.05354773498692689
1660.0,0.05212534510230182
1659.0,0.05065879322950262
1658.0,0.049148541111453614
1657.0,0.047643522676209304
1656.0,0.04624030826677128
1655.0,0.04508244626504121
1654.0,0.04508244626504121
1653.0,0.045612749855485024
1652.0,0.04464904263234004
1651.0,0.0433514207947967
1650.0,0.042344833056508824
1649.0,0.04138834223512067
1648.0,0.04076775094900409
1647.0,0.04062466342415694
1646.0,0.04043395336207234
1645.0,0.03981472339538916
1644.0,0.03905380426616856
1643.0,0.03829421599749461
1642.0,0.03753595394209874
1641.0,0.036873558918095295
1640.0,0.03616496929785207
1639.0,0.035363296211498474
1638.0,0.03465716443937783
1637.0,0.03437503289075727
1636.0,0.03442204208947208
1635.0,0.03423403581731388
1634.0,0.03371743783253667
1633.0,0.033295223342125535
1632.0,0.03277974021703267
1631.0,0.03217132066984485
1630.0,0.03161045815293173
1629.0,0.031190286087141805
1628.0,0.030863766403287585
1627.0,0.030490901403433135
1626.0,0.030071810571884017
1625.0,0.029746130405213123
1624.0,0.029560137048236124
1623.0,0.029513651152349718
1622.0,0.029467170231675777
1621.0,0.029374223311705583
1620.0,0.029374223311705583
1619.0,0.029513651152349718
1618.0,0.03025802323714588
1617.0,0.03179733185715028
1616.0,0.03310770413286357
1615.0,0.03367050483612166
1614.0,0.03367050483612166
1613.0,0.03334211579824231
1612.0,0.03277974021703267
1611.0,0.032031037121307726
1610.0,0.031190286087141805
1609.0,0.03030458888152676
1608.0,0.029374223311705583
1607.0,0.028445846553939003
1606.0,0.02747318213414429
1605.0,0.026595025589939425
1604.0,0.025810808881832736
1603.0,0.025028005701930978
1602.0,0.024200690320592466
1601.0,0.02342078135989012
1600.0,0.022688026603074007
1599.0,0.02204787879853809
1598.0,0.021499930688540836
1597.0,0.021089422824428272
1596.0,0.020724852408976924
1595.0,0.02045162529590483
1594.0,0.02026956933771462
1593.0,0.020178569969774962
1592.0,0.02013307743509718
1591.0,0.020178569969774962
1590.0,0.02022406727031445
1589.0,0.02036058777709271
1588.0,0.020633757603838898
1587.0,0.0211806132671577
1586.0,0.022230681908425698
1585.0,0.023833499868024743
1584.0,0.025995203102585407
1583.0,0.02863136320857662
1582.0,0.03147035562516054
1581.0,0.034046110897937076
1580.0,0.03602339000339416
1579.0,0.037251946641359446
1578.0,0.03753595394209874
1577.0,0.036779013477011624
1576.0,0.03503362516890207
1575.0,0.03282657704446046
1574.0,0.030910397045078586
1573.0,0.029188389127482228
1572.0,0.02747318213414429
1571.0,0.025718641122169483
1570.0,0.024108863598207186
1569.0,0.02282532397981263
1568.0,0.021865152601710403
1567.0,0.021135015652343103
1566.0,0.02045162529590483
1565.0,0.019678413991243593
1564.0,0.018906576854070378
1563.0,0.01831727262871463
1562.0,0.017864505196230507
1561.0,0.017367005605150476
1560.0,0.017141057687924732
1559.0,0.017231422748988034
1558.0,0.016689514205884493
1557.0,0.016193358021584725
1556.0,0.016193358021584725
1555.0,0.016148281008528276
1554.0,0.015832872853011715
1553.0,0.015337693809893471
1552.0,0.014977917890464765
1551.0,0.014753209197138295
1550.0,0.014618439768003144
1549.0,0.014349026309051105
1548.0,0.013990068146738865
1547.0,0.013586594534531482
1546.0,0.013317820220494436
1545.0,0.013093968619278806
1544.0,0.012825498912458322
1543.0,0.012557195064198723
1542.0,0.012333735073725371
1541.0,0.012333735073725371
1540.0,0.012244383261476699
1539.0,0.011887159731648111
1538.0,0.011619434777991433
1537.0,0.011619434777991433
1536.0,0.011619434777991433
1535.0,0.011619434777991433
1534.0,0.011887159731648111
1533.0,0.012244383261476699
1532.0,0.012423105273012602
1531.0,0.012512493866907004
1530.0,0.012557195064198723
1529.0,0.012557195064198723
1528.0,0.01264661126420652
1527.0,0.012736045877764557
1526.0,0.012780770091995297
1525.0,0.01264661126420652
1524.0,0.012289056869694281
1523.0,0.0119764380713403
1522.0,0.011797899741219142
1521.0,0.011664044143949504
1520.0,0.011396456654336085
1519.0,0.011218156546359825
1518.0,0.01117359295472431
1517.0,0.011218156546359825
1516.0,0.011262724711199823
1515.0,0.011351874764248926
1514.0,0.011664044143949504
1513.0,0.012333735073725371
1512.0,0.013362604389846044
1511.0,0.014708281407112
1510.0,0.016418813294209356
1509.0,0.019042683770379876
1508.0,0.024246610963712723
1507.0,0.03249882527715853
1506.0,0.038199360808321536
1505.0,0.038816290187564384
1504.0,0.03682628362474838
1503.0,0.03352973627071565
1502.0,0.02942069428514915
1501.0,0.025028005701930978
1500.0,0.02081596632558158
1499.0,0.017141057687924732
1498.0,0.014169510141607944
1497.0,0.011887159731648111
1496.0,0.010149890396819572
1495.0,0.008862564879688284
1494.0,0.007932739972333236
1493.0,0.007402303897961815
1492.0,0.007137328610972382
1491.0,0.00696076819309055
1490.0,0.006872514894289861
1489.0,0.006828394969235152
1488.0,0.006740168563263094
1487.0,0.006607862550997545
1486.0,0.006519680930003435
1485.0,0.00656376950238835
1484.0,0.006740168563263094
1483.0,0.007004901568658406
1482.0,0.007313960837872058
1481.0,0.007711646202907652
1480.0,0.008153946355103248
1479.0,0.00850811108984062
1478.0,0.008818242332126802
1477.0,0.009306039320248427
1476.0,0.009838807101520963
1475.0,0.010283280051895272
1474.0,0.01086177578421088
1473.0,0.011619434777991433
1472.0,0.012378417874516323
1471.0,0.012825498912458322
1470.0,0.013273040668781544
1469.0,0.013900374944870508
1468.0,0.014708281407112
1467.0,0.015742798294583915
1466.0,0.017412209298337533
1465.0,0.019860222254245663
1464.0,0.022505030926963654
1463.0,0.024706084643793647
1462.0,0.026502691267936695
1461.0,0.028214062120885508
1460.0,0.029978734171634214
1459.0,0.032218091924200776
1458.0,0.03578752703018084
1457.0,0.040005161671583744
1456.0,0.042344833056508824
1455.0,0.04287180232318688
1454.0,0.04287180232318688
1453.0,0.04282386959515394
1452.0,0.04263219156847242
1451.0,0.04229695845116854
1450.0,0.04186632432376469
1449.0,0.041627267521392675
1448.0,0.041436116778032606
1447.0,0.04124505013091051
1446.0,0.04105406750606355
1445.0,0.04081545726880842
1444.0,0.04057697805689475
1443.0,0.040243327009005014
1442.0,0.039909932095080425
1441.0,0.03943409718180235
1440.0,0.03876880295533702
1439.0,0.03786753070176463
1438.0,0.03663723389626394
1437.0,0.03498654972775217
1436.0,0.03277974021703267
1435.0,0.03030458888152676
1434.0,0.027797161620935595
1433.0,0.025258095499050004
1432.0,0.02255077261765881
1431.0,0.01990568621470623
1430.0,0.017412209298337533
1429.0,0.015337693809893471
1428.0,0.01372104409400876
1427.0,0.01260190086298274
1426.0,0.011842527443247208
1425.0,0.011351874764248926
1424.0,0.01117359295472431
1423.0,0.011351874764248926
1422.0,0.011842527443247208
1421.0,0.012959713020733288
1420.0,0.01538268676325183
1419.0,0.019451260640229506
1418.0,0.024430342106337877
1417.0,0.029978734171634214
1416.0,0.03663723389626394
1415.0,0.04488976902944808
1414.0,0.0549747987575373
1413.0,0.06696850489759454
1412.0,0.07998108397108505
1411.0,0.0917831469106074
1410.0,0.10023419805561384
1409.0,0.10435649517592083
1408.0,0.10413564875270076
1407.0,0.09996076451267522
1406.0,0.09307265269104414
1405.0,0.08512818245994969
1404.0,0.07748213975538865
1403.0,0.07093887591523451
1402.0,0.0654005617819271
1401.0,0.06063052992534024
1400.0,0.05635711724787096
1399.0,0.052468254304406825
1398.0,0.04919717703534143
1397.0,0.04643358574299339
1396.0,0.0437835307566099
1395.0,0.041149548320321694
1394.0,0.03862637240519895
1393.0,0.03644826642590382
1392.0,0.034516075754861264
1391.0,0.03277974021703267
1390.0,0.031236951802751545
1389.0,0.029885677714903025
1388.0,0.028863370523193765
1387.0,0.028075050815808744
1386.0,0.027565723042634938
1385.0,0.027288159452933503
1384.0,0.02724191609646076
1383.0,0.027612000892527133
1382.0,0.028353117935693284
1381.0,0.029560137048236124
1380.0,0.031190286087141805
1379.0,0.03310770413286357
1378.0,0.03512779136222477
1377.0,0.03720463014276687
1376.0,0.03952922246570112
1375.0,0.042201225070002124
1374.0,0.044937930324967956
1373.0,0.047062332249019345
1372.0,0.048225491918274965
1371.0,0.0486139051197072
1370.0,0.04827402457540786
1369.0,0.04711073508906982
1368.0,0.044937930324967956
1367.0,0.041914151478914974
1366.0,0.03824678581321739
1365.0,0.03428102975577918
1364.0,0.029978734171634214
1363.0,0.025672564576383117
1362.0,0.021819483062586187
1361.0,0.018815862601645694
1360.0,0.016509028184833463
1359.0,0.014708281407112
1358.0,0.013273040668781544
1357.0,0.012244383261476699
1356.0,0.011574829993696856
1355.0,0.011262724711199823
1354.0,0.011218156546359825
1353.0,0.011485634166333858
1352.0,0.012065734767841452
1351.0,0.012825498912458322
1350.0,0.013945219230304673
1349.0,0.015337693809893471
1348.0,0.017050711425501408
1347.0,0.01899731005860028
1346.0,0.0211806132671577
1345.0,0.02351246269481
1344.0,0.025856900097785074
1343.0,0.028028723600243666
1342.0,0.029885677714903025
1341.0,0.03133029827960798
1340.0,0.032124554451966825
1339.0,0.03175060589208267
1338.0,0.030211462585061133
1337.0,0.027750864037404455
1336.0,0.02484402159331056
1335.0,0.021865152601710403
1334.0,0.019269623464054586
1333.0,0.017186237868137555
1332.0,0.015697768020096703
1331.0,0.014843078722943437
1330.0,0.014573525916998342
1329.0,0.014798141635428141
1328.0,0.01547268665620738
1327.0,0.016418813294209356
1326.0,0.017638298366853045
1325.0,0.0190880622231564
1324.0,0.020724852408976924
1323.0,0.022505030926963654
1322.0,0.024338466818941473
1321.0,0.026225806029419818
1320.0,0.028214062120885508
1319.0,0.030211462585061133
1318.0,0.03207779326948268
1317.0,0.033905220553829274
1316.0,0.035646070707806565
1315.0,0.037583306554248797
1314.0,0.039719535563357944
1313.0,0.042057664554595586
1312.0,0.044456557540257124
1311.0,0.0469171560879138
1310.0,0.04944043838819989
1309.0,0.05212534510230182
1308.0,0.054876229877880656
1307.0,0.05764465029232335
1306.0,0.06033101647767336
1305.0,0.06303410289212974
1304.0,0.0658551882075229
1303.0,0.0690000580438479
1302.0,0.07262963696097646
1301.0,0.07696333132921396
1300.0,0.08202211740709164
1299.0,0.08761850108119962
1298.0,0.09361107884716913
1297.0,0.09990609845660159
1296.0,0.10646015643533868
1295.0,0.11305829401658474
1294.0,0.11952940719622163
1293.0,0.12592425477696523
1292.0,0.132179091954427
1291.0,0.1381073096085541
1290.0,0.14381507327283027
1289.0,0.14941502364796855
1288.0,0.15477789357098626
1287.0,0.15976840504189105
1286.0,0.16411926818260536
1285.0,0.16800232276410365
1284.0,0.17159792150840691
1283.0,0.17470373556903995
1282.0,0.17737432122585917
1281.0,0.17973284283903546
1280.0,0.1818401136028147
1279.0,0.18369240056806024
1278.0,0.18521985425419518
1277.0,0.18695303483989223
1276.0,0.18896149139578422
1275.0,0.19145144875959463
1274.0,0.1946350925335547
1273.0,0.19893947015214453
1272.0,0.20446755728984556
1271.0,0.21105427297625234
1270.0,0.21853185715820178
1269.0,0.2267988576436557
1268.0,0.23567439437401605
1267.0,0.24488773360492888
1266.0,0.25406684154055714
1265.0,0.26312563835157743
1264.0,0.27188981589965944
1263.0,0.2798406965940432
1262.0,0.28676153845433827
1261.0,0.29268536641129206
1260.0,0.2974833025618495
1259.0,0.30094314545233236
1258.0,0.30303235925597694
1257.0,0.30451832350980257
1256.0,0.30583370406680177
1255.0,0.3073293008436311
1254.0,0.30891850787703157
1253.0,0.3111354319452082
1252.0,0.3140792078054646
1251.0,0.31758413832264143
1250.0,0.3214816209598861
1249.0,0.32596599956874517
1248.0,0.3308691526266674
1247.0,0.3358282946380693
1246.0,0.3406543642538229
1245.0,0.3455346664798542
1244.0,0.35017853677543487
1243.0,0.35418488170335816
1242.0,0.3572387967346795
1241.0,0.35931984672233486
1240.0,0.3604139133265736
1239.0,0.3601152580836957
1238.0,0.35822852934604077
1237.0,0.3550692920864127
1236.0,0.3506651412878581
1235.0,0.34457341225408133
1234.0,0.3370533856673754
1233.0,0.32845691473742633
1232.0,0.31903028153410284
1231.0,0.30891850787703157
1230.0,0.2983456826742519
1229.0,0.2876028685932852
1228.0,0.27687284120430844
1227.0,0.26616099930285064
1226.0,0.25539412458576116
1225.0,0.2448114143916751
1224.0,0.23448045690204733
1223.0,0.22446236521904295
1222.0,0.21467016498923286
1221.0,0.20530287310800133
1220.0,0.19640633522865558
1219.0,0.1878891587969005
1218.0,0.17979854051435984
1217.0,0.1721785723171978
1216.0,0.16507090353942422
1215.0,0.1583902878315646
1214.0,0.15205736115477642
1213.0,0.14618015414323682
1212.0,0.1407415825326932
1211.0,0.13560759484941132
1210.0,0.1308269726783169
1209.0,0.1263307072932056
1208.0,0.12205304837081177
1207.0,0.11798803837334138
1206.0,0.11396072443355765
1205.0,0.11013827874181148
1204.0,0.10651565378151395
1203.0,0.10308815917397474
1202.0,0.09974214156222239
1201.0,0.09658441423091357
1200.0,0.0935033402006471
1199.0,0.0905509530187334
1198.0,0.08761850108119962
1197.0,0.08481129482684358
1196.0,0.08202211740709164
1195.0,0.07935499859321249
1194.0,0.07685964397479927
1193.0,0.07448164182257
1192.0,0.07221915065262552
1191.0,0.07007043991541217
1190.0,0.0680846829187538
1189.0,0.06641148980334699
1188.0,0.06504729218214189
1187.0,0.06408986356949264
1186.0,0.06343599486473406
1185.0,0.06318476880236723
1184.0,0.06338573802478864
1183.0,0.06403953101083348
1182.0,0.06509774167768612
1181.0,0.06656333217371957
1180.0,0.06833876031551878
1179.0,0.07017251876930874
1178.0,0.07186029312488018
1177.0,0.0732460948102629
1176.0,0.07427547306393745
1175.0,0.07468790850035045
1174.0,0.07443009045662374
1173.0,0.07340034609297241
1172.0,0.0716553647351379
1171.0,0.06915280831750303
1170.0,0.06605739725873905
1169.0,0.06258241852286206
1168.0,0.058936011780097886
1167.0,0.05546797900801881
1166.0,0.05232126006306337
1165.0,0.04973253198641148
1164.0,0.047691990337874746
1163.0,0.046143701775014145
1162.0,0.04488976902944808
1161.0,0.04402377775167454
1160.0,0.04339941178682327
1159.0,0.04315950984076644
1158.0,0.0433514207947967
1157.0,0.04383156952463674
1156.0,0.04469717723830824
1155.0,0.04599883231842972
1154.0,0.04778894189133087
1153.0,0.05012229596312534
1152.0,0.05300765925162776
1151.0,0.05635711724787096
1150.0,0.060081579630943294
1149.0,0.06429125215733666
1148.0,0.06884736147670667
1147.0,0.07376047895413773
1146.0,0.0788860261633193
1145.0,0.08423093401631587
1144.0,0.08974922769985194
1143.0,0.09528445472131919
1142.0,0.10072681268239614
1141.0,0.10596099919539115
1140.0,0.11092250734993603
1139.0,0.11560117444331386
1138.0,0.11992991593593283
1137.0,0.12389767862220635
1136.0,0.12761061158217912
1135.0,0.13106182166708868
1134.0,0.13430394008392943
1133.0,0.1375704438939911
1132.0,0.1410419452819942
1131.0,0.1447838052666366
1130.0,0.1489251947711132
1129.0,0.15360102696532518
1128.0,0.1588909155318461
1127.0,0.16481693015095633
1126.0,0.1714045436282976
1125.0,0.1784864715952268
1124.0,0.18608557995139652
1123.0,0.19368433019188647
1122.0,0.2009352806489919
1121.0,0.2076783636484265
1120.0,0.21360353862769577
1119.0,0.21831641549264935
1118.0,0.2214146721370378
1117.0,0.22279074185431513
1116.0,0.22235572230351508
1115.0,0.2204035087421754
1114.0,0.2173840679683965
1113.0,0.21431433171909875
1112.0,0.21190236661970263
1111.0,0.2108425080885603
1110.0,0.21169018789295002
1109.0,0.2148838049780799
1108.0,0.22025924882325953
1107.0,0.2274582673590566
1106.0,0.23589862352377122
1105.0,0.24542234395526963
1104.0,0.25578527518583405
1103.0,0.26656197290893857
1102.0,0.27761290582287623
1101.0,0.2886990400838343
1100.0,0.2993828043179432
1099.0,0.3091839420190845
1098.0,0.3177646430974359
1097.0,0.32495526404410735
1096.0,0.3308691526266674
1095.0,0.3352640314812949
1094.0,0.33818731446273875
1093.0,0.33989377827675593
1092.0,0.3405592181296824
1091.0,0.33979879861931805
1090.0,0.3378090091409929
1089.0,0.33488826292494855
1088.0,0.3312414582490424
1087.0,0.32679471822095474
1086.0,0.32175484807295796
1085.0,0.3164126824272331
1084.0,0.3106911408763797
1083.0,0.30434324006380975
1082.0,0.297224922098956
1081.0,0.2893749849392031
1080.0,0.2808345059107866
1079.0,0.2715650490257453
1078.0,0.261615876487844
1077.0,0.25142438306900816
1076.0,0.24101245313238073
1075.0,0.2306965398109182
1074.0,0.22054781659593825
1073.0,0.21091308491197136
1072.0,0.20190206793751408
1071.0,0.19334527600813955
1070.0,0.18521985425419518
1069.0,0.1775703762206431
1068.0,0.1705032502798176
1067.0,0.16405589990615188
1066.0,0.15814019022493886
1065.0,0.15292113793428452
1064.0,0.14813039927023364
1063.0,0.14381507327283027
1062.0,0.13984173868172167
1061.0,0.1363797797296844
1060.0,0.13359450162194508
1059.0,0.1314731132317961
1058.0,0.13018179202067182
1057.0,0.12965462891904034
1056.0,0.12994741830645506
1055.0,0.13076828026902376
1054.0,0.132179091954427
1053.0,0.13418561983203192
1052.0,0.13673663634951905
1051.0,0.1397219002477652
1050.0,0.14284849731250704
1049.0,0.14599776687301103
1048.0,0.1491088158640761
1047.0,0.15205736115477642
1046.0,0.1545918603782066
1045.0,0.15676722190199066
1044.0,0.1583902878315646
1043.0,0.159517512786558
1042.0,0.160145015398115
1041.0,0.1603334431175667
1040.0,0.159956669396506
1039.0,0.15901616267962204
1038.0,0.15757799664235028
1037.0,0.15577141869837208
1036.0,0.1537866361206126
1035.0,0.15181088300860135
1034.0,0.14990540561329913
1033.0,0.1480693213597324
1032.0,0.1463626180414057
1031.0,0.14454141961396383
1030.0,0.14266750356873148
1029.0,0.1407415825326932
1028.0,0.13894375542312654
1027.0,0.1375704438939911
1026.0,0.13715334001706125
1025.0,0.13834612978608907
1024.0,0.14206473528057106
1023.0,0.1491088158640761
1022.0,0.1600194423216572
1021.0,0.17476867680009978
1020.0,0.19232969876951622
1019.0,0.21056031543282083
1018.0,0.22665245801917688
1017.0,0.23732143627256375
1016.0,0.2401056259745007
1015.0,0.23448045690204733
1014.0,0.221921138062545
1013.0,0.20593041601836748
1012.0,0.18956584407732735
1011.0,0.17470373556903995
1010.0,0.16203298163134527
1009.0,0.15131834597604965
1008.0,0.14224547794055775
1007.0,0.13454067733803532
1006.0,0.1281352979118051
1005.0,0.12285911021517903
1004.0,0.11855827805860697
1003.0,0.11492161585077598
1002.0,0.11165198982195101
1001.0,0.10874138309586101
1000.0,0.10612732120491852
999.0,0.1038045895457893
998.0,0.10165883427249067
997.0,0.09968750301627338
996.0,0.0978882765519955
995.0,0.09631326826349751
994.0,0.09490603167212863
993.0,0.0937727369476411
992.0,0.09280368972839836
991.0,0.09189045960744768
990.0,0.09113982698272349
989.0,0.09049745859458458
988.0,0.08996287644694911
987.0,0.08958906008531176
986.0,0.08916223500731646
985.0,0.08884239126002336
984.0,0.08857603462370545
983.0,0.0884695376928375
982.0,0.0884695376928375
981.0,0.08841629901892434
980.0,0.08830984124613894
979.0,0.08820340956274775
978.0,0.0880970039559672
977.0,0.0880970039559672
976.0,0.0880970039559672
975.0,0.08793744441149753
974.0,0.08761850108119962
973.0,0.08708744882390307
972.0,0.08639805027084257
971.0,0.08555105930144569
970.0,0.08449463824562353
969.0,0.08333553545860273
968.0,0.08207457793525874
967.0,0.08071265949561734
966.0,0.07925073872429178
965.0,0.07763790321520991
964.0,0.0760310351245288
963.0,0.07453319930846214
962.0,0.07309189829456408
961.0,0.0718090519612431
960.0,0.07058107428570715
959.0,0.06945847013556561
958.0,0.068389593637038
957.0,0.06742477650170953
956.0,0.06656333217371957
955.0,0.06570359318059427
954.0,0.06489597884855036
953.0,0.06403953101083348
952.0,0.06323500239005853
951.0,0.06258241852286206
950.0,0.06208109735221967
949.0,0.061780582187257016
948.0,0.06153031163235467
947.0,0.06128018521761747
946.0,0.06098022355133348
945.0,0.06058059667068294
944.0,0.060131455540490375
943.0,0.05973260855398799
942.0,0.05933412752417122
941.0,0.05898575629443026
940.0,0.058737090681050264
939.0,0.058538260652670315
938.0,0.0583891978463662
937.0,0.0582898510583536
936.0,0.05814087347462649
935.0,0.05804158346918653
934.0,0.05799194697768684
933.0,0.05789269101064454
932.0,0.05764465029232335
931.0,0.05724807957018618
930.0,0.0567528748621382
929.0,0.056406567231630955
928.0,0.056159373598738904
927.0,0.055961719945581745
926.0,0.05571477931124735
925.0,0.05531996611868961
924.0,0.05477768336465916
923.0,0.05413767551038262
922.0,0.05354773498692689
921.0,0.05300765925162776
920.0,0.05261529831525902
919.0,0.052419250695677544
918.0,0.05232126006306337
917.0,0.052419250695677544
916.0,0.05266432405126009
915.0,0.05310580489767336
914.0,0.05369514500652506
913.0,0.05453141486818014
912.0,0.055566682299785564
911.0,0.05685187064143715
910.0,0.058538260652670315
909.0,0.06058059667068294
908.0,0.06303410289212974
907.0,0.06570359318059427
906.0,0.06864384953207203
905.0,0.07170658776779781
904.0,0.07479107858799638
903.0,0.07768983678560404
902.0,0.08029446545087904
901.0,0.08249449044745338
900.0,0.08433639649422697
899.0,0.08581556657675371
898.0,0.08692825969074924
897.0,0.08772478950118767
896.0,0.0880970039559672
895.0,0.08825662214406838
894.0,0.08820340956274775
893.0,0.0881502035005799
892.0,0.08820340956274775
891.0,0.08841629901892434
890.0,0.08884239126002336
889.0,0.08953568400438638
888.0,0.0905509530187334
887.0,0.0917831469106074
886.0,0.09328794305703592
885.0,0.09523037409340485
884.0,0.09767069414168117
883.0,0.10078158214862709
882.0,0.10463271122663809
881.0,0.10929960230112479
880.0,0.11463877996848804
879.0,0.12050271275057156
878.0,0.1267375405612734
877.0,0.1331221856625011
876.0,0.13924287691845794
875.0,0.14466259553045968
874.0,0.14874165128092476
873.0,0.15101079374883275
872.0,0.15107228677292173
871.0,0.14874165128092476
870.0,0.14429916916456276
869.0,0.13834612978608907
868.0,0.13141433344123432
867.0,0.12418661116024232
866.0,0.11730473761840288
865.0,0.11109074073646874
864.0,0.10590557267730127
863.0,0.10154908080162528
862.0,0.09805153492691598
861.0,0.09539263618455207
860.0,0.09344948089854999
859.0,0.09205147838772776
858.0,0.09092559859909577
857.0,0.0900163050601559
856.0,0.08937559511079884
855.0,0.08900228368935714
854.0,0.08884239126002336
853.0,0.08884239126002336
852.0,0.08884239126002336
851.0,0.08868255767596933
850.0,0.08841629901892434
849.0,0.08804381092731295
848.0,0.0877779434675845
847.0,0.08772478950118767
846.0,0.08783110394037297
845.0,0.08799062441302175
844.0,0.08799062441302175
843.0,0.08756536662442538
842.0,0.08698131625203986
841.0,0.08645104209348209
840.0,0.08608023504853413
839.0,0.08576265223225898
838.0,0.0854453014823664
837.0,0.08486409337798806
836.0,0.08396738981143059
835.0,0.08275714209253371
834.0,0.0812359689720008
833.0,0.07977228854307139
832.0,0.07836553894629472
831.0,0.07701518429111709
830.0,0.07577241873988227
829.0,0.07458476291575367
828.0,0.07360609973031784
827.0,0.07278366940873537
826.0,0.07211658966929302
825.0,0.07155293679081787
824.0,0.07114346641808922
823.0,0.07088774334533943
822.0,0.07063217075990047
821.0,0.07037674848475972
820.0,0.07001940948448526
819.0,0.06971335275448043
818.0,0.06956040523329987
817.0,0.06945847013556561
816.0,0.06950943469373039
815.0,0.06971335275448043
814.0,0.07007043991541217
813.0,0.07047889936889606
812.0,0.07073438174693436
811.0,0.07068327324650436
810.0,0.07052998382251041
809.0,0.07047889936889606
808.0,0.07047889936889606
807.0,0.07037674848475972
806.0,0.07007043991541217
805.0,0.06950943469373039
804.0,0.06874559358358656
803.0,0.0678307540792078
802.0,0.06696850489759454
801.0,0.06646209802829528
800.0,0.06656333217371957
799.0,0.0676277178520861
798.0,0.07012147634321675
797.0,0.07391491307485598
796.0,0.07841755960658348
795.0,0.08254700807033655
794.0,0.08533956941077814
793.0,0.086239113587677
792.0,0.08528671302637614
791.0,0.08265206237222844
790.0,0.0788860261633193
789.0,0.07463633264589853
788.0,0.0702746216219956
787.0,0.06615853710127872
786.0,0.062331685600995
785.0,0.058936011780097886
784.0,0.055961719945581745
783.0,0.053449489430144714
782.0,0.051244819831730126
781.0,0.04939177521576932
780.0,0.0478374257855374
779.0,0.04638525830935958
778.0,0.044986096961949995
777.0,0.0435434165901003
776.0,0.04215336629184985
775.0,0.041006334969674096
774.0,0.04014804520039483
773.0,0.03948165721929198
772.0,0.038673844065289176
771.0,0.037583306554248797
770.0,0.03630659476198117
769.0,0.03508070571335731
768.0,0.033905220553829274
767.0,0.03282657704446046
766.0,0.03189079887180224
765.0,0.030957032694186815
764.0,0.03002526987828502
763.0,0.029002634427514717
762.0,0.02798240132598462
761.0,0.027010773144651168
760.0,0.02617967564731627
759.0,0.02539620791296726
758.0,0.02484402159331056
757.0,0.02438440203310499
756.0,0.023879381700184332
755.0,0.02314585342378117
754.0,0.022322112326006227
753.0,0.021636852916117055
752.0,0.021043834782408455
751.0,0.020542681902151694
750.0,0.02022406727031445
749.0,0.02026956933771462
748.0,0.020724852408976924
747.0,0.021545566634771474
746.0,0.02296266477531872
745.0,0.02553436426275746
744.0,0.029792641193145286
743.0,0.03597620715996652
742.0,0.04426415772233416
741.0,0.05482695382609992
740.0,0.06777998612288094
739.0,0.08296737783760655
738.0,0.10001543745060903
737.0,0.1183871275216517
736.0,0.1374512304752069
735.0,0.15682953548010214
734.0,0.1764605663431411
733.0,0.19661117501638659
732.0,0.21745571598998992
731.0,0.2389747482886273
730.0,0.2616952069258951
729.0,0.28575408898210597
728.0,0.3111354319452082
727.0,0.3365817877473203
726.0,0.35922052265514304
725.0,0.37520242103923884
724.0,0.38090666937325723
723.0,0.3757179041643317
722.0,0.3607127740897633
721.0,0.3384712598680175
720.0,0.31202537996544444
719.0,0.28541879116046887
718.0,0.2610609687965204
717.0,0.23987921473543228
716.0,0.22177637323390353
715.0,0.20648899420714217
714.0,0.19382002601611292
713.0,0.1835598320438614
712.0,0.17574396237031764
711.0,0.16998906406388214
710.0,0.16532502553725603
709.0,0.1607105439938532
708.0,0.15570925674565683
707.0,0.15076490868527737
706.0,0.1463626180414057
705.0,0.1425468829647336
704.0,0.13918303613546223
703.0,0.13578566953867033
702.0,0.1316495003520317
701.0,0.1263307072932056
700.0,0.12033079436794658
699.0,0.1148084593931522
698.0,0.11041819785037621
697.0,0.10690433390377163
696.0,0.1033635694704158
695.0,0.09946901754724413
694.0,0.09560907998763835
693.0,0.09237369515673355
692.0,0.08996287644694911
691.0,0.08825662214406838
690.0,0.08714052483764512
689.0,0.08666307406737683
688.0,0.08666307406737683
687.0,0.0867691288864394
686.0,0.08666307406737683
685.0,0.08602728844902896
684.0,0.08507535179485148
683.0,0.08423093401631587
682.0,0.08375666953466032
681.0,0.0833881548906541
680.0,0.08238947425013277
679.0,0.0805035121369384
678.0,0.0781575185941421
677.0,0.0759792995259323
676.0,0.07422394616325367
675.0,0.07268097504034388
674.0,0.07129697256940304
673.0,0.07007043991541217
672.0,0.06869471857832687
671.0,0.06681652082538614
670.0,0.06464390705442691
669.0,0.06253226035662252
668.0,0.06133019897732073
667.0,0.06143024377893891
666.0,0.06153031163235467
665.0,0.06078036414518184
664.0,0.05988213325228142
663.0,0.05908526241971446
662.0,0.058190526991161784
661.0,0.05685187064143715
660.0,0.05546797900801881
659.0,0.054679159207724926
658.0,0.0549255115212699
657.0,0.05571477931124735
656.0,0.05625823416868636
655.0,0.055961719945581745
654.0,0.0549255115212699
653.0,0.05369514500652506
652.0,0.05271335532220167
651.0,0.05207638016827354
650.0,0.051684859310652254
649.0,0.05139145012356372
648.0,0.05153812993871654
647.0,0.052027420754219955
646.0,0.05261529831525902
645.0,0.05300765925162776
644.0,0.053203972728539606
643.0,0.05330216275425803
642.0,0.05340037498486727
641.0,0.05330216275425803
640.0,0.053203972728539606
639.0,0.053596866100945384
638.0,0.05462990550969615
637.0,0.05630767289398331
636.0,0.058737090681050264
635.0,0.062381820606176586
634.0,0.06722192993944942
633.0,0.07186029312488018
632.0,0.07396640332115534
631.0,0.0720140529005715
630.0,0.06671522765130522
629.0,0.06028111764589528
628.0,0.0549255115212699
627.0,0.05197846685889629
626.0,0.051244819831730126
625.0,0.05144033789103841
624.0,0.05153812993871654
623.0,0.05139145012356372
622.0,0.05144033789103841
621.0,0.05153812993871654
620.0,0.051244819831730126
619.0,0.050707598587974356
618.0,0.05065879322950262
617.0,0.051098239029786274
616.0,0.05119595406718891
615.0,0.05056119896349576
614.0,0.04978123335813667
613.0,0.04948910701400333
612.0,0.04953778109440221
611.0,0.04919717703534143
610.0,0.048225491918274965
609.0,0.04657860031896477
608.0,0.04450467081587295
607.0,0.04287180232318688
606.0,0.042967683653061695
605.0,0.04488976902944808
604.0,0.04686877481655505
603.0,0.047062332249019345
602.0,0.045612749855485024
601.0,0.04421607108308856
600.0,0.04387961360698034
