cm-1,A
4000.0,0.021773818325474092
3999.0,0.02168250325324883
3998.0,0.02159120737696063
3997.0,0.021545566634771474
3996.0,0.0214542995372613
3995.0,0.02140867317992523
3994.0,0.021363051615525652
3993.0,0.021317434843055594
3992.0,0.021363051615525652
3991.0,0.02140867317992523
3990.0,0.021499930688540836
3989.0,0.021545566634771474
3988.0,0.021636852916117055
3987.0,0.021636852916117055
3986.0,0.021636852916117055
3985.0,0.02159120737696063
3984.0,0.021545566634771474
3983.0,0.021499930688540836
3982.0,0.0214542995372613
3981.0,0.0214542995372613
3980.0,0.0214542995372613
3979.0,0.021499930688540836
3978.0,0.021499930688540836
3977.0,0.021545566634771474
3976.0,0.021499930688540836
3975.0,0.021545566634771474
3974.0,0.021545566634771474
3973.0,0.02159120737696063
3972.0,0.021728158389364705
3971.0,0.021865152601710403
3970.0,0.02204787879853809
3969.0,0.022093572362881675
3968.0,0.02204787879853809
3967.0,0.021910826943857264
3966.0,0.021728158389364705
3965.0,0.02159120737696063
3964.0,0.02159120737696063
3963.0,0.021636852916117055
3962.0,0.02168250325324883
3961.0,0.02168250325324883
3960.0,0.021636852916117055
3959.0,0.021636852916117055
3958.0,0.021636852916117055
3957.0,0.02159120737696063
3956.0,0.021545566634771474
3955.0,0.021545566634771474
3954.0,0.021545566634771474
3953.0,0.021499930688540836
3952.0,0.02140867317992523
3951.0,0.021317434843055594
3950.0,0.021271822861508305
3949.0,0.02122621566987748
3948.0,0.02122621566987748
3947.0,0.02122621566987748
3946.0,0.02122621566987748
3945.0,0.021271822861508305
3944.0,0.021317434843055594
3943.0,0.021317434843055594
3942.0,0.021271822861508305
3941.0,0.021317434843055594
3940.0,0.0214542995372613
3939.0,0.021636852916117055
3938.0,0.021728158389364705
3937.0,0.021728158389364705
3936.0,0.02159120737696063
3935.0,0.021499930688540836
3934.0,0.02140867317992523
3933.0,0.021363051615525652
3932.0,0.021363051615525652
3931.0,0.021363051615525652
3930.0,0.02140867317992523
3929.0,0.02140867317992523
3928.0,0.0214542995372613
3927.0,0.021499930688540836
3926.0,0.021545566634771474
3925.0,0.02159120737696063
3924.0,0.021545566634771474
3923.0,0.021499930688540836
3922.0,0.021545566634771474
3921.0,0.021545566634771474
3920.0,0.021499930688540836
3919.0,0.021499930688540836
3918.0,0.021499930688540836
3917.0,0.021499930688540836
3916.0,0.021499930688540836
3915.0,0.02159120737696063
3914.0,0.021773818325474092
3913.0,0.021956506090037076
3912.0,0.02204787879853809
3911.0,0.021956506090037076
3910.0,0.021773818325474092
3909.0,0.021545566634771474
3908.0,0.021363051615525652
3907.0,0.02122621566987748
3906.0,0.0211806132671577
3905.0,0.021135015652343103
3904.0,0.021089422824428272
3903.0,0.0209982515252789
3902.0,0.021135015652343103
3901.0,0.0214542995372613
3900.0,0.021773818325474092
3899.0,0.021773818325474092
3898.0,0.021636852916117055
3897.0,0.021499930688540836
3896.0,0.0214542995372613
3895.0,0.021363051615525652
3894.0,0.021317434843055594
3893.0,0.02140867317992523
3892.0,0.021636852916117055
3891.0,0.02159120737696063
3890.0,0.021363051615525652
3889.0,0.021363051615525652
3888.0,0.021728158389364705
3887.0,0.021910826943857264
3886.0,0.021773818325474092
3885.0,0.021271822861508305
3884.0,0.020952673052035298
3883.0,0.021135015652343103
3882.0,0.021636852916117055
3881.0,0.021910826943857264
3880.0,0.021728158389364705
3879.0,0.021317434843055594
3878.0,0.021271822861508305
3877.0,0.021545566634771474
3876.0,0.021773818325474092
3875.0,0.021636852916117055
3874.0,0.021089422824428272
3873.0,0.02067930261797568
3872.0,0.020770406977844713
3871.0,0.0211806132671577
3870.0,0.021317434843055594
3869.0,0.020907099361673565
3868.0,0.02067930261797568
3867.0,0.0209982515252789
3866.0,0.02140867317992523
3865.0,0.021545566634771474
3864.0,0.021499930688540836
3863.0,0.0214542995372613
3862.0,0.0214542995372613
3861.0,0.021499930688540836
3860.0,0.021499930688540836
3859.0,0.0214542995372613
3858.0,0.02122621566987748
3857.0,0.020952673052035298
3856.0,0.020724852408976924
3855.0,0.020952673052035298
3854.0,0.021545566634771474
3853.0,0.0214542995372613
3852.0,0.020907099361673565
3851.0,0.021135015652343103
3850.0,0.021865152601710403
3849.0,0.0221849739168134
3848.0,0.02204787879853809
3847.0,0.021773818325474092
3846.0,0.021636852916117055
3845.0,0.021499930688540836
3844.0,0.021271822861508305
3843.0,0.020907099361673565
3842.0,0.020633757603838898
3841.0,0.02058821736556471
3840.0,0.020770406977844713
3839.0,0.021043834782408455
3838.0,0.021089422824428272
3837.0,0.0209982515252789
3836.0,0.021043834782408455
3835.0,0.021363051615525652
3834.0,0.021865152601710403
3833.0,0.0221849739168134
3832.0,0.022230681908425698
3831.0,0.02204787879853809
3830.0,0.021910826943857264
3829.0,0.021910826943857264
3828.0,0.02204787879853809
3827.0,0.021956506090037076
3826.0,0.021545566634771474
3825.0,0.021089422824428272
3824.0,0.020907099361673565
3823.0,0.021043834782408455
3822.0,0.021317434843055594
3821.0,0.0211806132671577
3820.0,0.020633757603838898
3819.0,0.02058821736556471
3818.0,0.021363051615525652
3817.0,0.022139270735302752
3816.0,0.022367834754000393
3815.0,0.022093572362881675
3814.0,0.02204787879853809
3813.0,0.022367834754000393
3812.0,0.02255077261765881
3811.0,0.022322112326006227
3810.0,0.02204787879853809
3809.0,0.02204787879853809
3808.0,0.022230681908425698
3807.0,0.022139270735302752
3806.0,0.02159120737696063
3805.0,0.021317434843055594
3804.0,0.021545566634771474
3803.0,0.02200219004126036
3802.0,0.022093572362881675
3801.0,0.02159120737696063
3800.0,0.0209982515252789
3799.0,0.0211806132671577
3798.0,0.021819483062586187
3797.0,0.022230681908425698
3796.0,0.022230681908425698
3795.0,0.022139270735302752
3794.0,0.02227639471115217
3793.0,0.02259651912656535
3792.0,0.02277955336461468
3791.0,0.02277955336461468
3790.0,0.022688026603074007
3789.0,0.02259651912656535
3788.0,0.022505030926963654
3787.0,0.02245929405346514
3786.0,0.02245929405346514
3785.0,0.022413561996148967
3784.0,0.0221849739168134
3783.0,0.021956506090037076
3782.0,0.021910826943857264
3781.0,0.02204787879853809
3780.0,0.022230681908425698
3779.0,0.022322112326006227
3778.0,0.022322112326006227
3777.0,0.02245929405346514
3776.0,0.022688026603074007
3775.0,0.022733787572707387
3774.0,0.02259651912656535
3773.0,0.022413561996148967
3772.0,0.022367834754000393
3771.0,0.022413561996148967
3770.0,0.022322112326006227
3769.0,0.022139270735302752
3768.0,0.022093572362881675
3767.0,0.02227639471115217
3766.0,0.02245929405346514
3765.0,0.022413561996148967
3764.0,0.0221849739168134
3763.0,0.022139270735302752
3762.0,0.022139270735302752
3761.0,0.02204787879853809
3760.0,0.021910826943857264
3759.0,0.021819483062586187
3758.0,0.021819483062586187
3757.0,0.02168250325324883
3756.0,0.021545566634771474
3755.0,0.0214542995372613
3754.0,0.0214542995372613
3753.0,0.021545566634771474
3752.0,0.021910826943857264
3751.0,0.022322112326006227
3750.0,0.022230681908425698
3749.0,0.021728158389364705
3748.0,0.021545566634771474
3747.0,0.021865152601710403
3746.0,0.022505030926963654
3745.0,0.022871099419317753
3744.0,0.02245929405346514
3743.0,0.021819483062586187
3742.0,0.02204787879853809
3741.0,0.02259651912656535
3740.0,0.022505030926963654
3739.0,0.02204787879853809
3738.0,0.021636852916117055
3737.0,0.02168250325324883
3736.0,0.021865152601710403
3735.0,0.021956506090037076
3734.0,0.02200219004126036
3733.0,0.0221849739168134
3732.0,0.022322112326006227
3731.0,0.02227639471115217
3730.0,0.022322112326006227
3729.0,0.02245929405346514
3728.0,0.022505030926963654
3727.0,0.022367834754000393
3726.0,0.0221849739168134
3725.0,0.022139270735302752
3724.0,0.02227639471115217
3723.0,0.022367834754000393
3722.0,0.022367834754000393
3721.0,0.02227639471115217
3720.0,0.02227639471115217
3719.0,0.022413561996148967
3718.0,0.02255077261765881
3717.0,0.022505030926963654
3716.0,0.02245929405346514
3715.0,0.022413561996148967
3714.0,0.022367834754000393
3713.0,0.022367834754000393
3712.0,0.022413561996148967
3711.0,0.022367834754000393
3710.0,0.02227639471115217
3709.0,0.02227639471115217
3708.0,0.022413561996148967
3707.0,0.022505030926963654
3706.0,0.02259651912656535
3705.0,0.022688026603074007
3704.0,0.02282532397981263
3703.0,0.023054249440757957
3702.0,0.02314585342378117
3701.0,0.023054249440757957
3700.0,0.02291687968414724
3699.0,0.02291687968414724
3698.0,0.02300845469384938
3697.0,0.02296266477531872
3696.0,0.02277955336461468
3695.0,0.02255077261765881
3694.0,0.022367834754000393
3693.0,0.0221849739168134
3692.0,0.022093572362881675
3691.0,0.022139270735302752
3690.0,0.02245929405346514
3689.0,0.022642270454698687
3688.0,0.02259651912656535
3687.0,0.022642270454698687
3686.0,0.02300845469384938
3685.0,0.023374947949272418
3684.0,0.023466619608062178
3683.0,0.023237476732539397
3682.0,0.02300845469384938
3681.0,0.022733787572707387
3680.0,0.022367834754000393
3679.0,0.021865152601710403
3678.0,0.02168250325324883
3677.0,0.02204787879853809
3676.0,0.022642270454698687
3675.0,0.022505030926963654
3674.0,0.02200219004126036
3673.0,0.0221849739168134
3672.0,0.022871099419317753
3671.0,0.023466619608062178
3670.0,0.023695883447997224
3669.0,0.02351246269481
3668.0,0.023374947949272418
3667.0,0.02355831062115543
3666.0,0.023787622882622816
3665.0,0.023787622882622816
3664.0,0.023695883447997224
3663.0,0.023604163388120325
3662.0,0.02355831062115543
3661.0,0.023466619608062178
3660.0,0.023374947949272418
3659.0,0.023329119375188556
3658.0,0.02351246269481
3657.0,0.023695883447997224
3656.0,0.023604163388120325
3655.0,0.023237476732539397
3654.0,0.02291687968414724
3653.0,0.022688026603074007
3652.0,0.02227639471115217
3651.0,0.02204787879853809
3650.0,0.02227639471115217
3649.0,0.022642270454698687
3648.0,0.02277955336461468
3647.0,0.02296266477531872
3646.0,0.023283295636617574
3645.0,0.02365002099672653
3644.0,0.023971159908874107
3643.0,0.024108863598207186
3642.0,0.024108863598207186
3641.0,0.024017056287453542
3640.0,0.024017056287453542
3639.0,0.023971159908874107
3638.0,0.023879381700184332
3637.0,0.023833499868024743
3636.0,0.023787622882622816
3635.0,0.023787622882622816
3634.0,0.02355831062115543
3633.0,0.023237476732539397
3632.0,0.02296266477531872
3631.0,0.02291687968414724
3630.0,0.02314585342378117
3629.0,0.02342078135989012
3628.0,0.023283295636617574
3627.0,0.023191662661933732
3626.0,0.023604163388120325
3625.0,0.023971159908874107
3624.0,0.023971159908874107
3623.0,0.023741750742954926
3622.0,0.023604163388120325
3621.0,0.023604163388120325
3620.0,0.023604163388120325
3619.0,0.02342078135989012
3618.0,0.02314585342378117
3617.0,0.023054249440757957
3616.0,0.023237476732539397
3615.0,0.023466619608062178
3614.0,0.02365002099672653
3613.0,0.023741750742954926
3612.0,0.023741750742954926
3611.0,0.023879381700184332
3610.0,0.024108863598207186
3609.0,0.024292536462819925
3608.0,0.02438440203310499
3607.0,0.02438440203310499
3606.0,0.024292536462819925
3605.0,0.024292536462819925
3604.0,0.024246610963712723
3603.0,0.024200690320592466
3602.0,0.024154774532432866
3601.0,0.02406295751688936
3600.0,0.023925268380126097
3599.0,0.023833499868024743
3598.0,0.023833499868024743
3597.0,0.024017056287453542
3596.0,0.024292536462819925
3595.0,0.024568191490736968
3594.0,0.024706084643793647
3593.0,0.024706084643793647
3592.0,0.02461415101053266
3591.0,0.024522236834125355
3590.0,0.024430342106337877
3589.0,0.024476287039668643
3588.0,0.02461415101053266
3587.0,0.024568191490736968
3586.0,0.024522236834125355
3585.0,0.024660115394541604
3584.0,0.024890010313838973
3583.0,0.02512002699306959
3582.0,0.02516604495145991
3581.0,0.025074013910237447
3580.0,0.024936003904763915
3579.0,0.024798037742147727
3578.0,0.02475205875931885
3577.0,0.02484402159331056
3576.0,0.024936003904763915
3575.0,0.02512002699306959
3574.0,0.02521206778644225
3573.0,0.02521206778644225
3572.0,0.025074013910237447
3571.0,0.024890010313838973
3570.0,0.024660115394541604
3569.0,0.024522236834125355
3568.0,0.024568191490736968
3567.0,0.024706084643793647
3566.0,0.02475205875931885
3565.0,0.02475205875931885
3564.0,0.024890010313838973
3563.0,0.025028005701930978
3562.0,0.02512002699306959
3561.0,0.02516604495145991
3560.0,0.02521206778644225
3559.0,0.025304128090317013
3558.0,0.025304128090317013
3557.0,0.025350165561278004
3556.0,0.025304128090317013
3555.0,0.025304128090317013
3554.0,0.025304128090317013
3553.0,0.025304128090317013
3552.0,0.025304128090317013
3551.0,0.025258095499050004
3550.0,0.02521206778644225
3549.0,0.025258095499050004
3548.0,0.025304128090317013
3547.0,0.025350165561278004
3546.0,0.02539620791296726
3545.0,0.025350165561278004
3544.0,0.025304128090317013
3543.0,0.025350165561278004
3542.0,0.02539620791296726
3541.0,0.02544225514642018
3540.0,0.02539620791296726
3539.0,0.02539620791296726
3538.0,0.02539620791296726
3537.0,0.02544225514642018
3536.0,0.02553436426275746
3535.0,0.02553436426275746
3534.0,0.02553436426275746
3533.0,0.02553436426275746
3532.0,0.025488307262671706
3531.0,0.025488307262671706
3530.0,0.02553436426275746
3529.0,0.02558042614771394
3528.0,0.02562649291857677
3527.0,0.02562649291857677
3526.0,0.02558042614771394
3525.0,0.02553436426275746
3524.0,0.02553436426275746
3523.0,0.02553436426275746
3522.0,0.02553436426275746
3521.0,0.02562649291857677
3520.0,0.025718641122169483
3519.0,0.025902996205869
3518.0,0.026041313893296225
3517.0,0.02613355016462182
3516.0,0.026225806029419818
3515.0,0.026271941311972746
3514.0,0.026225806029419818
3513.0,0.02613355016462182
3512.0,0.025995203102585407
3511.0,0.025856900097785074
3510.0,0.025764722556973707
3509.0,0.025764722556973707
3508.0,0.025810808881832736
3507.0,0.025810808881832736
3506.0,0.025764722556973707
3505.0,0.025718641122169483
3504.0,0.025672564576383117
3503.0,0.025718641122169483
3502.0,0.025764722556973707
3501.0,0.025856900097785074
3500.0,0.025902996205869
3499.0,0.025949097207122573
3498.0,0.026041313893296225
3497.0,0.026087429580295085
3496.0,0.02613355016462182
3495.0,0.026087429580295085
3494.0,0.025995203102585407
3493.0,0.025856900097785074
3492.0,0.025810808881832736
3491.0,0.025810808881832736
3490.0,0.025902996205869
3489.0,0.026041313893296225
3488.0,0.02617967564731627
3487.0,0.026225806029419818
3486.0,0.02617967564731627
3485.0,0.026087429580295085
3484.0,0.026087429580295085
3483.0,0.02613355016462182
3482.0,0.02613355016462182
3481.0,0.02613355016462182
3480.0,0.02613355016462182
3479.0,0.02613355016462182
3478.0,0.02617967564731627
3477.0,0.02617967564731627
3476.0,0.02617967564731627
3475.0,0.02613355016462182
3474.0,0.026087429580295085
3473.0,0.026087429580295085
3472.0,0.026087429580295085
3471.0,0.02613355016462182
3470.0,0.02617967564731627
3469.0,0.026225806029419818
3468.0,0.026225806029419818
3467.0,0.02617967564731627
3466.0,0.02617967564731627
3465.0,0.02613355016462182
3464.0,0.02617967564731627
3463.0,0.026225806029419818
3462.0,0.026271941311972746
3461.0,0.026271941311972746
3460.0,0.026225806029419818
3459.0,0.026225806029419818
3458.0,0.02617967564731627
3457.0,0.02613355016462182
3456.0,0.02613355016462182
3455.0,0.02617967564731627
3454.0,0.026225806029419818
3453.0,0.026271941311972746
3452.0,0.026271941311972746
3451.0,0.026271941311972746
3450.0,0.026225806029419818
3449.0,0.02617967564731627
3448.0,0.02617967564731627
3447.0,0.02613355016462182
3446.0,0.02613355016462182
3445.0,0.02617967564731627
3444.0,0.026318081496016443
3443.0,0.026410376572743033
3442.0,0.026456531467510258
3441.0,0.026410376572743033
3440.0,0.026410376572743033
3439.0,0.02636422658259252
3438.0,0.026318081496016443
3437.0,0.026318081496016443
3436.0,0.026318081496016443
3435.0,0.026318081496016443
3434.0,0.02636422658259252
3433.0,0.026410376572743033
3432.0,0.026410376572743033
3431.0,0.02636422658259252
3430.0,0.026318081496016443
3429.0,0.026271941311972746
3428.0,0.026271941311972746
3427.0,0.026271941311972746
3426.0,0.026271941311972746
3425.0,0.026225806029419818
3424.0,0.02613355016462182
3423.0,0.026087429580295085
3422.0,0.026087429580295085
3421.0,0.02613355016462182
3420.0,0.026225806029419818
3419.0,0.026271941311972746
3418.0,0.026318081496016443
3417.0,0.026318081496016443
3416.0,0.026318081496016443
3415.0,0.02636422658259252
3414.0,0.02636422658259252
3413.0,0.02636422658259252
3412.0,0.02636422658259252
3411.0,0.02636422658259252
3410.0,0.026410376572743033
3409.0,0.026456531467510258
3408.0,0.026410376572743033
3407.0,0.02636422658259252
3406.0,0.026271941311972746
3405.0,0.02617967564731627
3404.0,0.02613355016462182
3403.0,0.02613355016462182
3402.0,0.026087429580295085
3401.0,0.026087429580295085
3400.0,0.026041313893296225
3399.0,0.026087429580295085
3398.0,0.02617967564731627
3397.0,0.026225806029419818
3396.0,0.026271941311972746
3395.0,0.026271941311972746
3394.0,0.02617967564731627
3393.0,0.02613355016462182
3392.0,0.026087429580295085
3391.0,0.02617967564731627
3390.0,0.026318081496016443
3389.0,0.026456531467510258
3388.0,0.02654885597506529
3387.0,0.02654885597506529
3386.0,0.026502691267936695
3385.0,0.026456531467510258
3384.0,0.02636422658259252
3383.0,0.026271941311972746
3382.0,0.02617967564731627
3381.0,0.026087429580295085
3380.0,0.026041313893296225
3379.0,0.026087429580295085
3378.0,0.02613355016462182
3377.0,0.026225806029419818
3376.0,0.026271941311972746
3375.0,0.026318081496016443
3374.0,0.026318081496016443
3373.0,0.026271941311972746
3372.0,0.026225806029419818
3371.0,0.026225806029419818
3370.0,0.02617967564731627
3369.0,0.026225806029419818
3368.0,0.026271941311972746
3367.0,0.026318081496016443
3366.0,0.02636422658259252
3365.0,0.026318081496016443
3364.0,0.026225806029419818
3363.0,0.02613355016462182
3362.0,0.02613355016462182
3361.0,0.02613355016462182
3360.0,0.02617967564731627
3359.0,0.02613355016462182
3358.0,0.026087429580295085
3357.0,0.026041313893296225
3356.0,0.026041313893296225
3355.0,0.026087429580295085
3354.0,0.02613355016462182
3353.0,0.02613355016462182
3352.0,0.026087429580295085
3351.0,0.025995203102585407
3350.0,0.025995203102585407
3349.0,0.025995203102585407
3348.0,0.026087429580295085
3347.0,0.02613355016462182
3346.0,0.02617967564731627
3345.0,0.02617967564731627
3344.0,0.02617967564731627
3343.0,0.02617967564731627
3342.0,0.02613355016462182
3341.0,0.026041313893296225
3340.0,0.025949097207122573
3339.0,0.025856900097785074
3338.0,0.025810808881832736
3337.0,0.025810808881832736
3336.0,0.025856900097785074
3335.0,0.025995203102585407
3334.0,0.026087429580295085
3333.0,0.026087429580295085
3332.0,0.026041313893296225
3331.0,0.025995203102585407
3330.0,0.025995203102585407
3329.0,0.026041313893296225
3328.0,0.02613355016462182
3327.0,0.02613355016462182
3326.0,0.026087429580295085
3325.0,0.025995203102585407
3324.0,0.025949097207122573
3323.0,0.025995203102585407
3322.0,0.026087429580295085
3321.0,0.02617967564731627
3320.0,0.026225806029419818
3319.0,0.02613355016462182
3318.0,0.026041313893296225
3317.0,0.025902996205869
3316.0,0.025810808881832736
3315.0,0.025764722556973707
3314.0,0.025718641122169483
3313.0,0.02562649291857677
3312.0,0.02558042614771394
3311.0,0.02562649291857677
3310.0,0.025672564576383117
3309.0,0.025764722556973707
3308.0,0.025810808881832736
3307.0,0.025856900097785074
3306.0,0.025902996205869
3305.0,0.025949097207122573
3304.0,0.025995203102585407
3303.0,0.026041313893296225
3302.0,0.026087429580295085
3301.0,0.02613355016462182
3300.0,0.02613355016462182
3299.0,0.02617967564731627
3298.0,0.026225806029419818
3297.0,0.02617967564731627
3296.0,0.02613355016462182
3295.0,0.025995203102585407
3294.0,0.025902996205869
3293.0,0.025810808881832736
3292.0,0.025764722556973707
3291.0,0.025718641122169483
3290.0,0.025718641122169483
3289.0,0.025672564576383117
3288.0,0.025718641122169483
3287.0,0.025764722556973707
3286.0,0.025764722556973707
3285.0,0.025764722556973707
3284.0,0.025718641122169483
3283.0,0.025718641122169483
3282.0,0.025810808881832736
3281.0,0.025856900097785074
3280.0,0.025810808881832736
3279.0,0.025718641122169483
3278.0,0.02558042614771394
3277.0,0.02553436426275746
3276.0,0.025488307262671706
3275.0,0.025488307262671706
3274.0,0.02544225514642018
3273.0,0.02544225514642018
3272.0,0.02553436426275746
3271.0,0.025672564576383117
3270.0,0.025764722556973707
3269.0,0.025810808881832736
3268.0,0.025764722556973707
3267.0,0.025718641122169483
3266.0,0.025672564576383117
3265.0,0.02558042614771394
3264.0,0.02553436426275746
3263.0,0.025488307262671706
3262.0,0.02544225514642018
3261.0,0.02544225514642018
3260.0,0.025488307262671706
3259.0,0.02558042614771394
3258.0,0.025672564576383117
3257.0,0.025718641122169483
3256.0,0.025764722556973707
3255.0,0.025718641122169483
3254.0,0.02562649291857677
3253.0,0.02553436426275746
3252.0,0.025488307262671706
3251.0,0.02544225514642018
3250.0,0.025488307262671706
3249.0,0.02558042614771394
3248.0,0.02562649291857677
3247.0,0.02562649291857677
3246.0,0.02558042614771394
3245.0,0.02553436426275746
3244.0,0.02553436426275746
3243.0,0.025488307262671706
3242.0,0.02544225514642018
3241.0,0.02544225514642018
3240.0,0.02544225514642018
3239.0,0.025488307262671706
3238.0,0.02553436426275746
3237.0,0.025488307262671706
3236.0,0.02539620791296726
3235.0,0.025304128090317013
3234.0,0.025304128090317013
3233.0,0.025304128090317013
3232.0,0.025304128090317013
3231.0,0.025304128090317013
3230.0,0.025304128090317013
3229.0,0.025304128090317013
3228.0,0.025304128090317013
3227.0,0.025258095499050004
3226.0,0.02516604495145991
3225.0,0.02516604495145991
3224.0,0.02521206778644225
3223.0,0.025304128090317013
3222.0,0.025350165561278004
3221.0,0.025258095499050004
3220.0,0.02512002699306959
3219.0,0.025028005701930978
3218.0,0.024936003904763915
3217.0,0.024936003904763915
3216.0,0.025028005701930978
3215.0,0.02512002699306959
3214.0,0.025258095499050004
3213.0,0.025304128090317013
3212.0,0.025350165561278004
3211.0,0.025304128090317013
3210.0,0.025304128090317013
3209.0,0.025304128090317013
3208.0,0.025258095499050004
3207.0,0.02521206778644225
3206.0,0.02512002699306959
3205.0,0.025074013910237447
3204.0,0.025074013910237447
3203.0,0.025074013910237447
3202.0,0.02498200236711723
3201.0,0.024890010313838973
3200.0,0.02484402159331056
3199.0,0.02484402159331056
3198.0,0.024936003904763915
3197.0,0.02498200236711723
3196.0,0.02498200236711723
3195.0,0.02498200236711723
3194.0,0.02498200236711723
3193.0,0.024936003904763915
3192.0,0.024890010313838973
3191.0,0.02484402159331056
3190.0,0.02475205875931885
3189.0,0.024660115394541604
3188.0,0.024660115394541604
3187.0,0.024706084643793647
3186.0,0.024798037742147727
3185.0,0.02475205875931885
3184.0,0.024660115394541604
3183.0,0.02461415101053266
3182.0,0.024568191490736968
3181.0,0.024660115394541604
3180.0,0.024706084643793647
3179.0,0.02475205875931885
3178.0,0.024660115394541604
3177.0,0.024568191490736968
3176.0,0.024476287039668643
3175.0,0.024430342106337877
3174.0,0.024430342106337877
3173.0,0.024430342106337877
3172.0,0.024430342106337877
3171.0,0.024430342106337877
3170.0,0.024430342106337877
3169.0,0.024430342106337877
3168.0,0.024430342106337877
3167.0,0.024476287039668643
3166.0,0.024522236834125355
3165.0,0.02461415101053266
3164.0,0.024706084643793647
3163.0,0.024798037742147727
3162.0,0.024798037742147727
3161.0,0.024798037742147727
3160.0,0.024798037742147727
3159.0,0.024798037742147727
3158.0,0.02484402159331056
3157.0,0.02475205875931885
3156.0,0.02461415101053266
3155.0,0.024430342106337877
3154.0,0.024292536462819925
3153.0,0.024200690320592466
3152.0,0.024246610963712723
3151.0,0.024292536462819925
3150.0,0.024338466818941473
3149.0,0.024338466818941473
3148.0,0.024292536462819925
3147.0,0.024200690320592466
3146.0,0.024154774532432866
3145.0,0.024154774532432866
3144.0,0.024154774532432866
3143.0,0.024154774532432866
3142.0,0.024108863598207186
3141.0,0.02406295751688936
3140.0,0.024017056287453542
3139.0,0.023971159908874107
3138.0,0.024017056287453542
3137.0,0.024017056287453542
3136.0,0.024017056287453542
3135.0,0.023971159908874107
3134.0,0.023971159908874107
3133.0,0.023925268380126097
3132.0,0.023879381700184332
3131.0,0.023833499868024743
3130.0,0.023741750742954926
3129.0,0.023695883447997224
3128.0,0.02365002099672653
3127.0,0.02355831062115543
3126.0,0.02351246269481
3125.0,0.023466619608062178
3124.0,0.02342078135989012
3123.0,0.023374947949272418
3122.0,0.023329119375188556
3121.0,0.023329119375188556
3120.0,0.023329119375188556
3119.0,0.02342078135989012
3118.0,0.02351246269481
3117.0,0.023604163388120325
3116.0,0.023695883447997224
3115.0,0.023741750742954926
3114.0,0.023787622882622816
3113.0,0.023833499868024743
3112.0,0.023879381700184332
3111.0,0.024017056287453542
3110.0,0.024200690320592466
3109.0,0.02438440203310499
3108.0,0.02461415101053266
3107.0,0.024798037742147727
3106.0,0.024936003904763915
3105.0,0.025074013910237447
3104.0,0.02512002699306959
3103.0,0.02512002699306959
3102.0,0.02512002699306959
3101.0,0.025074013910237447
3100.0,0.025028005701930978
3099.0,0.02498200236711723
3098.0,0.024936003904763915
3097.0,0.02475205875931885
3096.0,0.024568191490736968
3095.0,0.024430342106337877
3094.0,0.02438440203310499
3093.0,0.024522236834125355
3092.0,0.02484402159331056
3091.0,0.025304128090317013
3090.0,0.025856900097785074
3089.0,0.026456531467510258
3088.0,0.027195677663422346
3087.0,0.02798240132598462
3086.0,0.028863370523193765
3085.0,0.02969962459782227
3084.0,0.030397735151460825
3083.0,0.030910397045078586
3082.0,0.03105031901865729
3081.0,0.030957032694186815
3080.0,0.03063068826647264
3079.0,0.030164906924202484
3078.0,0.029653123769906697
3077.0,0.029234840219232394
3076.0,0.028816959143838528
3075.0,0.02849221828874393
3074.0,0.02826040911222183
3073.0,0.02812138297373412
3072.0,0.02812138297373412
3071.0,0.028214062120885508
3070.0,0.028445846553939003
3069.0,0.028816959143838528
3068.0,0.029281296279810798
3067.0,0.029932203450862893
3066.0,0.0307239045110681
3065.0,0.031657169041054534
3064.0,0.03263926003405038
3063.0,0.03367050483612166
3062.0,0.03461012978487776
3061.0,0.035363296211498474
3060.0,0.03578752703018084
3059.0,0.03588185684851508
3058.0,0.03559892883726867
3057.0,0.03508070571335731
3056.0,0.03437503289075727
3055.0,0.03367050483612166
3054.0,0.0329671178412978
3053.0,0.03226486821611996
3052.0,0.03161045815293173
3051.0,0.031003673351687855
3050.0,0.030444315779156517
3049.0,0.029885677714903025
3048.0,0.02942069428514915
3047.0,0.02904906565457588
3046.0,0.028770552723758724
3045.0,0.028538594975413334
3044.0,0.02839947976994095
3043.0,0.028353117935693284
3042.0,0.02839947976994095
3041.0,0.02849221828874393
3040.0,0.02872415126189476
3039.0,0.029095501846216454
3038.0,0.029560137048236124
3037.0,0.030211462585061133
3036.0,0.03105031901865729
3035.0,0.032124554451966825
3034.0,0.033482823553208085
3033.0,0.03522197797762394
3032.0,0.037251946641359446
3031.0,0.03957679292217042
3030.0,0.04200982159316968
3029.0,0.044456557540257124
3028.0,0.04672366333269573
3027.0,0.048565334467987054
3026.0,0.04982994019179987
3025.0,0.05026854768429301
3024.0,0.04987865248862655
3023.0,0.04875964967565971
3022.0,0.04711073508906982
3021.0,0.04513062893352182
3020.0,0.04315950984076644
3019.0,0.04124505013091051
3018.0,0.03948165721929198
3017.0,0.03786753070176463
3016.0,0.03644826642590382
3015.0,0.03531618502395939
3014.0,0.03442204208947208
3013.0,0.03367050483612166
3012.0,0.033060836978886954
3011.0,0.03245202378113787
3010.0,0.03193753992355086
3009.0,0.03151705144606498
3008.0,0.03133029827960798
3007.0,0.03133029827960798
3006.0,0.03147035562516054
3005.0,0.031657169041054534
3004.0,0.03184406285002961
3003.0,0.031984286006358165
3002.0,0.032124554451966825
3001.0,0.03217132066984485
3000.0,0.03207779326948268
2999.0,0.03179733185715028
2998.0,0.03137697904301118
2997.0,0.030863766403287585
2996.0,0.030351159519274695
2995.0,0.029839156962686353
2994.0,0.029374223311705583
2993.0,0.029002634427514717
2992.0,0.028677754757187035
2991.0,0.02839947976994095
2990.0,0.02812138297373412
2989.0,0.027889771597169544
2988.0,0.027750864037404455
2987.0,0.027612000892527133
2986.0,0.02747318213414429
2985.0,0.02738066094037661
2984.0,0.02724191609646076
2983.0,0.027149444152769986
2982.0,0.027010773144651168
2981.0,0.02691835039863255
2980.0,0.026872146400301444
2979.0,0.02682594731702781
2978.0,0.02682594731702781
2977.0,0.026733563891471412
2976.0,0.026687379547098322
2975.0,0.02664120011360227
2974.0,0.026687379547098322
2973.0,0.026733563891471412
2972.0,0.02682594731702781
2971.0,0.02691835039863255
2970.0,0.027056991894431892
2969.0,0.027149444152769986
2968.0,0.02724191609646076
2967.0,0.02738066094037661
2966.0,0.02747318213414429
2965.0,0.027658283674251827
2964.0,0.027889771597169544
2963.0,0.02812138297373412
2962.0,0.028353117935693284
2961.0,0.02849221828874393
2960.0,0.02863136320857662
2959.0,0.028770552723758724
2958.0,0.029002634427514717
2957.0,0.029234840219232394
2956.0,0.029467170231675777
2955.0,0.029653123769906697
2954.0,0.029839156962686353
2953.0,0.030071810571884017
2952.0,0.030397735151460825
2951.0,0.030770520137356927
2950.0,0.031143625385307683
2949.0,0.031563752288295444
2948.0,0.032031037121307726
2947.0,0.03249882527715853
2946.0,0.03301397488206215
2945.0,0.03367050483612166
2944.0,0.03442204208947208
2943.0,0.03526907894637077
2942.0,0.036117771071222604
2941.0,0.037062711569998186
2940.0,0.03810452633214956
2939.0,0.03924390909822728
2938.0,0.040529297924893015
2937.0,0.04196198390166317
2936.0,0.04344740808260106
2935.0,0.04503426894157925
2934.0,0.04662694927330402
2933.0,0.04827402457540786
2932.0,0.04997609347667353
2931.0,0.051684859310652254
2930.0,0.05330216275425803
2929.0,0.0549255115212699
2928.0,0.056406567231630955
2927.0,0.05784307153250956
2926.0,0.05908526241971446
2925.0,0.060231224546650086
2924.0,0.06108018775522828
2923.0,0.06173051653708872
2922.0,0.062131203436140536
2921.0,0.062281556382736136
2920.0,0.062331685600995
2919.0,0.06218131530164395
2918.0,0.06198090252378963
2917.0,0.06163040254819374
2916.0,0.06118017497378969
2915.0,0.06068046892176193
2914.0,0.06003170944866376
2913.0,0.05933412752417122
2912.0,0.058538260652670315
2911.0,0.05769424710410598
2910.0,0.05685187064143715
2909.0,0.05601112492622806
2908.0,0.05522131887649295
2907.0,0.05448217792216048
2906.0,0.05374429280060267
2905.0,0.05300765925162776
2904.0,0.05222329153526162
2903.0,0.05148923116234294
2902.0,0.050707598587974356
2901.0,0.04997609347667353
2900.0,0.049245818406496555
2899.0,0.04851676924770687
2898.0,0.0478374257855374
2897.0,0.04711073508906982
2896.0,0.04643358574299339
2895.0,0.04580574818413763
2894.0,0.0451788169482068
2893.0,0.04460091336073302
2892.0,0.044167989767578186
2891.0,0.043735497301724546
2890.0,0.043303435105349175
2889.0,0.04287180232318688
2888.0,0.042392712939904875
2887.0,0.04196198390166317
2886.0,0.041627267521392675
2885.0,0.04129280891271536
2884.0,0.041006334969674096
2883.0,0.04062466342415694
2882.0,0.04019568349166214
2881.0,0.03981472339538916
2880.0,0.03952922246570112
2879.0,0.03924390909822728
2878.0,0.039006291057664066
2877.0,0.03876880295533702
2876.0,0.03862637240519895
2875.0,0.03848398855105106
2874.0,0.038341651362284734
2873.0,0.03824678581321739
2872.0,0.038057116858612794
2871.0,0.03796231343498735
2870.0,0.03786753070176463
2869.0,0.03786753070176463
2868.0,0.03786753070176463
2867.0,0.03786753070176463
2866.0,0.03791491948264003
2865.0,0.03800971255993524
2864.0,0.03829421599749461
2863.0,0.03857890593355173
2862.0,0.039006291057664066
2861.0,0.03952922246570112
2860.0,0.04019568349166214
2859.0,0.040958607678906356
2858.0,0.04172287445230238
2857.0,0.04253638427006878
2856.0,0.043303435105349175
2855.0,0.044071843103049346
2854.0,0.044793462458058375
2853.0,0.0454680573730859
2852.0,0.04599883231842972
2851.0,0.04643358574299339
2850.0,0.04662694927330402
2849.0,0.04657860031896477
2848.0,0.04633693625290869
2847.0,0.04595055323640551
2846.0,0.0454680573730859
2845.0,0.04488976902944808
2844.0,0.04426415772233416
2843.0,0.04359142880416744
2842.0,0.04287180232318688
2841.0,0.042057664554595586
2840.0,0.041197296600497646
2839.0,0.040338629726504704
2838.0,0.03943409718180235
2837.0,0.038531444649213764
2836.0,0.03777276864991497
2835.0,0.037062711569998186
2834.0,0.036542739883292485
2833.0,0.0360705779734416
2832.0,0.035646070707806565
2831.0,0.03531618502395939
2830.0,0.03503362516890207
2829.0,0.03484535401307465
2828.0,0.03465716443937783
2827.0,0.034469056377139484
2826.0,0.03432802877989327
2825.0,0.03414006319292828
2824.0,0.033952178923546183
2823.0,0.03376437590141812
2822.0,0.03357665405630694
2821.0,0.03343591590268957
2820.0,0.0332483359486222
2819.0,0.033060836978886954
2818.0,0.032920265855503006
2817.0,0.03282657704446046
2816.0,0.03273290844021437
2815.0,0.03273290844021437
2814.0,0.03277974021703267
2813.0,0.03273290844021437
2812.0,0.03263926003405038
2811.0,0.03249882527715853
2810.0,0.03249882527715853
2809.0,0.03249882527715853
2808.0,0.032545631817259224
2807.0,0.032545631817259224
2806.0,0.03249882527715853
2805.0,0.03235843591698884
2804.0,0.032218091924200776
2803.0,0.032124554451966825
2802.0,0.032031037121307726
2801.0,0.031984286006358165
2800.0,0.03189079887180224
2799.0,0.03184406285002961
2798.0,0.03179733185715028
2797.0,0.03179733185715028
2796.0,0.03184406285002961
2795.0,0.03184406285002961
2794.0,0.03184406285002961
2793.0,0.03179733185715028
2792.0,0.03175060589208267
2791.0,0.031657169041054534
2790.0,0.03161045815293173
2789.0,0.03151705144606498
2788.0,0.03142366482450232
2787.0,0.03128362253321426
2786.0,0.031236951802751545
2785.0,0.031190286087141805
2784.0,0.031143625385307683
2783.0,0.031143625385307683
2782.0,0.031190286087141805
2781.0,0.031190286087141805
2780.0,0.031143625385307683
2779.0,0.031096969696171817
2778.0,0.031096969696171817
2777.0,0.031096969696171817
2776.0,0.031143625385307683
2775.0,0.031143625385307683
2774.0,0.031190286087141805
2773.0,0.031143625385307683
2772.0,0.03105031901865729
2771.0,0.030957032694186815
2770.0,0.030910397045078586
2769.0,0.030863766403287585
2768.0,0.030863766403287585
2767.0,0.030863766403287585
2766.0,0.030863766403287585
2765.0,0.03081714076773867
2764.0,0.030770520137356927
2763.0,0.0307239045110681
2762.0,0.03063068826647264
2761.0,0.030537492025363155
2760.0,0.030490901403433135
2759.0,0.030444315779156517
2758.0,0.030490901403433135
2757.0,0.030490901403433135
2756.0,0.030490901403433135
2755.0,0.030444315779156517
2754.0,0.030397735151460825
2753.0,0.030397735151460825
2752.0,0.030351159519274695
2751.0,0.03030458888152676
2750.0,0.03025802323714588
2749.0,0.03025802323714588
2748.0,0.03025802323714588
2747.0,0.030351159519274695
2746.0,0.030444315779156517
2745.0,0.030444315779156517
2744.0,0.030397735151460825
2743.0,0.030351159519274695
2742.0,0.030351159519274695
2741.0,0.03030458888152676
2740.0,0.03030458888152676
2739.0,0.03025802323714588
2738.0,0.03025802323714588
2737.0,0.030211462585061133
2736.0,0.030211462585061133
2735.0,0.030211462585061133
2734.0,0.030164906924202484
2733.0,0.030071810571884017
2732.0,0.029978734171634214
2731.0,0.029932203450862893
2730.0,0.029978734171634214
2729.0,0.030071810571884017
2728.0,0.030164906924202484
2727.0,0.030211462585061133
2726.0,0.03025802323714588
2725.0,0.03025802323714588
2724.0,0.030211462585061133
2723.0,0.030164906924202484
2722.0,0.030164906924202484
2721.0,0.030164906924202484
2720.0,0.030118356253500123
2719.0,0.030071810571884017
2718.0,0.03002526987828502
2717.0,0.03002526987828502
2716.0,0.03002526987828502
2715.0,0.030071810571884017
2714.0,0.030071810571884017
2713.0,0.030071810571884017
2712.0,0.029978734171634214
2711.0,0.029885677714903025
2710.0,0.029839156962686353
2709.0,0.029885677714903025
2708.0,0.029932203450862893
2707.0,0.029978734171634214
2706.0,0.03002526987828502
2705.0,0.03002526987828502
2704.0,0.030071810571884017
2703.0,0.030071810571884017
2702.0,0.03002526987828502
2701.0,0.029932203450862893
2700.0,0.029839156962686353
2699.0,0.029792641193145286
2698.0,0.029792641193145286
2697.0,0.029792641193145286
2696.0,0.029885677714903025
2695.0,0.029978734171634214
2694.0,0.03002526987828502
2693.0,0.03002526987828502
2692.0,0.03002526987828502
2691.0,0.03002526987828502
2690.0,0.029978734171634214
2689.0,0.029978734171634214
2688.0,0.029932203450862893
2687.0,0.029885677714903025
2686.0,0.029885677714903025
2685.0,0.029839156962686353
2684.0,0.029792641193145286
2683.0,0.029746130405213123
2682.0,0.02969962459782227
2681.0,0.029653123769906697
2680.0,0.02960662792039992
2679.0,0.029560137048236124
2678.0,0.02960662792039992
2677.0,0.02969962459782227
2676.0,0.029746130405213123
2675.0,0.029839156962686353
2674.0,0.029885677714903025
2673.0,0.029885677714903025
2672.0,0.029839156962686353
2671.0,0.029746130405213123
2670.0,0.02969962459782227
2669.0,0.02969962459782227
2668.0,0.02969962459782227
2667.0,0.029746130405213123
2666.0,0.02969962459782227
2665.0,0.02969962459782227
2664.0,0.029653123769906697
2663.0,0.029653123769906697
2662.0,0.029653123769906697
2661.0,0.029653123769906697
2660.0,0.02969962459782227
2659.0,0.029653123769906697
2658.0,0.029560137048236124
2657.0,0.029513651152349718
2656.0,0.029467170231675777
2655.0,0.02942069428514915
2654.0,0.02942069428514915
2653.0,0.029467170231675777
2652.0,0.029513651152349718
2651.0,0.029513651152349718
2650.0,0.029467170231675777
2649.0,0.02942069428514915
2648.0,0.02942069428514915
2647.0,0.02942069428514915
2646.0,0.029467170231675777
2645.0,0.029513651152349718
2644.0,0.029513651152349718
2643.0,0.029513651152349718
2642.0,0.029513651152349718
2641.0,0.029513651152349718
2640.0,0.029560137048236124
2639.0,0.02960662792039992
2638.0,0.02960662792039992
2637.0,0.029513651152349718
2636.0,0.029374223311705583
2635.0,0.02932775731028059
2634.0,0.02932775731028059
2633.0,0.02942069428514915
2632.0,0.029467170231675777
2631.0,0.029467170231675777
2630.0,0.02942069428514915
2629.0,0.02942069428514915
2628.0,0.029374223311705583
2627.0,0.029374223311705583
2626.0,0.02942069428514915
2625.0,0.02942069428514915
2624.0,0.029374223311705583
2623.0,0.02932775731028059
2622.0,0.029281296279810798
2621.0,0.029234840219232394
2620.0,0.029188389127482228
2619.0,0.029188389127482228
2618.0,0.029188389127482228
2617.0,0.029188389127482228
2616.0,0.029188389127482228
2615.0,0.029188389127482228
2614.0,0.029234840219232394
2613.0,0.029234840219232394
2612.0,0.029234840219232394
2611.0,0.029234840219232394
2610.0,0.029281296279810798
2609.0,0.02932775731028059
2608.0,0.02942069428514915
2607.0,0.02942069428514915
2606.0,0.029467170231675777
2605.0,0.029467170231675777
2604.0,0.029467170231675777
2603.0,0.029467170231675777
2602.0,0.029467170231675777
2601.0,0.029513651152349718
2600.0,0.029513651152349718
2599.0,0.029513651152349718
2598.0,0.02942069428514915
2597.0,0.02932775731028059
2596.0,0.029281296279810798
2595.0,0.029188389127482228
2594.0,0.029141943003497595
2593.0,0.029095501846216454
2592.0,0.029095501846216454
2591.0,0.02904906565457588
2590.0,0.029002634427514717
2589.0,0.02904906565457588
2588.0,0.02904906565457588
2587.0,0.029141943003497595
2586.0,0.029188389127482228
2585.0,0.029188389127482228
2584.0,0.029141943003497595
2583.0,0.02904906565457588
2582.0,0.028956208163971375
2581.0,0.028956208163971375
2580.0,0.02904906565457588
2579.0,0.029141943003497595
2578.0,0.029188389127482228
2577.0,0.029188389127482228
2576.0,0.029141943003497595
2575.0,0.029141943003497595
2574.0,0.029095501846216454
2573.0,0.02904906565457588
2572.0,0.029002634427514717
2571.0,0.029002634427514717
2570.0,0.029002634427514717
2569.0,0.02904906565457588
2568.0,0.029002634427514717
2567.0,0.029002634427514717
2566.0,0.028956208163971375
2565.0,0.02890978686288448
2564.0,0.02890978686288448
2563.0,0.028956208163971375
2562.0,0.029002634427514717
2561.0,0.02904906565457588
2560.0,0.029095501846216454
2559.0,0.029095501846216454
2558.0,0.02904906565457588
2557.0,0.029002634427514717
2556.0,0.028956208163971375
2555.0,0.028956208163971375
2554.0,0.02890978686288448
2553.0,0.02890978686288448
2552.0,0.028863370523193765
2551.0,0.028816959143838528
2550.0,0.028770552723758724
2549.0,0.028770552723758724
2548.0,0.028770552723758724
2547.0,0.028770552723758724
2546.0,0.028770552723758724
2545.0,0.028816959143838528
2544.0,0.028816959143838528
2543.0,0.028770552723758724
2542.0,0.02872415126189476
2541.0,0.02872415126189476
2540.0,0.028770552723758724
2539.0,0.028863370523193765
2538.0,0.028956208163971375
2537.0,0.02904906565457588
2536.0,0.029095501846216454
2535.0,0.02904906565457588
2534.0,0.029002634427514717
2533.0,0.028956208163971375
2532.0,0.028956208163971375
2531.0,0.028863370523193765
2530.0,0.028770552723758724
2529.0,0.02872415126189476
2528.0,0.02872415126189476
2527.0,0.02872415126189476
2526.0,0.028677754757187035
2525.0,0.028677754757187035
2524.0,0.02872415126189476
2523.0,0.028770552723758724
2522.0,0.028863370523193765
2521.0,0.028863370523193765
2520.0,0.028863370523193765
2519.0,0.02890978686288448
2518.0,0.028956208163971375
2517.0,0.028956208163971375
2516.0,0.02890978686288448
2515.0,0.028816959143838528
2514.0,0.02872415126189476
2513.0,0.02872415126189476
2512.0,0.02872415126189476
2511.0,0.02872415126189476
2510.0,0.02872415126189476
2509.0,0.028770552723758724
2508.0,0.028770552723758724
2507.0,0.028816959143838528
2506.0,0.028770552723758724
2505.0,0.028770552723758724
2504.0,0.028770552723758724
2503.0,0.028770552723758724
2502.0,0.028770552723758724
2501.0,0.028770552723758724
2500.0,0.028770552723758724
2499.0,0.02872415126189476
2498.0,0.02872415126189476
2497.0,0.02872415126189476
2496.0,0.028770552723758724
2495.0,0.028816959143838528
2494.0,0.028816959143838528
2493.0,0.028770552723758724
2492.0,0.02872415126189476
2491.0,0.028677754757187035
2490.0,0.02863136320857662
2489.0,0.028677754757187035
2488.0,0.028677754757187035
2487.0,0.028677754757187035
2486.0,0.02863136320857662
2485.0,0.02858497661500481
2484.0,0.02849221828874393
2483.0,0.028445846553939003
2482.0,0.028445846553939003
2481.0,0.02849221828874393
2480.0,0.028538594975413334
2479.0,0.02858497661500481
2478.0,0.02863136320857662
2477.0,0.028677754757187035
2476.0,0.02872415126189476
2475.0,0.028770552723758724
2474.0,0.02872415126189476
2473.0,0.028677754757187035
2472.0,0.02858497661500481
2471.0,0.02849221828874393
2470.0,0.028445846553939003
2469.0,0.028445846553939003
2468.0,0.02839947976994095
2467.0,0.028353117935693284
2466.0,0.028353117935693284
2465.0,0.02839947976994095
2464.0,0.028445846553939003
2463.0,0.028538594975413334
2462.0,0.02858497661500481
2461.0,0.028538594975413334
2460.0,0.02849221828874393
2459.0,0.028445846553939003
2458.0,0.028445846553939003
2457.0,0.02849221828874393
2456.0,0.02849221828874393
2455.0,0.02849221828874393
2454.0,0.02849221828874393
2453.0,0.02849221828874393
2452.0,0.02849221828874393
2451.0,0.02849221828874393
2450.0,0.02849221828874393
2449.0,0.02849221828874393
2448.0,0.028445846553939003
2447.0,0.02839947976994095
2446.0,0.028353117935693284
2445.0,0.028353117935693284
2444.0,0.028306761050139073
2443.0,0.028306761050139073
2442.0,0.02826040911222183
2441.0,0.028306761050139073
2440.0,0.028353117935693284
2439.0,0.028445846553939003
2438.0,0.02849221828874393
2437.0,0.02849221828874393
2436.0,0.028445846553939003
2435.0,0.02839947976994095
2434.0,0.028353117935693284
2433.0,0.028306761050139073
2432.0,0.02826040911222183
2431.0,0.02826040911222183
2430.0,0.02826040911222183
2429.0,0.02826040911222183
2428.0,0.02826040911222183
2427.0,0.02826040911222183
2426.0,0.028214062120885508
2425.0,0.028214062120885508
2424.0,0.02826040911222183
2423.0,0.02826040911222183
2422.0,0.028306761050139073
2421.0,0.028306761050139073
2420.0,0.028306761050139073
2419.0,0.02826040911222183
2418.0,0.028214062120885508
2417.0,0.028167720075074953
2416.0,0.028167720075074953
2415.0,0.02826040911222183
2414.0,0.028353117935693284
2413.0,0.02839947976994095
2412.0,0.02839947976994095
2411.0,0.02839947976994095
2410.0,0.02839947976994095
2409.0,0.028353117935693284
2408.0,0.028353117935693284
2407.0,0.028306761050139073
2406.0,0.028353117935693284
2405.0,0.02839947976994095
2404.0,0.02839947976994095
2403.0,0.02839947976994095
2402.0,0.028353117935693284
2401.0,0.02826040911222183
2400.0,0.028214062120885508
2399.0,0.028167720075074953
2398.0,0.02826040911222183
2397.0,0.028353117935693284
2396.0,0.02839947976994095
2395.0,0.028445846553939003
2394.0,0.02839947976994095
2393.0,0.02839947976994095
2392.0,0.028353117935693284
2391.0,0.028353117935693284
2390.0,0.028353117935693284
2389.0,0.028306761050139073
2388.0,0.028353117935693284
2387.0,0.028353117935693284
2386.0,0.02839947976994095
2385.0,0.028353117935693284
2384.0,0.02826040911222183
2383.0,0.028075050815808744
2382.0,0.027889771597169544
2381.0,0.0277045713888604
2380.0,0.02751945012352408
2379.0,0.027195677663422346
2378.0,0.026872146400301444
2377.0,0.026595025589939425
2376.0,0.026456531467510258
2375.0,0.02636422658259252
2374.0,0.026318081496016443
2373.0,0.026271941311972746
2372.0,0.02636422658259252
2371.0,0.02664120011360227
2370.0,0.027010773144651168
2369.0,0.027288159452933503
2368.0,0.027426919073445077
2367.0,0.027426919073445077
2366.0,0.027288159452933503
2365.0,0.02710321556345563
2364.0,0.02696455931306696
2363.0,0.02724191609646076
2362.0,0.027889771597169544
2361.0,0.02863136320857662
2360.0,0.028956208163971375
2359.0,0.02858497661500481
2358.0,0.027612000892527133
2357.0,0.026456531467510258
2356.0,0.025488307262671706
2355.0,0.02498200236711723
2354.0,0.025028005701930978
2353.0,0.02539620791296726
2352.0,0.025718641122169483
2351.0,0.026087429580295085
2350.0,0.026733563891471412
2349.0,0.02738066094037661
2348.0,0.027565723042634938
2347.0,0.027195677663422346
2346.0,0.026733563891471412
2345.0,0.026687379547098322
2344.0,0.02691835039863255
2343.0,0.027195677663422346
2342.0,0.027056991894431892
2341.0,0.026595025589939425
2340.0,0.026271941311972746
2339.0,0.026318081496016443
2338.0,0.026595025589939425
2337.0,0.02682594731702781
2336.0,0.02682594731702781
2335.0,0.026733563891471412
2334.0,0.026687379547098322
2333.0,0.02664120011360227
2332.0,0.02654885597506529
2331.0,0.026456531467510258
2330.0,0.02654885597506529
2329.0,0.026595025589939425
2328.0,0.026733563891471412
2327.0,0.02682594731702781
2326.0,0.02696455931306696
2325.0,0.027195677663422346
2324.0,0.02738066094037661
2323.0,0.027612000892527133
2322.0,0.027658283674251827
2321.0,0.027612000892527133
2320.0,0.02747318213414429
2319.0,0.02738066094037661
2318.0,0.027426919073445077
2317.0,0.02747318213414429
2316.0,0.027612000892527133
2315.0,0.027658283674251827
2314.0,0.0277045713888604
2313.0,0.0277045713888604
2312.0,0.0277045713888604
2311.0,0.0277045713888604
2310.0,0.027658283674251827
2309.0,0.027658283674251827
2308.0,0.027658283674251827
2307.0,0.027750864037404455
2306.0,0.027843464140506313
2305.0,0.027936083991977778
2304.0,0.028028723600243666
2303.0,0.02812138297373412
2302.0,0.028167720075074953
2301.0,0.028214062120885508
2300.0,0.02826040911222183
2299.0,0.028306761050139073
2298.0,0.028353117935693284
2297.0,0.028353117935693284
2296.0,0.028353117935693284
2295.0,0.028306761050139073
2294.0,0.02826040911222183
2293.0,0.028214062120885508
2292.0,0.028167720075074953
2291.0,0.02812138297373412
2290.0,0.028075050815808744
2289.0,0.028028723600243666
2288.0,0.028028723600243666
2287.0,0.028075050815808744
2286.0,0.02812138297373412
2285.0,0.028214062120885508
2284.0,0.02826040911222183
2283.0,0.028306761050139073
2282.0,0.028353117935693284
2281.0,0.028353117935693284
2280.0,0.028353117935693284
2279.0,0.02826040911222183
2278.0,0.02826040911222183
2277.0,0.028214062120885508
2276.0,0.028214062120885508
2275.0,0.028214062120885508
2274.0,0.028167720075074953
2273.0,0.028167720075074953
2272.0,0.02812138297373412
2271.0,0.02812138297373412
2270.0,0.028075050815808744
2269.0,0.028028723600243666
2268.0,0.028028723600243666
2267.0,0.02798240132598462
2266.0,0.02798240132598462
2265.0,0.028028723600243666
2264.0,0.02812138297373412
2263.0,0.028214062120885508
2262.0,0.028306761050139073
2261.0,0.028306761050139073
2260.0,0.02826040911222183
2259.0,0.028167720075074953
2258.0,0.02812138297373412
2257.0,0.028075050815808744
2256.0,0.02812138297373412
2255.0,0.028214062120885508
2254.0,0.028214062120885508
2253.0,0.028214062120885508
2252.0,0.028214062120885508
2251.0,0.028214062120885508
2250.0,0.02826040911222183
2249.0,0.02826040911222183
2248.0,0.028214062120885508
2247.0,0.028167720075074953
2246.0,0.02812138297373412
2245.0,0.028075050815808744
2244.0,0.02812138297373412
2243.0,0.028167720075074953
2242.0,0.028214062120885508
2241.0,0.028306761050139073
2240.0,0.028306761050139073
2239.0,0.028306761050139073
2238.0,0.02826040911222183
2237.0,0.02826040911222183
2236.0,0.02826040911222183
2235.0,0.028306761050139073
2234.0,0.028353117935693284
2233.0,0.028306761050139073
2232.0,0.02826040911222183
2231.0,0.028214062120885508
2230.0,0.028167720075074953
2229.0,0.028167720075074953
2228.0,0.02812138297373412
2227.0,0.028075050815808744
2226.0,0.028075050815808744
2225.0,0.028075050815808744
2224.0,0.028075050815808744
2223.0,0.02812138297373412
2222.0,0.02812138297373412
2221.0,0.028167720075074953
2220.0,0.028167720075074953
2219.0,0.028167720075074953
2218.0,0.028214062120885508
2217.0,0.02826040911222183
2216.0,0.028306761050139073
2215.0,0.028306761050139073
2214.0,0.028306761050139073
2213.0,0.028306761050139073
2212.0,0.028306761050139073
2211.0,0.02826040911222183
2210.0,0.028214062120885508
2209.0,0.028167720075074953
2208.0,0.028075050815808744
2207.0,0.028028723600243666
2206.0,0.028028723600243666
2205.0,0.028075050815808744
2204.0,0.028028723600243666
2203.0,0.028028723600243666
2202.0,0.02798240132598462
2201.0,0.02798240132598462
2200.0,0.028028723600243666
2199.0,0.028028723600243666
2198.0,0.028075050815808744
2197.0,0.02812138297373412
2196.0,0.028167720075074953
2195.0,0.02812138297373412
2194.0,0.028028723600243666
2193.0,0.027936083991977778
2192.0,0.027936083991977778
2191.0,0.027936083991977778
2190.0,0.02798240132598462
2189.0,0.028028723600243666
2188.0,0.028028723600243666
2187.0,0.028028723600243666
2186.0,0.028028723600243666
2185.0,0.028075050815808744
2184.0,0.02812138297373412
2183.0,0.028167720075074953
2182.0,0.028214062120885508
2181.0,0.028214062120885508
2180.0,0.028167720075074953
2179.0,0.028167720075074953
2178.0,0.028167720075074953
2177.0,0.028167720075074953
2176.0,0.02812138297373412
2175.0,0.028075050815808744
2174.0,0.028075050815808744
2173.0,0.02812138297373412
2172.0,0.02812138297373412
2171.0,0.02812138297373412
2170.0,0.028075050815808744
2169.0,0.028028723600243666
2168.0,0.02798240132598462
2167.0,0.02798240132598462
2166.0,0.028028723600243666
2165.0,0.028075050815808744
2164.0,0.028075050815808744
2163.0,0.028075050815808744
2162.0,0.028028723600243666
2161.0,0.02798240132598462
2160.0,0.027936083991977778
2159.0,0.027936083991977778
2158.0,0.027889771597169544
2157.0,0.027889771597169544
2156.0,0.027889771597169544
2155.0,0.027936083991977778
2154.0,0.02798240132598462
2153.0,0.028028723600243666
2152.0,0.02798240132598462
2151.0,0.02798240132598462
2150.0,0.027936083991977778
2149.0,0.027889771597169544
2148.0,0.027889771597169544
2147.0,0.027889771597169544
2146.0,0.027843464140506313
2145.0,0.027750864037404455
2144.0,0.027750864037404455
2143.0,0.027750864037404455
2142.0,0.027797161620935595
2141.0,0.027797161620935595
2140.0,0.027797161620935595
2139.0,0.027797161620935595
2138.0,0.027843464140506313
2137.0,0.027889771597169544
2136.0,0.027889771597169544
2135.0,0.027843464140506313
2134.0,0.027797161620935595
2133.0,0.027750864037404455
2132.0,0.0277045713888604
2131.0,0.027658283674251827
2130.0,0.027612000892527133
2129.0,0.027565723042634938
2128.0,0.027565723042634938
2127.0,0.027565723042634938
2126.0,0.027565723042634938
2125.0,0.027565723042634938
2124.0,0.027565723042634938
2123.0,0.027565723042634938
2122.0,0.027612000892527133
2121.0,0.027612000892527133
2120.0,0.027612000892527133
2119.0,0.027658283674251827
2118.0,0.027658283674251827
2117.0,0.0277045713888604
2116.0,0.0277045713888604
2115.0,0.0277045713888604
2114.0,0.0277045713888604
2113.0,0.0277045713888604
2112.0,0.027750864037404455
2111.0,0.0277045713888604
2110.0,0.0277045713888604
2109.0,0.0277045713888604
2108.0,0.0277045713888604
2107.0,0.027750864037404455
2106.0,0.027750864037404455
2105.0,0.027750864037404455
2104.0,0.0277045713888604
2103.0,0.027658283674251827
2102.0,0.027612000892527133
2101.0,0.027565723042634938
2100.0,0.027612000892527133
2099.0,0.027612000892527133
2098.0,0.027658283674251827
2097.0,0.0277045713888604
2096.0,0.0277045713888604
2095.0,0.0277045713888604
2094.0,0.027658283674251827
2093.0,0.027658283674251827
2092.0,0.027658283674251827
2091.0,0.027658283674251827
2090.0,0.0277045713888604
2089.0,0.0277045713888604
2088.0,0.027612000892527133
2087.0,0.027565723042634938
2086.0,0.02747318213414429
2085.0,0.027426919073445077
2084.0,0.027426919073445077
2083.0,0.02747318213414429
2082.0,0.02751945012352408
2081.0,0.02751945012352408
2080.0,0.027565723042634938
2079.0,0.02751945012352408
2078.0,0.02751945012352408
2077.0,0.02751945012352408
2076.0,0.02751945012352408
2075.0,0.02747318213414429
2074.0,0.027426919073445077
2073.0,0.027426919073445077
2072.0,0.027426919073445077
2071.0,0.02738066094037661
2070.0,0.02738066094037661
2069.0,0.02738066094037661
2068.0,0.02738066094037661
2067.0,0.027426919073445077
2066.0,0.02751945012352408
2065.0,0.027565723042634938
2064.0,0.027612000892527133
2063.0,0.027612000892527133
2062.0,0.027565723042634938
2061.0,0.02747318213414429
2060.0,0.02747318213414429
2059.0,0.02747318213414429
2058.0,0.02747318213414429
2057.0,0.02751945012352408
2056.0,0.02747318213414429
2055.0,0.02747318213414429
2054.0,0.02747318213414429
2053.0,0.02751945012352408
2052.0,0.02751945012352408
2051.0,0.02751945012352408
2050.0,0.02751945012352408
2049.0,0.02747318213414429
2048.0,0.027426919073445077
2047.0,0.02738066094037661
2046.0,0.02738066094037661
2045.0,0.02738066094037661
2044.0,0.027426919073445077
2043.0,0.02747318213414429
2042.0,0.02751945012352408
2041.0,0.027565723042634938
2040.0,0.02751945012352408
2039.0,0.02747318213414429
2038.0,0.02738066094037661
2037.0,0.027334407733889066
2036.0,0.027334407733889066
2035.0,0.02738066094037661
2034.0,0.027426919073445077
2033.0,0.02751945012352408
2032.0,0.027565723042634938
2031.0,0.027565723042634938
2030.0,0.02751945012352408
2029.0,0.027426919073445077
2028.0,0.02738066094037661
2027.0,0.027334407733889066
2026.0,0.027334407733889066
2025.0,0.027334407733889066
2024.0,0.027334407733889066
2023.0,0.02738066094037661
2022.0,0.027334407733889066
2021.0,0.027288159452933503
2020.0,0.027195677663422346
2019.0,0.02710321556345563
2018.0,0.027010773144651168
2017.0,0.027010773144651168
2016.0,0.027056991894431892
2015.0,0.027149444152769986
2014.0,0.027195677663422346
2013.0,0.027195677663422346
2012.0,0.027195677663422346
2011.0,0.027149444152769986
2010.0,0.027149444152769986
2009.0,0.02710321556345563
2008.0,0.027056991894431892
2007.0,0.027056991894431892
2006.0,0.027056991894431892
2005.0,0.02710321556345563
2004.0,0.02710321556345563
2003.0,0.027149444152769986
2002.0,0.027149444152769986
2001.0,0.027195677663422346
2000.0,0.027149444152769986
1999.0,0.02710321556345563
1998.0,0.02710321556345563
1997.0,0.027056991894431892
1996.0,0.027056991894431892
1995.0,0.027056991894431892
1994.0,0.027056991894431892
1993.0,0.02710321556345563
1992.0,0.027149444152769986
1991.0,0.02724191609646076
1990.0,0.027288159452933503
1989.0,0.027334407733889066
1988.0,0.027334407733889066
1987.0,0.027334407733889066
1986.0,0.02724191609646076
1985.0,0.027149444152769986
1984.0,0.027056991894431892
1983.0,0.027010773144651168
1982.0,0.02696455931306696
1981.0,0.02696455931306696
1980.0,0.02691835039863255
1979.0,0.02691835039863255
1978.0,0.02696455931306696
1977.0,0.027056991894431892
1976.0,0.027149444152769986
1975.0,0.02724191609646076
1974.0,0.027288159452933503
1973.0,0.027288159452933503
1972.0,0.027288159452933503
1971.0,0.02724191609646076
1970.0,0.02724191609646076
1969.0,0.02724191609646076
1968.0,0.02738066094037661
1967.0,0.027565723042634938
1966.0,0.027750864037404455
1965.0,0.027936083991977778
1964.0,0.028075050815808744
1963.0,0.02826040911222183
1962.0,0.028445846553939003
1961.0,0.02858497661500481
1960.0,0.02872415126189476
1959.0,0.028863370523193765
1958.0,0.029002634427514717
1957.0,0.029095501846216454
1956.0,0.029141943003497595
1955.0,0.029234840219232394
1954.0,0.02932775731028059
1953.0,0.02942069428514915
1952.0,0.029513651152349718
1951.0,0.029653123769906697
1950.0,0.029746130405213123
1949.0,0.029932203450862893
1948.0,0.030118356253500123
1947.0,0.030351159519274695
1946.0,0.03058408764601861
1945.0,0.03081714076773867
1944.0,0.031003673351687855
1943.0,0.031143625385307683
1942.0,0.031190286087141805
1941.0,0.031143625385307683
1940.0,0.03105031901865729
1939.0,0.030910397045078586
1938.0,0.03067729388779794
1937.0,0.030444315779156517
1936.0,0.030164906924202484
1935.0,0.029978734171634214
1934.0,0.029746130405213123
1933.0,0.029513651152349718
1932.0,0.029281296279810798
1931.0,0.02904906565457588
1930.0,0.028816959143838528
1929.0,0.028677754757187035
1928.0,0.028538594975413334
1927.0,0.028445846553939003
1926.0,0.028353117935693284
1925.0,0.02826040911222183
1924.0,0.028167720075074953
1923.0,0.028075050815808744
1922.0,0.027936083991977778
1921.0,0.027843464140506313
1920.0,0.027797161620935595
1919.0,0.027750864037404455
1918.0,0.0277045713888604
1917.0,0.027658283674251827
1916.0,0.027612000892527133
1915.0,0.027565723042634938
1914.0,0.02751945012352408
1913.0,0.027426919073445077
1912.0,0.027334407733889066
1911.0,0.027195677663422346
1910.0,0.027149444152769986
1909.0,0.02710321556345563
1908.0,0.027056991894431892
1907.0,0.02710321556345563
1906.0,0.02710321556345563
1905.0,0.027149444152769986
1904.0,0.027195677663422346
1903.0,0.027149444152769986
1902.0,0.027195677663422346
1901.0,0.02724191609646076
1900.0,0.02724191609646076
1899.0,0.027288159452933503
1898.0,0.027334407733889066
1897.0,0.02747318213414429
1896.0,0.027565723042634938
1895.0,0.027658283674251827
1894.0,0.027750864037404455
1893.0,0.027843464140506313
1892.0,0.027936083991977778
1891.0,0.028075050815808744
1890.0,0.02826040911222183
1889.0,0.028445846553939003
1888.0,0.02858497661500481
1887.0,0.02872415126189476
1886.0,0.028863370523193765
1885.0,0.029002634427514717
1884.0,0.029095501846216454
1883.0,0.029141943003497595
1882.0,0.029234840219232394
1881.0,0.02932775731028059
1880.0,0.02932775731028059
1879.0,0.029374223311705583
1878.0,0.02942069428514915
1877.0,0.029513651152349718
1876.0,0.029560137048236124
1875.0,0.02960662792039992
1874.0,0.029560137048236124
1873.0,0.029560137048236124
1872.0,0.029560137048236124
1871.0,0.02960662792039992
1870.0,0.029746130405213123
1869.0,0.029932203450862893
1868.0,0.03002526987828502
1867.0,0.029978734171634214
1866.0,0.029885677714903025
1865.0,0.029792641193145286
1864.0,0.02960662792039992
1863.0,0.02942069428514915
1862.0,0.029234840219232394
1861.0,0.02904906565457588
1860.0,0.028863370523193765
1859.0,0.02872415126189476
1858.0,0.02858497661500481
1857.0,0.028445846553939003
1856.0,0.028306761050139073
1855.0,0.028167720075074953
1854.0,0.02798240132598462
1853.0,0.027843464140506313
1852.0,0.027658283674251827
1851.0,0.02751945012352408
1850.0,0.02738066094037661
1849.0,0.027288159452933503
1848.0,0.02724191609646076
1847.0,0.02724191609646076
1846.0,0.027334407733889066
1845.0,0.02738066094037661
1844.0,0.02738066094037661
1843.0,0.02724191609646076
1842.0,0.027149444152769986
1841.0,0.027056991894431892
1840.0,0.02696455931306696
1839.0,0.026872146400301444
1838.0,0.02682594731702781
1837.0,0.026872146400301444
1836.0,0.02691835039863255
1835.0,0.02691835039863255
1834.0,0.02691835039863255
1833.0,0.02691835039863255
1832.0,0.02691835039863255
1831.0,0.02691835039863255
1830.0,0.02691835039863255
1829.0,0.026872146400301444
1828.0,0.02691835039863255
1827.0,0.027056991894431892
1826.0,0.027195677663422346
1825.0,0.027288159452933503
1824.0,0.027334407733889066
1823.0,0.02738066094037661
1822.0,0.027426919073445077
1821.0,0.02747318213414429
1820.0,0.02751945012352408
1819.0,0.027565723042634938
1818.0,0.027750864037404455
1817.0,0.027936083991977778
1816.0,0.028075050815808744
1815.0,0.028167720075074953
1814.0,0.028306761050139073
1813.0,0.028445846553939003
1812.0,0.02863136320857662
1811.0,0.02872415126189476
1810.0,0.028816959143838528
1809.0,0.028956208163971375
1808.0,0.029095501846216454
1807.0,0.029281296279810798
1806.0,0.029467170231675777
1805.0,0.029653123769906697
1804.0,0.02969962459782227
1803.0,0.02969962459782227
1802.0,0.029653123769906697
1801.0,0.029653123769906697
1800.0,0.02960662792039992
1799.0,0.029560137048236124
1798.0,0.029467170231675777
1797.0,0.029374223311705583
1796.0,0.029141943003497595
1795.0,0.02890978686288448
1794.0,0.02872415126189476
1793.0,0.02863136320857662
1792.0,0.028538594975413334
1791.0,0.028353117935693284
1790.0,0.028214062120885508
1789.0,0.02812138297373412
1788.0,0.02798240132598462
1787.0,0.027797161620935595
1786.0,0.0277045713888604
1785.0,0.027565723042634938
1784.0,0.027334407733889066
1783.0,0.027195677663422346
1782.0,0.02710321556345563
1781.0,0.027056991894431892
1780.0,0.027056991894431892
1779.0,0.027010773144651168
1778.0,0.02696455931306696
1777.0,0.02691835039863255
1776.0,0.02682594731702781
1775.0,0.026733563891471412
1774.0,0.02664120011360227
1773.0,0.02654885597506529
1772.0,0.026456531467510258
1771.0,0.026456531467510258
1770.0,0.026595025589939425
1769.0,0.026872146400301444
1768.0,0.027010773144651168
1767.0,0.027010773144651168
1766.0,0.026872146400301444
1765.0,0.02677975314776626
1764.0,0.026687379547098322
1763.0,0.026595025589939425
1762.0,0.026595025589939425
1761.0,0.026595025589939425
1760.0,0.026687379547098322
1759.0,0.026872146400301444
1758.0,0.02710321556345563
1757.0,0.027288159452933503
1756.0,0.027426919073445077
1755.0,0.02747318213414429
1754.0,0.02751945012352408
1753.0,0.027565723042634938
1752.0,0.0277045713888604
1751.0,0.027936083991977778
1750.0,0.02812138297373412
1749.0,0.028214062120885508
1748.0,0.028306761050139073
1747.0,0.02839947976994095
1746.0,0.028445846553939003
1745.0,0.028538594975413334
1744.0,0.02863136320857662
1743.0,0.028677754757187035
1742.0,0.028677754757187035
1741.0,0.02872415126189476
1740.0,0.028863370523193765
1739.0,0.02890978686288448
1738.0,0.028863370523193765
1737.0,0.028956208163971375
1736.0,0.029002634427514717
1735.0,0.029141943003497595
1734.0,0.029188389127482228
1733.0,0.028770552723758724
1732.0,0.02839947976994095
1731.0,0.02826040911222183
1730.0,0.028167720075074953
1729.0,0.028028723600243666
1728.0,0.027936083991977778
1727.0,0.027797161620935595
1726.0,0.027658283674251827
1725.0,0.02751945012352408
1724.0,0.027426919073445077
1723.0,0.027288159452933503
1722.0,0.027149444152769986
1721.0,0.027056991894431892
1720.0,0.02696455931306696
1719.0,0.026872146400301444
1718.0,0.02677975314776626
1717.0,0.026733563891471412
1716.0,0.026687379547098322
1715.0,0.026687379547098322
1714.0,0.026733563891471412
1713.0,0.026733563891471412
1712.0,0.02664120011360227
1711.0,0.026502691267936695
1710.0,0.026318081496016443
1709.0,0.02617967564731627
1708.0,0.026087429580295085
1707.0,0.025995203102585407
1706.0,0.025949097207122573
1705.0,0.025902996205869
1704.0,0.025995203102585407
1703.0,0.026225806029419818
1702.0,0.026502691267936695
1701.0,0.026872146400301444
1700.0,0.026872146400301444
1699.0,0.026456531467510258
1698.0,0.026271941311972746
1697.0,0.026271941311972746
1696.0,0.026271941311972746
1695.0,0.02613355016462182
1694.0,0.02613355016462182
1693.0,0.02636422658259252
1692.0,0.026502691267936695
1691.0,0.026410376572743033
1690.0,0.02636422658259252
1689.0,0.026318081496016443
1688.0,0.02636422658259252
1687.0,0.02636422658259252
1686.0,0.026271941311972746
1685.0,0.026410376572743033
1684.0,0.02664120011360227
1683.0,0.02664120011360227
1682.0,0.026872146400301444
1681.0,0.027149444152769986
1680.0,0.027195677663422346
1679.0,0.027195677663422346
1678.0,0.027195677663422346
1677.0,0.027334407733889066
1676.0,0.027426919073445077
1675.0,0.02747318213414429
1674.0,0.027334407733889066
1673.0,0.027195677663422346
1672.0,0.027149444152769986
1671.0,0.027149444152769986
1670.0,0.027288159452933503
1669.0,0.02738066094037661
1668.0,0.027426919073445077
1667.0,0.02751945012352408
1666.0,0.027565723042634938
1665.0,0.027565723042634938
1664.0,0.02751945012352408
1663.0,0.02751945012352408
1662.0,0.02751945012352408
1661.0,0.027426919073445077
1660.0,0.027334407733889066
1659.0,0.027149444152769986
1658.0,0.02691835039863255
1657.0,0.026687379547098322
1656.0,0.02664120011360227
1655.0,0.026687379547098322
1654.0,0.02710321556345563
1653.0,0.027149444152769986
1652.0,0.02617967564731627
1651.0,0.025856900097785074
1650.0,0.025856900097785074
1649.0,0.025810808881832736
1648.0,0.025764722556973707
1647.0,0.025856900097785074
1646.0,0.025856900097785074
1645.0,0.025810808881832736
1644.0,0.025856900097785074
1643.0,0.025856900097785074
1642.0,0.025810808881832736
1641.0,0.025672564576383117
1640.0,0.02544225514642018
1639.0,0.02516604495145991
1638.0,0.02498200236711723
1637.0,0.02498200236711723
1636.0,0.02516604495145991
1635.0,0.02521206778644225
1634.0,0.02516604495145991
1633.0,0.025258095499050004
1632.0,0.025304128090317013
1631.0,0.025258095499050004
1630.0,0.02521206778644225
1629.0,0.02516604495145991
1628.0,0.02512002699306959
1627.0,0.025028005701930978
1626.0,0.024936003904763915
1625.0,0.024890010313838973
1624.0,0.024936003904763915
1623.0,0.024890010313838973
1622.0,0.024798037742147727
1621.0,0.024660115394541604
1620.0,0.024660115394541604
1619.0,0.024706084643793647
1618.0,0.02475205875931885
1617.0,0.02475205875931885
1616.0,0.02461415101053266
1615.0,0.02461415101053266
1614.0,0.024890010313838973
1613.0,0.02521206778644225
1612.0,0.02558042614771394
1611.0,0.02617967564731627
1610.0,0.02710321556345563
1609.0,0.02858497661500481
1608.0,0.030770520137356927
1607.0,0.03357665405630694
1606.0,0.03692083935817303
1605.0,0.040672354027829094
1604.0,0.04464904263234004
1603.0,0.04837110616336182
1602.0,0.051049389754451946
1601.0,0.05217431555754937
1600.0,0.051684859310652254
1599.0,0.04997609347667353
1598.0,0.047352830241056854
1597.0,0.04440844959427559
1596.0,0.041627267521392675
1595.0,0.039338992729018196
1594.0,0.03744126420403626
1593.0,0.03597620715996652
1592.0,0.03475124903287918
1591.0,0.03376437590141812
1590.0,0.032920265855503006
1589.0,0.03235843591698884
1588.0,0.03226486821611996
1587.0,0.032686081712916426
1586.0,0.03367050483612166
1585.0,0.03479829897408804
1584.0,0.035740369803151095
1583.0,0.036117771071222604
1582.0,0.03559892883726867
1581.0,0.03442204208947208
1580.0,0.033060836978886954
1579.0,0.03179733185715028
1578.0,0.03067729388779794
1577.0,0.02969962459782227
1576.0,0.028863370523193765
1575.0,0.028214062120885508
1574.0,0.027889771597169544
1573.0,0.0277045713888604
1572.0,0.027426919073445077
1571.0,0.02710321556345563
1570.0,0.026733563891471412
1569.0,0.026456531467510258
1568.0,0.026271941311972746
1567.0,0.026225806029419818
1566.0,0.02613355016462182
1565.0,0.025902996205869
1564.0,0.025764722556973707
1563.0,0.025764722556973707
1562.0,0.025764722556973707
1561.0,0.02558042614771394
1560.0,0.02562649291857677
1559.0,0.02617967564731627
1558.0,0.025902996205869
1557.0,0.025810808881832736
1556.0,0.025949097207122573
1555.0,0.025995203102585407
1554.0,0.025902996205869
1553.0,0.025856900097785074
1552.0,0.025902996205869
1551.0,0.026087429580295085
1550.0,0.026225806029419818
1549.0,0.026318081496016443
1548.0,0.02636422658259252
1547.0,0.026502691267936695
1546.0,0.026595025589939425
1545.0,0.026687379547098322
1544.0,0.02677975314776626
1543.0,0.02677975314776626
1542.0,0.026687379547098322
1541.0,0.02677975314776626
1540.0,0.02682594731702781
1539.0,0.026410376572743033
1538.0,0.026087429580295085
1537.0,0.026041313893296225
1536.0,0.025949097207122573
1535.0,0.025718641122169483
1534.0,0.02544225514642018
1533.0,0.02516604495145991
1532.0,0.024936003904763915
1531.0,0.024798037742147727
1530.0,0.024568191490736968
1529.0,0.024246610963712723
1528.0,0.023925268380126097
1527.0,0.02365002099672653
1526.0,0.02342078135989012
1525.0,0.023237476732539397
1524.0,0.02314585342378117
1523.0,0.023054249440757957
1522.0,0.02291687968414724
1521.0,0.022688026603074007
1520.0,0.02255077261765881
1519.0,0.02255077261765881
1518.0,0.02255077261765881
1517.0,0.02245929405346514
1516.0,0.022413561996148967
1515.0,0.022413561996148967
1514.0,0.022322112326006227
1513.0,0.022139270735302752
1512.0,0.021956506090037076
1511.0,0.02168250325324883
1510.0,0.0214542995372613
1509.0,0.021271822861508305
1508.0,0.02140867317992523
1507.0,0.021728158389364705
1506.0,0.021545566634771474
1505.0,0.02140867317992523
1504.0,0.02168250325324883
1503.0,0.022093572362881675
1502.0,0.022642270454698687
1501.0,0.02365002099672653
1500.0,0.02553436426275746
1499.0,0.02904906565457588
1498.0,0.03588185684851508
1497.0,0.047643522676209304
1496.0,0.0627329277885873
1495.0,0.07665234350217442
1494.0,0.08666307406737683
1493.0,0.0919441259012328
1492.0,0.09205147838772776
1491.0,0.08634506491338012
1490.0,0.07628980560343712
1489.0,0.06605739725873905
1488.0,0.05824018618530458
1487.0,0.0525172634430815
1486.0,0.04807992647970649
1485.0,0.04460091336073302
1484.0,0.04172287445230238
1483.0,0.03914884628031379
1482.0,0.03692083935817303
1481.0,0.03517488211661135
1480.0,0.0338113190438627
1479.0,0.03273290844021437
1478.0,0.03184406285002961
1477.0,0.031143625385307683
1476.0,0.030537492025363155
1475.0,0.029932203450862893
1474.0,0.029374223311705583
1473.0,0.029141943003497595
1472.0,0.029095501846216454
1471.0,0.029002634427514717
1470.0,0.02890978686288448
1469.0,0.028863370523193765
1468.0,0.028816959143838528
1467.0,0.028677754757187035
1466.0,0.028538594975413334
1465.0,0.02863136320857662
1464.0,0.028770552723758724
1463.0,0.02872415126189476
1462.0,0.02863136320857662
1461.0,0.028770552723758724
1460.0,0.02932775731028059
1459.0,0.031190286087141805
1458.0,0.03744126420403626
1457.0,0.05012229596312534
1456.0,0.06429125215733666
1455.0,0.07572071393811841
1454.0,0.08491689834879956
1453.0,0.0917831469106074
1452.0,0.09517630019905599
1451.0,0.09436599867304518
1450.0,0.09065796163869155
1449.0,0.08576265223225898
1448.0,0.08092190762392604
1447.0,0.07680780957933253
1446.0,0.07350321072677968
1445.0,0.07052998382251041
1444.0,0.06747550294945781
1443.0,0.06444235490698613
1442.0,0.06163040254819374
1441.0,0.059135024033278416
1440.0,0.05690137699451481
1439.0,0.05482695382609992
1438.0,0.05281143447390635
1437.0,0.05065879322950262
1436.0,0.04827402457540786
1435.0,0.046047116768076934
1434.0,0.044071843103049346
1433.0,0.04229695845116854
1432.0,0.04062466342415694
1431.0,0.03914884628031379
1430.0,0.03791491948264003
1429.0,0.03682628362474838
1428.0,0.03597620715996652
1427.0,0.03526907894637077
1426.0,0.03465716443937783
1425.0,0.034046110897937076
1424.0,0.03352973627071565
1423.0,0.033154576345083564
1422.0,0.03282657704446046
1421.0,0.032545631817259224
1420.0,0.03226486821611996
1419.0,0.03207779326948268
1418.0,0.03179733185715028
1417.0,0.03151705144606498
1416.0,0.03128362253321426
1415.0,0.03105031901865729
1414.0,0.03081714076773867
1413.0,0.03058408764601861
1412.0,0.030351159519274695
1411.0,0.030164906924202484
1410.0,0.029978734171634214
1409.0,0.029792641193145286
1408.0,0.029560137048236124
1407.0,0.02942069428514915
1406.0,0.029374223311705583
1405.0,0.02932775731028059
1404.0,0.029281296279810798
1403.0,0.029188389127482228
1402.0,0.02904906565457588
1401.0,0.02890978686288448
1400.0,0.028816959143838528
1399.0,0.028816959143838528
1398.0,0.02890978686288448
1397.0,0.029002634427514717
1396.0,0.029141943003497595
1395.0,0.029374223311705583
1394.0,0.02960662792039992
1393.0,0.029792641193145286
1392.0,0.029932203450862893
1391.0,0.030164906924202484
1390.0,0.030490901403433135
1389.0,0.031003673351687855
1388.0,0.031657169041054534
1387.0,0.03240522732811035
1386.0,0.03310770413286357
1385.0,0.03362357691107709
1384.0,0.034046110897937076
1383.0,0.03456310022373987
1382.0,0.03512779136222477
1381.0,0.035693217696063595
1380.0,0.03625938114211591
1379.0,0.036873558918095295
1378.0,0.03744126420403626
1377.0,0.03786753070176463
1376.0,0.03824678581321739
1375.0,0.03862637240519895
1374.0,0.039006291057664066
1373.0,0.03919637508823026
1372.0,0.03919637508823026
1371.0,0.03910132267333921
1370.0,0.03905380426616856
1369.0,0.039006291057664066
1368.0,0.038958783046687984
1367.0,0.038958783046687984
1366.0,0.03886378261277468
1365.0,0.038721320914956836
1364.0,0.03857890593355173
1363.0,0.03848398855105106
1362.0,0.038341651362284734
1361.0,0.03810452633214956
1360.0,0.03777276864991497
1359.0,0.03739392707587297
1358.0,0.037062711569998186
1357.0,0.036779013477011624
1356.0,0.036542739883292485
1355.0,0.036401037402758574
1354.0,0.03630659476198117
1353.0,0.03625938114211591
1352.0,0.03616496929785207
1351.0,0.03602339000339416
1350.0,0.03588185684851508
1349.0,0.03578752703018084
1348.0,0.035646070707806565
1347.0,0.03555179208333925
1346.0,0.03541041251009669
1345.0,0.03522197797762394
1344.0,0.03489241415094413
1343.0,0.03456310022373987
1342.0,0.03423403581731388
1341.0,0.033905220553829274
1340.0,0.03367050483612166
1339.0,0.03352973627071565
1338.0,0.03357665405630694
1337.0,0.03367050483612166
1336.0,0.0338113190438627
1335.0,0.034046110897937076
1334.0,0.03437503289075727
1333.0,0.03475124903287918
1332.0,0.03512779136222477
1331.0,0.03541041251009669
1330.0,0.035693217696063595
1329.0,0.03583468937826462
1328.0,0.03588185684851508
1327.0,0.03583468937826462
1326.0,0.035693217696063595
1325.0,0.03550466044490741
1324.0,0.03531618502395939
1323.0,0.03512779136222477
1322.0,0.03503362516890207
1321.0,0.03498654972775217
1320.0,0.03498654972775217
1319.0,0.03503362516890207
1318.0,0.03522197797762394
1317.0,0.03541041251009669
1316.0,0.03555179208333925
1315.0,0.035740369803151095
1314.0,0.03583468937826462
1313.0,0.03597620715996652
1312.0,0.0360705779734416
1311.0,0.0360705779734416
1310.0,0.03602339000339416
1309.0,0.03588185684851508
1308.0,0.035693217696063595
1307.0,0.03545753392086315
1306.0,0.03522197797762394
1305.0,0.03498654972775217
1304.0,0.03470420418834386
1303.0,0.034469056377139484
1302.0,0.03423403581731388
1301.0,0.03399914237121604
1300.0,0.03376437590141812
1299.0,0.03352973627071565
1298.0,0.03334211579824231
1297.0,0.033154576345083564
1296.0,0.03301397488206215
1295.0,0.032920265855503006
1294.0,0.032873418923587305
1293.0,0.03282657704446046
1292.0,0.03273290844021437
1291.0,0.032545631817259224
1290.0,0.03240522732811035
1289.0,0.032218091924200776
1288.0,0.03207779326948268
1287.0,0.031984286006358165
1286.0,0.03189079887180224
1285.0,0.03179733185715028
1284.0,0.03175060589208267
1283.0,0.03170388495374454
1282.0,0.03170388495374454
1281.0,0.03170388495374454
1280.0,0.03161045815293173
1279.0,0.03151705144606498
1278.0,0.03142366482450232
1277.0,0.031236951802751545
1276.0,0.03105031901865729
1275.0,0.03081714076773867
1274.0,0.03063068826647264
1273.0,0.030444315779156517
1272.0,0.03025802323714588
1271.0,0.030071810571884017
1270.0,0.029932203450862893
1269.0,0.029839156962686353
1268.0,0.029839156962686353
1267.0,0.029792641193145286
1266.0,0.029746130405213123
1265.0,0.02969962459782227
1264.0,0.02960662792039992
1263.0,0.029513651152349718
1262.0,0.02942069428514915
1261.0,0.029281296279810798
1260.0,0.029188389127482228
1259.0,0.029095501846216454
1258.0,0.029095501846216454
1257.0,0.029095501846216454
1256.0,0.029141943003497595
1255.0,0.029141943003497595
1254.0,0.029188389127482228
1253.0,0.029234840219232394
1252.0,0.029234840219232394
1251.0,0.029281296279810798
1250.0,0.029281296279810798
1249.0,0.029234840219232394
1248.0,0.029188389127482228
1247.0,0.029141943003497595
1246.0,0.029141943003497595
1245.0,0.029141943003497595
1244.0,0.029141943003497595
1243.0,0.029095501846216454
1242.0,0.029002634427514717
1241.0,0.02890978686288448
1240.0,0.028770552723758724
1239.0,0.028677754757187035
1238.0,0.028538594975413334
1237.0,0.028445846553939003
1236.0,0.02839947976994095
1235.0,0.02839947976994095
1234.0,0.02839947976994095
1233.0,0.02839947976994095
1232.0,0.028353117935693284
1231.0,0.028353117935693284
1230.0,0.028306761050139073
1229.0,0.028353117935693284
1228.0,0.028353117935693284
1227.0,0.028353117935693284
1226.0,0.028353117935693284
1225.0,0.02826040911222183
1224.0,0.028214062120885508
1223.0,0.028167720075074953
1222.0,0.028075050815808744
1221.0,0.028028723600243666
1220.0,0.028028723600243666
1219.0,0.028028723600243666
1218.0,0.028028723600243666
1217.0,0.028028723600243666
1216.0,0.02798240132598462
1215.0,0.02798240132598462
1214.0,0.028028723600243666
1213.0,0.02812138297373412
1212.0,0.02826040911222183
1211.0,0.02839947976994095
1210.0,0.02858497661500481
1209.0,0.028677754757187035
1208.0,0.02872415126189476
1207.0,0.028863370523193765
1206.0,0.02904906565457588
1205.0,0.029374223311705583
1204.0,0.029653123769906697
1203.0,0.029932203450862893
1202.0,0.030164906924202484
1201.0,0.030444315779156517
1200.0,0.03067729388779794
1199.0,0.030957032694186815
1198.0,0.031190286087141805
1197.0,0.03137697904301118
1196.0,0.03147035562516054
1195.0,0.03151705144606498
1194.0,0.031563752288295444
1193.0,0.03161045815293173
1192.0,0.03161045815293173
1191.0,0.031657169041054534
1190.0,0.03170388495374454
1189.0,0.03184406285002961
1188.0,0.032124554451966825
1187.0,0.032592443402527316
1186.0,0.0332483359486222
1185.0,0.034046110897937076
1184.0,0.0349394793888016
1183.0,0.03583468937826462
1182.0,0.036542739883292485
1181.0,0.03692083935817303
1180.0,0.036873558918095295
1179.0,0.036401037402758574
1178.0,0.035646070707806565
1177.0,0.03475124903287918
1176.0,0.033905220553829274
1175.0,0.033154576345083564
1174.0,0.032592443402527316
1173.0,0.032218091924200776
1172.0,0.03193753992355086
1171.0,0.03175060589208267
1170.0,0.03161045815293173
1169.0,0.03151705144606498
1168.0,0.03142366482450232
1167.0,0.03137697904301118
1166.0,0.03142366482450232
1165.0,0.03147035562516054
1164.0,0.031563752288295444
1163.0,0.03175060589208267
1162.0,0.03207779326948268
1161.0,0.03263926003405038
1160.0,0.03343591590268957
1159.0,0.034469056377139484
1158.0,0.035646070707806565
1157.0,0.03692083935817303
1156.0,0.03800971255993524
1155.0,0.03876880295533702
1154.0,0.039006291057664066
1153.0,0.03857890593355173
1152.0,0.03763066432997886
1151.0,0.036401037402758574
1150.0,0.03508070571335731
1149.0,0.033905220553829274
1148.0,0.032920265855503006
1147.0,0.032124554451966825
1146.0,0.03147035562516054
1145.0,0.030910397045078586
1144.0,0.030397735151460825
1143.0,0.029932203450862893
1142.0,0.029467170231675777
1141.0,0.02904906565457588
1140.0,0.02858497661500481
1139.0,0.028167720075074953
1138.0,0.027797161620935595
1137.0,0.027426919073445077
1136.0,0.02710321556345563
1135.0,0.02682594731702781
1134.0,0.02664120011360227
1133.0,0.026456531467510258
1132.0,0.026271941311972746
1131.0,0.02613355016462182
1130.0,0.026041313893296225
1129.0,0.025949097207122573
1128.0,0.025856900097785074
1127.0,0.025718641122169483
1126.0,0.02558042614771394
1125.0,0.025488307262671706
1124.0,0.02544225514642018
1123.0,0.02539620791296726
1122.0,0.02544225514642018
1121.0,0.02553436426275746
1120.0,0.025672564576383117
1119.0,0.025764722556973707
1118.0,0.025902996205869
1117.0,0.026041313893296225
1116.0,0.026225806029419818
1115.0,0.026502691267936695
1114.0,0.026733563891471412
1113.0,0.02691835039863255
1112.0,0.027010773144651168
1111.0,0.02696455931306696
1110.0,0.02691835039863255
1109.0,0.02677975314776626
1108.0,0.026687379547098322
1107.0,0.02664120011360227
1106.0,0.02664120011360227
1105.0,0.026733563891471412
1104.0,0.026733563891471412
1103.0,0.026733563891471412
1102.0,0.02677975314776626
1101.0,0.02691835039863255
1100.0,0.02710321556345563
1099.0,0.027195677663422346
1098.0,0.027288159452933503
1097.0,0.027334407733889066
1096.0,0.02738066094037661
1095.0,0.027426919073445077
1094.0,0.02751945012352408
1093.0,0.027565723042634938
1092.0,0.027612000892527133
1091.0,0.0277045713888604
1090.0,0.027843464140506313
1089.0,0.02798240132598462
1088.0,0.028167720075074953
1087.0,0.028306761050139073
1086.0,0.028538594975413334
1085.0,0.028863370523193765
1084.0,0.029281296279810798
1083.0,0.02969962459782227
1082.0,0.030211462585061133
1081.0,0.03067729388779794
1080.0,0.031143625385307683
1079.0,0.03161045815293173
1078.0,0.03207779326948268
1077.0,0.03263926003405038
1076.0,0.03334211579824231
1075.0,0.03428102975577918
1074.0,0.03541041251009669
1073.0,0.03649550058570927
1072.0,0.03753595394209874
1071.0,0.038341651362284734
1070.0,0.038911280232103884
1069.0,0.03919637508823026
1068.0,0.03919637508823026
1067.0,0.038958783046687984
1066.0,0.03848398855105106
1065.0,0.03777276864991497
1064.0,0.03692083935817303
1063.0,0.036117771071222604
1062.0,0.03541041251009669
1061.0,0.03475124903287918
1060.0,0.034187046963396917
1059.0,0.03357665405630694
1058.0,0.0329671178412978
1057.0,0.03240522732811035
1056.0,0.03193753992355086
1055.0,0.03147035562516054
1054.0,0.031003673351687855
1053.0,0.030490901403433135
1052.0,0.03002526987828502
1051.0,0.029653123769906697
1050.0,0.02942069428514915
1049.0,0.029281296279810798
1048.0,0.029141943003497595
1047.0,0.02890978686288448
1046.0,0.028677754757187035
1045.0,0.02839947976994095
1044.0,0.028167720075074953
1043.0,0.027936083991977778
1042.0,0.027750864037404455
1041.0,0.0277045713888604
1040.0,0.027750864037404455
1039.0,0.028028723600243666
1038.0,0.02863136320857662
1037.0,0.02969962459782227
1036.0,0.03147035562516054
1035.0,0.03399914237121604
1034.0,0.037346595106788616
1033.0,0.04129280891271536
1032.0,0.04541983725624266
1031.0,0.049294465226138895
1030.0,0.052419250695677544
1029.0,0.05448217792216048
1028.0,0.055270639696704205
1027.0,0.054876229877880656
1026.0,0.053449489430144714
1025.0,0.05134256785867963
1024.0,0.048954051864180226
1023.0,0.04672366333269573
1022.0,0.04474531717982
1021.0,0.04301563225723992
1020.0,0.041579471947481794
1019.0,0.0402909757535701
1018.0,0.03910132267333921
1017.0,0.038057116858612794
1016.0,0.0371100126082089
1015.0,0.03621217265444465
1014.0,0.03545753392086315
1013.0,0.03479829897408804
1012.0,0.03428102975577918
1011.0,0.0338113190438627
1010.0,0.03343591590268957
1009.0,0.033154576345083564
1008.0,0.033060836978886954
1007.0,0.03310770413286357
1006.0,0.033295223342125535
1005.0,0.03357665405630694
1004.0,0.03385826726096752
1003.0,0.033952178923546183
1002.0,0.03371743783253667
1001.0,0.033060836978886954
1000.0,0.032124554451966825
999.0,0.031236951802751545
998.0,0.030490901403433135
997.0,0.03002526987828502
996.0,0.02969962459782227
995.0,0.02942069428514915
994.0,0.029234840219232394
993.0,0.029141943003497595
992.0,0.029095501846216454
991.0,0.029188389127482228
990.0,0.02932775731028059
989.0,0.029467170231675777
988.0,0.029653123769906697
987.0,0.029885677714903025
986.0,0.030211462585061133
985.0,0.03067729388779794
984.0,0.031096969696171817
983.0,0.03147035562516054
982.0,0.03179733185715028
981.0,0.031984286006358165
980.0,0.032031037121307726
979.0,0.032031037121307726
978.0,0.03184406285002961
977.0,0.03161045815293173
976.0,0.03128362253321426
975.0,0.030910397045078586
974.0,0.030537492025363155
973.0,0.03025802323714588
972.0,0.030118356253500123
971.0,0.030211462585061133
970.0,0.030537492025363155
969.0,0.03105031901865729
968.0,0.03161045815293173
967.0,0.03217132066984485
966.0,0.032686081712916426
965.0,0.033060836978886954
964.0,0.0332483359486222
963.0,0.03310770413286357
962.0,0.03273290844021437
961.0,0.032124554451966825
960.0,0.03137697904301118
959.0,0.03063068826647264
958.0,0.029932203450862893
957.0,0.029374223311705583
956.0,0.028863370523193765
955.0,0.02849221828874393
954.0,0.028306761050139073
953.0,0.028167720075074953
952.0,0.028075050815808744
951.0,0.028075050815808744
950.0,0.028167720075074953
949.0,0.028353117935693284
948.0,0.02863136320857662
947.0,0.028863370523193765
946.0,0.029095501846216454
945.0,0.02932775731028059
944.0,0.029560137048236124
943.0,0.029746130405213123
942.0,0.029839156962686353
941.0,0.029839156962686353
940.0,0.02969962459782227
939.0,0.029467170231675777
938.0,0.029188389127482228
937.0,0.028816959143838528
936.0,0.02839947976994095
935.0,0.02798240132598462
934.0,0.027658283674251827
933.0,0.027334407733889066
932.0,0.02710321556345563
931.0,0.02682594731702781
930.0,0.02664120011360227
929.0,0.026502691267936695
928.0,0.026456531467510258
927.0,0.026502691267936695
926.0,0.02654885597506529
925.0,0.02664120011360227
924.0,0.026733563891471412
923.0,0.026872146400301444
922.0,0.02710321556345563
921.0,0.02738066094037661
920.0,0.0277045713888604
919.0,0.02812138297373412
918.0,0.028677754757187035
917.0,0.029374223311705583
916.0,0.030351159519274695
915.0,0.03151705144606498
914.0,0.032920265855503006
913.0,0.03456310022373987
912.0,0.036401037402758574
911.0,0.038436537637930535
910.0,0.040529297924893015
909.0,0.04244059810252043
908.0,0.0439276630048171
907.0,0.04484161307420642
906.0,0.04508244626504121
905.0,0.04469717723830824
904.0,0.0437835307566099
903.0,0.042344833056508824
902.0,0.040529297924893015
901.0,0.03848398855105106
900.0,0.03649550058570927
899.0,0.03465716443937783
898.0,0.03310770413286357
897.0,0.03179733185715028
896.0,0.030770520137356927
895.0,0.029885677714903025
894.0,0.029141943003497595
893.0,0.02849221828874393
892.0,0.027936083991977778
891.0,0.02751945012352408
890.0,0.027149444152769986
889.0,0.02677975314776626
888.0,0.02636422658259252
887.0,0.025949097207122573
886.0,0.02558042614771394
885.0,0.025350165561278004
884.0,0.02521206778644225
883.0,0.02512002699306959
882.0,0.025028005701930978
881.0,0.024890010313838973
880.0,0.024706084643793647
879.0,0.024522236834125355
878.0,0.02438440203310499
877.0,0.024246610963712723
876.0,0.024154774532432866
875.0,0.024108863598207186
874.0,0.02406295751688936
873.0,0.024017056287453542
872.0,0.023971159908874107
871.0,0.023971159908874107
870.0,0.02406295751688936
869.0,0.024200690320592466
868.0,0.024200690320592466
867.0,0.024108863598207186
866.0,0.023971159908874107
865.0,0.023833499868024743
864.0,0.023741750742954926
863.0,0.023695883447997224
862.0,0.02365002099672653
861.0,0.023604163388120325
860.0,0.02351246269481
859.0,0.02342078135989012
858.0,0.023466619608062178
857.0,0.02355831062115543
856.0,0.023787622882622816
855.0,0.024017056287453542
854.0,0.024246610963712723
853.0,0.024338466818941473
852.0,0.02438440203310499
851.0,0.024568191490736968
850.0,0.02498200236711723
849.0,0.02558042614771394
848.0,0.026271941311972746
847.0,0.027010773144651168
846.0,0.027750864037404455
845.0,0.028445846553939003
844.0,0.02904906565457588
843.0,0.02942069428514915
842.0,0.029560137048236124
841.0,0.029560137048236124
840.0,0.029374223311705583
839.0,0.029002634427514717
838.0,0.02839947976994095
837.0,0.02751945012352408
836.0,0.026456531467510258
835.0,0.025304128090317013
834.0,0.024246610963712723
833.0,0.023283295636617574
832.0,0.02245929405346514
831.0,0.021819483062586187
830.0,0.02140867317992523
829.0,0.021135015652343103
828.0,0.020907099361673565
827.0,0.02058821736556471
826.0,0.02026956933771462
825.0,0.02004210665933459
824.0,0.019996628416253603
823.0,0.01995115493504329
822.0,0.019814763052665052
821.0,0.01954210772389997
820.0,0.019315025636685412
819.0,0.0190880622231564
818.0,0.018951941086827073
817.0,0.018906576854070378
816.0,0.018906576854070378
815.0,0.018951941086827073
814.0,0.018951941086827073
813.0,0.01899731005860028
812.0,0.01899731005860028
811.0,0.019133445417920836
810.0,0.019315025636685412
809.0,0.01940584422377989
808.0,0.01940584422377989
807.0,0.01940584422377989
806.0,0.019451260640229506
805.0,0.01949668180660491
804.0,0.019451260640229506
803.0,0.019360432556262852
802.0,0.019315025636685412
801.0,0.019315025636685412
800.0,0.01940584422377989
799.0,0.01954210772389997
798.0,0.019723858922159776
797.0,0.01990568621470623
796.0,0.019996628416253603
795.0,0.019996628416253603
794.0,0.020087589665283012
793.0,0.02022406727031445
792.0,0.02058821736556471
791.0,0.021043834782408455
790.0,0.02168250325324883
789.0,0.022322112326006227
788.0,0.02296266477531872
787.0,0.023466619608062178
786.0,0.024017056287453542
785.0,0.024706084643793647
784.0,0.02558042614771394
783.0,0.026456531467510258
782.0,0.02747318213414429
781.0,0.028677754757187035
780.0,0.030211462585061133
779.0,0.032124554451966825
778.0,0.03428102975577918
777.0,0.03668448861388862
776.0,0.03938654235209116
775.0,0.04244059810252043
774.0,0.045902279520810385
773.0,0.04982994019179987
772.0,0.05423607688882637
771.0,0.059035506507200575
770.0,0.06408986356949264
769.0,0.0691018855898955
768.0,0.07396640332115534
767.0,0.07862570458152551
766.0,0.08312512146131668
765.0,0.08761850108119962
764.0,0.0922125568893839
763.0,0.09691001300805646
762.0,0.10160395406999112
761.0,0.1062937069352865
760.0,0.11086644403327606
759.0,0.11526126223036814
758.0,0.11918640771920863
757.0,0.12245589228405596
756.0,0.12476505354983503
755.0,0.12604034525664676
754.0,0.12650501774383094
753.0,0.12667939818460128
752.0,0.12697018793895576
751.0,0.12743585690934855
750.0,0.1280769681176266
749.0,0.12866061890013913
748.0,0.12883586719705065
747.0,0.12819363554127072
746.0,0.12604034525664676
745.0,0.12216810850710624
744.0,0.1165657063169907
743.0,0.10974669484546551
742.0,0.10237290870955862
741.0,0.09512223303659528
740.0,0.08825662214406838
739.0,0.08191721535781271
738.0,0.0760310351245288
737.0,0.07047889936889606
736.0,0.06509774167768612
735.0,0.05968277842578207
734.0,0.054088483180726676
733.0,0.048468209457651845
732.0,0.04325545471730896
731.0,0.038958783046687984
730.0,0.035693217696063595
729.0,0.033201453616638954
728.0,0.031096969696171817
727.0,0.029188389127482228
726.0,0.02747318213414429
725.0,0.025902996205869
724.0,0.024338466818941473
723.0,0.022733787572707387
722.0,0.02122621566987748
721.0,0.01995115493504329
720.0,0.018815862601645694
719.0,0.017774008325325275
718.0,0.016960383953898095
717.0,0.016418813294209356
716.0,0.016238439713835096
715.0,0.01646391839700767
714.0,0.017231422748988034
713.0,0.018725167293411005
712.0,0.021271822861508305
711.0,0.025304128090317013
710.0,0.03142366482450232
709.0,0.0400527842915015
708.0,0.05144033789103841
707.0,0.0655520510510299
706.0,0.08238947425013277
705.0,0.10193333935836524
704.0,0.12401322857151209
703.0,0.14849704722945534
702.0,0.1754186237665174
701.0,0.20530287310800133
700.0,0.23814730553361696
699.0,0.27286557623951135
698.0,0.30680085484628283
697.0,0.33611070137733856
696.0,0.3554629422215927
695.0,0.3595185630295781
694.0,0.3466909870615211
693.0,0.3205721033878812
692.0,0.2876870913186347
691.0,0.25383303562271453
690.0,0.2228632874958274
689.0,0.19667947642124606
688.0,0.1755487299633871
687.0,0.15882830550046778
686.0,0.1456939581989194
685.0,0.1350738084609946
684.0,0.12621453918179926
683.0,0.11827306462358211
682.0,0.11097857790477517
681.0,0.10446696051592963
680.0,0.09903237608087578
679.0,0.09474395125154866
678.0,0.09151498112135026
677.0,0.08905559425002108
676.0,0.08682216600953208
675.0,0.08454739831152125
674.0,0.08212704480115218
673.0,0.07977228854307139
672.0,0.07737832847680104
671.0,0.07458476291575367
670.0,0.07139934015547578
669.0,0.06864384953207203
668.0,0.06747550294945781
667.0,0.0675769736232612
666.0,0.06722192993944942
665.0,0.0655520510510299
664.0,0.06343599486473406
663.0,0.06153031163235467
662.0,0.05978244440026481
661.0,0.05794231615860479
660.0,0.05586292684190197
659.0,0.053842605077627725
658.0,0.05197846685889629
657.0,0.050317309204795935
656.0,0.049148541111453614
655.0,0.04875964967565971
654.0,0.04919717703534143
653.0,0.04982994019179987
652.0,0.049927370249842395
651.0,0.04944043838819989
650.0,0.04885683989244738
649.0,0.04851676924770687
648.0,0.04817696468408794
647.0,0.04749815213697639
646.0,0.04662694927330402
645.0,0.04580574818413763
644.0,0.04513062893352182
643.0,0.04474531717982
642.0,0.04484161307420642
641.0,0.045564513671517703
640.0,0.0469171560879138
639.0,0.048468209457651845
638.0,0.04997609347667353
637.0,0.05148923116234294
636.0,0.0531548860393769
635.0,0.05462990550969615
634.0,0.05531996611868961
633.0,0.054728418492290265
632.0,0.05310580489767336
631.0,0.05153812993871654
630.0,0.05100054597304693
629.0,0.05153812993871654
628.0,0.05261529831525902
627.0,0.053596866100945384
626.0,0.05433450056786593
625.0,0.055122694036304765
624.0,0.056159373598738904
623.0,0.0571489934456626
622.0,0.05769424710410598
621.0,0.057396751157843484
620.0,0.05630767289398331
619.0,0.05462990550969615
618.0,0.05305672930217464
617.0,0.05192951848105887
616.0,0.05144033789103841
615.0,0.05129369109514803
614.0,0.05148923116234294
613.0,0.051684859310652254
612.0,0.05129369109514803
611.0,0.04982994019179987
610.0,0.0478374257855374
609.0,0.046143701775014145
608.0,0.04508244626504121
607.0,0.04440844959427559
606.0,0.0439276630048171
605.0,0.0435434165901003
604.0,0.04301563225723992
603.0,0.042344833056508824
602.0,0.041914151478914974
601.0,0.04186632432376469
600.0,0.041149548320321694
