cm-1,A
4000.0,0.0067
3999.0,0.0067
3998.0,0.0068
3997.0,0.0069
3996.0,0.0069
3995.0,0.0069
3994.0,0.0069
3993.0,0.0068
3992.0,0.0067
3991.0,0.0067
3990.0,0.0067
3989.0,0.0067
3988.0,0.0068
3987.0,0.0068
3986.0,0.0068
3985.0,0.0067
3984.0,0.0067
3983.0,0.0066
3982.0,0.0066
3981.0,0.0067
3980.0,0.0067
3979.0,0.0066
3978.0,0.0067
3977.0,0.0067
3976.0,0.0068
3975.0,0.0068
3974.0,0.0068
3973.0,0.0068
3972.0,0.0068
3971.0,0.0068
3970.0,0.0067
3969.0,0.0067
3968.0,0.0067
3967.0,0.0067
3966.0,0.0067
3965.0,0.0067
3964.0,0.0067
3963.0,0.0066
3962.0,0.0067
3961.0,0.0067
3960.0,0.0068
3959.0,0.0068
3958.0,0.0068
3957.0,0.0068
3956.0,0.0067
3955.0,0.0067
3954.0,0.0068
3953.0,0.0069
3952.0,0.0069
3951.0,0.0068
3950.0,0.0067
3949.0,0.0066
3948.0,0.0066
3947.0,0.0066
3946.0,0.0067
3945.0,0.0067
3944.0,0.0068
3943.0,0.0068
3942.0,0.0069
3941.0,0.007
3940.0,0.007
3939.0,0.007
3938.0,0.0069
3937.0,0.0068
3936.0,0.0068
3935.0,0.0068
3934.0,0.0068
3933.0,0.0069
3932.0,0.0069
3931.0,0.0069
3930.0,0.0069
3929.0,0.0069
3928.0,0.0069
3927.0,0.0069
3926.0,0.0069
3925.0,0.007
3924.0,0.007
3923.0,0.007
3922.0,0.007
3921.0,0.007
3920.0,0.0069
3919.0,0.007
3918.0,0.007
3917.0,0.007
3916.0,0.007
3915.0,0.007
3914.0,0.007
3913.0,0.007
3912.0,0.007
3911.0,0.007
3910.0,0.0069
3909.0,0.0069
3908.0,0.007
3907.0,0.007
3906.0,0.0071
3905.0,0.0072
3904.0,0.0073
3903.0,0.0073
3902.0,0.0072
3901.0,0.0071
3900.0,0.007
3899.0,0.0069
3898.0,0.007
3897.0,0.007
3896.0,0.007
3895.0,0.0069
3894.0,0.0068
3893.0,0.0068
3892.0,0.0068
3891.0,0.0069
3890.0,0.0071
3889.0,0.0072
3888.0,0.0072
3887.0,0.007
3886.0,0.0069
3885.0,0.007
3884.0,0.0071
3883.0,0.0072
3882.0,0.0072
3881.0,0.0072
3880.0,0.0072
3879.0,0.0072
3878.0,0.0072
3877.0,0.0072
3876.0,0.0071
3875.0,0.0071
3874.0,0.007
3873.0,0.007
3872.0,0.007
3871.0,0.0069
3870.0,0.0069
3869.0,0.007
3868.0,0.0071
3867.0,0.0072
3866.0,0.007
3865.0,0.0068
3864.0,0.0067
3863.0,0.0067
3862.0,0.0068
3861.0,0.0069
3860.0,0.0071
3859.0,0.0072
3858.0,0.0073
3857.0,0.0074
3856.0,0.0072
3855.0,0.0069
3854.0,0.0068
3853.0,0.007
3852.0,0.0071
3851.0,0.0072
3850.0,0.0072
3849.0,0.0072
3848.0,0.0072
3847.0,0.0071
3846.0,0.0071
3845.0,0.0071
3844.0,0.0071
3843.0,0.0071
3842.0,0.0071
3841.0,0.0071
3840.0,0.007
3839.0,0.007
3838.0,0.007
3837.0,0.007
3836.0,0.007
3835.0,0.0071
3834.0,0.0071
3833.0,0.0071
3832.0,0.0072
3831.0,0.0072
3830.0,0.0072
3829.0,0.0072
3828.0,0.0072
3827.0,0.0072
3826.0,0.0072
3825.0,0.0073
3824.0,0.0073
3823.0,0.0072
3822.0,0.0071
3821.0,0.0072
3820.0,0.0073
3819.0,0.0074
3818.0,0.0073
3817.0,0.0073
3816.0,0.0072
3815.0,0.0073
3814.0,0.0073
3813.0,0.0073
3812.0,0.0072
3811.0,0.0072
3810.0,0.0072
3809.0,0.0072
3808.0,0.0071
3807.0,0.0071
3806.0,0.0072
3805.0,0.0072
3804.0,0.0073
3803.0,0.0072
3802.0,0.0072
3801.0,0.0073
3800.0,0.0074
3799.0,0.0074
3798.0,0.0073
3797.0,0.0072
3796.0,0.0071
3795.0,0.007
3794.0,0.0071
3793.0,0.0071
3792.0,0.0071
3791.0,0.0072
3790.0,0.0073
3789.0,0.0073
3788.0,0.0073
3787.0,0.0073
3786.0,0.0072
3785.0,0.0072
3784.0,0.0072
3783.0,0.0073
3782.0,0.0074
3781.0,0.0074
3780.0,0.0074
3779.0,0.0074
3778.0,0.0075
3777.0,0.0076
3776.0,0.0076
3775.0,0.0075
3774.0,0.0074
3773.0,0.0073
3772.0,0.0073
3771.0,0.0072
3770.0,0.0073
3769.0,0.0073
3768.0,0.0074
3767.0,0.0074
3766.0,0.0074
3765.0,0.0074
3764.0,0.0074
3763.0,0.0074
3762.0,0.0074
3761.0,0.0073
3760.0,0.0074
3759.0,0.0074
3758.0,0.0075
3757.0,0.0075
3756.0,0.0075
3755.0,0.0076
3754.0,0.0077
3753.0,0.0078
3752.0,0.008
3751.0,0.0081
3750.0,0.0079
3749.0,0.0078
3748.0,0.0077
3747.0,0.0077
3746.0,0.0076
3745.0,0.0073
3744.0,0.0072
3743.0,0.0071
3742.0,0.0071
3741.0,0.0071
3740.0,0.0071
3739.0,0.0072
3738.0,0.0073
3737.0,0.0074
3736.0,0.0074
3735.0,0.0074
3734.0,0.0073
3733.0,0.007
3732.0,0.0067
3731.0,0.0066
3730.0,0.0066
3729.0,0.0066
3728.0,0.0066
3727.0,0.0066
3726.0,0.0067
3725.0,0.0068
3724.0,0.0069
3723.0,0.007
3722.0,0.007
3721.0,0.0071
3720.0,0.0072
3719.0,0.0073
3718.0,0.0074
3717.0,0.0075
3716.0,0.0075
3715.0,0.0075
3714.0,0.0074
3713.0,0.0073
3712.0,0.0073
3711.0,0.0072
3710.0,0.0072
3709.0,0.0071
3708.0,0.0071
3707.0,0.0071
3706.0,0.0071
3705.0,0.0071
3704.0,0.0071
3703.0,0.0072
3702.0,0.0072
3701.0,0.0071
3700.0,0.0071
3699.0,0.0071
3698.0,0.0071
3697.0,0.0071
3696.0,0.0072
3695.0,0.0073
3694.0,0.0073
3693.0,0.0074
3692.0,0.0075
3691.0,0.0076
3690.0,0.0078
3689.0,0.0077
3688.0,0.0076
3687.0,0.0075
3686.0,0.0075
3685.0,0.0074
3684.0,0.0074
3683.0,0.0074
3682.0,0.0075
3681.0,0.0076
3680.0,0.0077
3679.0,0.008
3678.0,0.0081
3677.0,0.0081
3676.0,0.008
3675.0,0.008
3674.0,0.0081
3673.0,0.0082
3672.0,0.0082
3671.0,0.0081
3670.0,0.0082
3669.0,0.0082
3668.0,0.0082
3667.0,0.0082
3666.0,0.0082
3665.0,0.0083
3664.0,0.0083
3663.0,0.0083
3662.0,0.0083
3661.0,0.0083
3660.0,0.0083
3659.0,0.0084
3658.0,0.0084
3657.0,0.0085
3656.0,0.0086
3655.0,0.0087
3654.0,0.0088
3653.0,0.0088
3652.0,0.0088
3651.0,0.0089
3650.0,0.0091
3649.0,0.0092
3648.0,0.0091
3647.0,0.009
3646.0,0.0089
3645.0,0.0088
3644.0,0.0088
3643.0,0.0088
3642.0,0.0089
3641.0,0.009
3640.0,0.0091
3639.0,0.0092
3638.0,0.0093
3637.0,0.0093
3636.0,0.0093
3635.0,0.0093
3634.0,0.0093
3633.0,0.0094
3632.0,0.0094
3631.0,0.0094
3630.0,0.0094
3629.0,0.0095
3628.0,0.0096
3627.0,0.0096
3626.0,0.0096
3625.0,0.0097
3624.0,0.0098
3623.0,0.0099
3622.0,0.0101
3621.0,0.0101
3620.0,0.0102
3619.0,0.0104
3618.0,0.0106
3617.0,0.0108
3616.0,0.011
3615.0,0.0111
3614.0,0.0112
3613.0,0.0112
3612.0,0.0113
3611.0,0.0112
3610.0,0.0112
3609.0,0.0111
3608.0,0.0112
3607.0,0.0113
3606.0,0.0114
3605.0,0.0115
3604.0,0.0117
3603.0,0.0117
3602.0,0.0118
3601.0,0.0119
3600.0,0.0121
3599.0,0.0121
3598.0,0.0121
3597.0,0.0121
3596.0,0.012
3595.0,0.0121
3594.0,0.0123
3593.0,0.0126
3592.0,0.0128
3591.0,0.013
3590.0,0.0131
3589.0,0.0133
3588.0,0.0135
3587.0,0.0138
3586.0,0.0138
3585.0,0.0138
3584.0,0.0138
3583.0,0.0138
3582.0,0.0138
3581.0,0.0139
3580.0,0.0141
3579.0,0.0143
3578.0,0.0144
3577.0,0.0145
3576.0,0.0145
3575.0,0.0146
3574.0,0.0147
3573.0,0.0149
3572.0,0.015
3571.0,0.015
3570.0,0.0151
3569.0,0.0151
3568.0,0.0152
3567.0,0.0155
3566.0,0.0158
3565.0,0.0159
3564.0,0.016
3563.0,0.0161
3562.0,0.0162
3561.0,0.0163
3560.0,0.0165
3559.0,0.0166
3558.0,0.0166
3557.0,0.0167
3556.0,0.0167
3555.0,0.0167
3554.0,0.0168
3553.0,0.017
3552.0,0.0173
3551.0,0.0175
3550.0,0.0176
3549.0,0.0176
3548.0,0.0176
3547.0,0.0176
3546.0,0.0177
3545.0,0.0178
3544.0,0.018
3543.0,0.0182
3542.0,0.0183
3541.0,0.0184
3540.0,0.0184
3539.0,0.0183
3538.0,0.0183
3537.0,0.0184
3536.0,0.0185
3535.0,0.0186
3534.0,0.0187
3533.0,0.0187
3532.0,0.0187
3531.0,0.0188
3530.0,0.0189
3529.0,0.019
3528.0,0.0191
3527.0,0.019
3526.0,0.019
3525.0,0.0189
3524.0,0.0191
3523.0,0.0193
3522.0,0.0195
3521.0,0.0196
3520.0,0.0197
3519.0,0.0197
3518.0,0.0198
3517.0,0.0199
3516.0,0.0199
3515.0,0.0199
3514.0,0.0199
3513.0,0.02
3512.0,0.0201
3511.0,0.0201
3510.0,0.0202
3509.0,0.0203
3508.0,0.0203
3507.0,0.0204
3506.0,0.0204
3505.0,0.0205
3504.0,0.0206
3503.0,0.0208
3502.0,0.0209
3501.0,0.0209
3500.0,0.0209
3499.0,0.0209
3498.0,0.021
3497.0,0.0212
3496.0,0.0214
3495.0,0.0215
3494.0,0.0215
3493.0,0.0215
3492.0,0.0215
3491.0,0.0215
3490.0,0.0216
3489.0,0.0217
3488.0,0.0218
3487.0,0.0219
3486.0,0.022
3485.0,0.0222
3484.0,0.0223
3483.0,0.0224
3482.0,0.0226
3481.0,0.0227
3480.0,0.0227
3479.0,0.0228
3478.0,0.0228
3477.0,0.0229
3476.0,0.023
3475.0,0.0232
3474.0,0.0234
3473.0,0.0236
3472.0,0.0236
3471.0,0.0237
3470.0,0.0237
3469.0,0.0237
3468.0,0.0238
3467.0,0.0239
3466.0,0.024
3465.0,0.0241
3464.0,0.0242
3463.0,0.0244
3462.0,0.0246
3461.0,0.0249
3460.0,0.0251
3459.0,0.0252
3458.0,0.0254
3457.0,0.0255
3456.0,0.0256
3455.0,0.0257
3454.0,0.0257
3453.0,0.0257
3452.0,0.0257
3451.0,0.0258
3450.0,0.0259
3449.0,0.0261
3448.0,0.0263
3447.0,0.0265
3446.0,0.0267
3445.0,0.0269
3444.0,0.0271
3443.0,0.0272
3442.0,0.0274
3441.0,0.0275
3440.0,0.0275
3439.0,0.0276
3438.0,0.0277
3437.0,0.0279
3436.0,0.0281
3435.0,0.0284
3434.0,0.0286
3433.0,0.0289
3432.0,0.029
3431.0,0.0291
3430.0,0.0292
3429.0,0.0292
3428.0,0.0293
3427.0,0.0294
3426.0,0.0296
3425.0,0.0296
3424.0,0.0297
3423.0,0.0299
3422.0,0.03
3421.0,0.0302
3420.0,0.0304
3419.0,0.0305
3418.0,0.0306
3417.0,0.0307
3416.0,0.0308
3415.0,0.031
3414.0,0.0311
3413.0,0.0312
3412.0,0.0313
3411.0,0.0313
3410.0,0.0314
3409.0,0.0314
3408.0,0.0314
3407.0,0.0315
3406.0,0.0316
3405.0,0.0317
3404.0,0.0317
3403.0,0.0318
3402.0,0.0319
3401.0,0.032
3400.0,0.032
3399.0,0.0321
3398.0,0.0322
3397.0,0.0323
3396.0,0.0324
3395.0,0.0323
3394.0,0.0322
3393.0,0.0321
3392.0,0.032
3391.0,0.032
3390.0,0.0321
3389.0,0.0322
3388.0,0.0322
3387.0,0.0322
3386.0,0.0321
3385.0,0.032
3384.0,0.032
3383.0,0.032
3382.0,0.0319
3381.0,0.0319
3380.0,0.0318
3379.0,0.0319
3378.0,0.032
3377.0,0.032
3376.0,0.032
3375.0,0.032
3374.0,0.0318
3373.0,0.0317
3372.0,0.0317
3371.0,0.0316
3370.0,0.0316
3369.0,0.0316
3368.0,0.0316
3367.0,0.0315
3366.0,0.0314
3365.0,0.0312
3364.0,0.0311
3363.0,0.031
3362.0,0.031
3361.0,0.031
3360.0,0.0311
3359.0,0.0311
3358.0,0.0311
3357.0,0.031
3356.0,0.0309
3355.0,0.0309
3354.0,0.0308
3353.0,0.0308
3352.0,0.0307
3351.0,0.0307
3350.0,0.0306
3349.0,0.0306
3348.0,0.0306
3347.0,0.0305
3346.0,0.0304
3345.0,0.0303
3344.0,0.0302
3343.0,0.03
3342.0,0.0299
3341.0,0.0298
3340.0,0.0297
3339.0,0.0297
3338.0,0.0297
3337.0,0.0297
3336.0,0.0296
3335.0,0.0296
3334.0,0.0296
3333.0,0.0295
3332.0,0.0295
3331.0,0.0294
3330.0,0.0292
3329.0,0.0291
3328.0,0.029
3327.0,0.0289
3326.0,0.0289
3325.0,0.0289
3324.0,0.0288
3323.0,0.0287
3322.0,0.0285
3321.0,0.0283
3320.0,0.0282
3319.0,0.0282
3318.0,0.0283
3317.0,0.0283
3316.0,0.0283
3315.0,0.0282
3314.0,0.0282
3313.0,0.0281
3312.0,0.0281
3311.0,0.028
3310.0,0.0279
3309.0,0.0278
3308.0,0.0278
3307.0,0.0277
3306.0,0.0276
3305.0,0.0275
3304.0,0.0274
3303.0,0.0274
3302.0,0.0273
3301.0,0.0273
3300.0,0.0273
3299.0,0.0272
3298.0,0.0271
3297.0,0.027
3296.0,0.0269
3295.0,0.0269
3294.0,0.0269
3293.0,0.0269
3292.0,0.0268
3291.0,0.0266
3290.0,0.0265
3289.0,0.0263
3288.0,0.0263
3287.0,0.0263
3286.0,0.0263
3285.0,0.0263
3284.0,0.0263
3283.0,0.0263
3282.0,0.0262
3281.0,0.0261
3280.0,0.026
3279.0,0.026
3278.0,0.026
3277.0,0.026
3276.0,0.0261
3275.0,0.0261
3274.0,0.0261
3273.0,0.026
3272.0,0.026
3271.0,0.0259
3270.0,0.0258
3269.0,0.0257
3268.0,0.0257
3267.0,0.0257
3266.0,0.0257
3265.0,0.0256
3264.0,0.0255
3263.0,0.0255
3262.0,0.0255
3261.0,0.0255
3260.0,0.0255
3259.0,0.0255
3258.0,0.0255
3257.0,0.0254
3256.0,0.0254
3255.0,0.0254
3254.0,0.0255
3253.0,0.0254
3252.0,0.0253
3251.0,0.0252
3250.0,0.0252
3249.0,0.0252
3248.0,0.0252
3247.0,0.0252
3246.0,0.0252
3245.0,0.0251
3244.0,0.025
3243.0,0.0249
3242.0,0.0249
3241.0,0.0249
3240.0,0.0249
3239.0,0.0249
3238.0,0.0248
3237.0,0.0247
3236.0,0.0246
3235.0,0.0245
3234.0,0.0244
3233.0,0.0242
3232.0,0.0241
3231.0,0.024
3230.0,0.0238
3229.0,0.0237
3228.0,0.0237
3227.0,0.0237
3226.0,0.0237
3225.0,0.0237
3224.0,0.0237
3223.0,0.0235
3222.0,0.0234
3221.0,0.0233
3220.0,0.0232
3219.0,0.0231
3218.0,0.023
3217.0,0.0228
3216.0,0.0227
3215.0,0.0227
3214.0,0.0227
3213.0,0.0227
3212.0,0.0226
3211.0,0.0226
3210.0,0.0225
3209.0,0.0224
3208.0,0.0223
3207.0,0.0222
3206.0,0.0221
3205.0,0.022
3204.0,0.0219
3203.0,0.0218
3202.0,0.0216
3201.0,0.0215
3200.0,0.0214
3199.0,0.0214
3198.0,0.0213
3197.0,0.0213
3196.0,0.0212
3195.0,0.0211
3194.0,0.021
3193.0,0.0209
3192.0,0.0208
3191.0,0.0208
3190.0,0.0206
3189.0,0.0205
3188.0,0.0203
3187.0,0.0202
3186.0,0.0202
3185.0,0.0202
3184.0,0.0202
3183.0,0.0201
3182.0,0.0201
3181.0,0.0201
3180.0,0.02
3179.0,0.0198
3178.0,0.0197
3177.0,0.0196
3176.0,0.0195
3175.0,0.0194
3174.0,0.0193
3173.0,0.0192
3172.0,0.019
3171.0,0.0189
3170.0,0.0188
3169.0,0.0188
3168.0,0.0187
3167.0,0.0187
3166.0,0.0186
3165.0,0.0186
3164.0,0.0185
3163.0,0.0184
3162.0,0.0183
3161.0,0.0182
3160.0,0.0182
3159.0,0.0181
3158.0,0.018
3157.0,0.0179
3156.0,0.0178
3155.0,0.0177
3154.0,0.0176
3153.0,0.0175
3152.0,0.0173
3151.0,0.0173
3150.0,0.0172
3149.0,0.0171
3148.0,0.0171
3147.0,0.0171
3146.0,0.017
3145.0,0.017
3144.0,0.017
3143.0,0.0169
3142.0,0.0168
3141.0,0.0167
3140.0,0.0165
3139.0,0.0164
3138.0,0.0162
3137.0,0.0161
3136.0,0.016
3135.0,0.016
3134.0,0.0159
3133.0,0.0159
3132.0,0.0159
3131.0,0.0158
3130.0,0.0157
3129.0,0.0155
3128.0,0.0154
3127.0,0.0153
3126.0,0.0153
3125.0,0.0153
3124.0,0.0152
3123.0,0.0151
3122.0,0.0151
3121.0,0.015
3120.0,0.0149
3119.0,0.0148
3118.0,0.0147
3117.0,0.0146
3116.0,0.0146
3115.0,0.0145
3114.0,0.0144
3113.0,0.0143
3112.0,0.0142
3111.0,0.0141
3110.0,0.014
3109.0,0.014
3108.0,0.014
3107.0,0.0139
3106.0,0.0138
3105.0,0.0137
3104.0,0.0136
3103.0,0.0135
3102.0,0.0135
3101.0,0.0134
3100.0,0.0133
3099.0,0.0132
3098.0,0.0132
3097.0,0.0131
3096.0,0.0131
3095.0,0.013
3094.0,0.013
3093.0,0.0129
3092.0,0.0128
3091.0,0.0127
3090.0,0.0127
3089.0,0.0126
3088.0,0.0125
3087.0,0.0125
3086.0,0.0124
3085.0,0.0123
3084.0,0.0122
3083.0,0.0121
3082.0,0.0121
3081.0,0.012
3080.0,0.0119
3079.0,0.0118
3078.0,0.0117
3077.0,0.0116
3076.0,0.0115
3075.0,0.0115
3074.0,0.0114
3073.0,0.0113
3072.0,0.0112
3071.0,0.0111
3070.0,0.011
3069.0,0.011
3068.0,0.0109
3067.0,0.0108
3066.0,0.0107
3065.0,0.0106
3064.0,0.0105
3063.0,0.0104
3062.0,0.0104
3061.0,0.0103
3060.0,0.0102
3059.0,0.0101
3058.0,0.0101
3057.0,0.01
3056.0,0.01
3055.0,0.0099
3054.0,0.0098
3053.0,0.0097
3052.0,0.0096
3051.0,0.0095
3050.0,0.0095
3049.0,0.0094
3048.0,0.0094
3047.0,0.0093
3046.0,0.0091
3045.0,0.009
3044.0,0.009
3043.0,0.0089
3042.0,0.0089
3041.0,0.0088
3040.0,0.0088
3039.0,0.0087
3038.0,0.0086
3037.0,0.0084
3036.0,0.0084
3035.0,0.0083
3034.0,0.0082
3033.0,0.0081
3032.0,0.0079
3031.0,0.0077
3030.0,0.0076
3029.0,0.0075
3028.0,0.0075
3027.0,0.0074
3026.0,0.0073
3025.0,0.0072
3024.0,0.0072
3023.0,0.0072
3022.0,0.0072
3021.0,0.0071
3020.0,0.007
3019.0,0.0068
3018.0,0.0067
3017.0,0.0067
3016.0,0.0067
3015.0,0.0066
3014.0,0.0065
3013.0,0.0064
3012.0,0.0063
3011.0,0.0062
3010.0,0.0061
3009.0,0.006
3008.0,0.0059
3007.0,0.0059
3006.0,0.0058
3005.0,0.0057
3004.0,0.0056
3003.0,0.0054
3002.0,0.0053
3001.0,0.0053
3000.0,0.0053
2999.0,0.0053
2998.0,0.0054
2997.0,0.0055
2996.0,0.0055
2995.0,0.0055
2994.0,0.0055
2993.0,0.0054
2992.0,0.0054
2991.0,0.0055
2990.0,0.0056
2989.0,0.0058
2988.0,0.0061
2987.0,0.0063
2986.0,0.0066
2985.0,0.0068
2984.0,0.0072
2983.0,0.0077
2982.0,0.0083
2981.0,0.009
2980.0,0.0097
2979.0,0.0107
2978.0,0.0118
2977.0,0.013
2976.0,0.0145
2975.0,0.0162
2974.0,0.018
2973.0,0.0201
2972.0,0.0225
2971.0,0.025
2970.0,0.0279
2969.0,0.031
2968.0,0.0343
2967.0,0.0379
2966.0,0.0415
2965.0,0.0451
2964.0,0.0484
2963.0,0.0514
2962.0,0.054
2961.0,0.0561
2960.0,0.0577
2959.0,0.0592
2958.0,0.0608
2957.0,0.0628
2956.0,0.0654
2955.0,0.0685
2954.0,0.0721
2953.0,0.0757
2952.0,0.0791
2951.0,0.0816
2950.0,0.083
2949.0,0.0828
2948.0,0.0811
2947.0,0.0778
2946.0,0.0734
2945.0,0.0684
2944.0,0.0633
2943.0,0.0587
2942.0,0.0547
2941.0,0.0515
2940.0,0.0491
2939.0,0.0477
2938.0,0.0471
2937.0,0.0473
2936.0,0.0482
2935.0,0.0499
2934.0,0.0522
2933.0,0.0551
2932.0,0.0585
2931.0,0.0623
2930.0,0.0663
2929.0,0.0703
2928.0,0.0744
2927.0,0.0784
2926.0,0.0823
2925.0,0.0861
2924.0,0.0899
2923.0,0.0938
2922.0,0.0977
2921.0,0.1015
2920.0,0.105
2919.0,0.1079
2918.0,0.1097
2917.0,0.1102
2916.0,0.1094
2915.0,0.1076
2914.0,0.1051
2913.0,0.1023
2912.0,0.0995
2911.0,0.0968
2910.0,0.0944
2909.0,0.0922
2908.0,0.0901
2907.0,0.0881
2906.0,0.0861
2905.0,0.0839
2904.0,0.0818
2903.0,0.0796
2902.0,0.0774
2901.0,0.0753
2900.0,0.0732
2899.0,0.0711
2898.0,0.0691
2897.0,0.0672
2896.0,0.0654
2895.0,0.0639
2894.0,0.0626
2893.0,0.0615
2892.0,0.0606
2891.0,0.06
2890.0,0.0595
2889.0,0.0593
2888.0,0.0592
2887.0,0.0592
2886.0,0.0593
2885.0,0.0597
2884.0,0.0602
2883.0,0.0609
2882.0,0.0618
2881.0,0.0629
2880.0,0.0639
2879.0,0.0648
2878.0,0.0655
2877.0,0.0658
2876.0,0.0658
2875.0,0.0656
2874.0,0.0654
2873.0,0.0655
2872.0,0.0659
2871.0,0.0667
2870.0,0.0677
2869.0,0.0688
2868.0,0.0697
2867.0,0.07
2866.0,0.0695
2865.0,0.068
2864.0,0.0655
2863.0,0.0624
2862.0,0.0589
2861.0,0.0555
2860.0,0.0524
2859.0,0.0498
2858.0,0.0478
2857.0,0.0461
2856.0,0.045
2855.0,0.0442
2854.0,0.0437
2853.0,0.0436
2852.0,0.0435
2851.0,0.0437
2850.0,0.0441
2849.0,0.0448
2848.0,0.0458
2847.0,0.0473
2846.0,0.0492
2845.0,0.0514
2844.0,0.054
2843.0,0.0569
2842.0,0.0598
2841.0,0.0625
2840.0,0.0649
2839.0,0.0666
2838.0,0.0674
2837.0,0.0672
2836.0,0.0659
2835.0,0.0636
2834.0,0.0606
2833.0,0.0573
2832.0,0.054
2831.0,0.051
2830.0,0.0484
2829.0,0.046
2828.0,0.044
2827.0,0.0422
2826.0,0.0408
2825.0,0.0396
2824.0,0.0386
2823.0,0.0377
2822.0,0.0369
2821.0,0.0362
2820.0,0.0355
2819.0,0.0348
2818.0,0.0342
2817.0,0.0337
2816.0,0.0333
2815.0,0.0329
2814.0,0.0325
2813.0,0.0321
2812.0,0.0318
2811.0,0.0314
2810.0,0.031
2809.0,0.0306
2808.0,0.0302
2807.0,0.0298
2806.0,0.0295
2805.0,0.0291
2804.0,0.0288
2803.0,0.0285
2802.0,0.0282
2801.0,0.028
2800.0,0.0277
2799.0,0.0275
2798.0,0.0272
2797.0,0.027
2796.0,0.0268
2795.0,0.0266
2794.0,0.0264
2793.0,0.0262
2792.0,0.026
2791.0,0.0258
2790.0,0.0256
2789.0,0.0253
2788.0,0.0251
2787.0,0.0249
2786.0,0.0247
2785.0,0.0244
2784.0,0.0242
2783.0,0.024
2782.0,0.0238
2781.0,0.0236
2780.0,0.0235
2779.0,0.0233
2778.0,0.0231
2777.0,0.0229
2776.0,0.0228
2775.0,0.0226
2774.0,0.0225
2773.0,0.0224
2772.0,0.0223
2771.0,0.0223
2770.0,0.0222
2769.0,0.0222
2768.0,0.0222
2767.0,0.0221
2766.0,0.022
2765.0,0.0219
2764.0,0.0217
2763.0,0.0216
2762.0,0.0216
2761.0,0.0215
2760.0,0.0215
2759.0,0.0214
2758.0,0.0213
2757.0,0.0212
2756.0,0.0211
2755.0,0.021
2754.0,0.0209
2753.0,0.0208
2752.0,0.0208
2751.0,0.0207
2750.0,0.0207
2749.0,0.0207
2748.0,0.0206
2747.0,0.0206
2746.0,0.0205
2745.0,0.0204
2744.0,0.0204
2743.0,0.0204
2742.0,0.0204
2741.0,0.0204
2740.0,0.0204
2739.0,0.0204
2738.0,0.0204
2737.0,0.0204
2736.0,0.0205
2735.0,0.0205
2734.0,0.0206
2733.0,0.0206
2732.0,0.0207
2731.0,0.0207
2730.0,0.0208
2729.0,0.0209
2728.0,0.0211
2727.0,0.0212
2726.0,0.0214
2725.0,0.0215
2724.0,0.0216
2723.0,0.0216
2722.0,0.0216
2721.0,0.0215
2720.0,0.0213
2719.0,0.0212
2718.0,0.021
2717.0,0.0208
2716.0,0.0206
2715.0,0.0205
2714.0,0.0203
2713.0,0.0202
2712.0,0.0202
2711.0,0.0202
2710.0,0.0201
2709.0,0.02
2708.0,0.0198
2707.0,0.0197
2706.0,0.0196
2705.0,0.0196
2704.0,0.0195
2703.0,0.0194
2702.0,0.0193
2701.0,0.0193
2700.0,0.0192
2699.0,0.0191
2698.0,0.019
2697.0,0.0189
2696.0,0.0188
2695.0,0.0188
2694.0,0.0188
2693.0,0.0188
2692.0,0.0188
2691.0,0.0188
2690.0,0.0188
2689.0,0.0188
2688.0,0.0187
2687.0,0.0187
2686.0,0.0186
2685.0,0.0186
2684.0,0.0186
2683.0,0.0185
2682.0,0.0184
2681.0,0.0184
2680.0,0.0184
2679.0,0.0184
2678.0,0.0185
2677.0,0.0185
2676.0,0.0185
2675.0,0.0185
2674.0,0.0184
2673.0,0.0184
2672.0,0.0183
2671.0,0.0182
2670.0,0.0181
2669.0,0.018
2668.0,0.018
2667.0,0.0179
2666.0,0.018
2665.0,0.018
2664.0,0.0181
2663.0,0.0181
2662.0,0.0181
2661.0,0.0181
2660.0,0.0181
2659.0,0.0181
2658.0,0.0181
2657.0,0.0181
2656.0,0.018
2655.0,0.018
2654.0,0.0179
2653.0,0.0178
2652.0,0.0178
2651.0,0.0177
2650.0,0.0177
2649.0,0.0176
2648.0,0.0176
2647.0,0.0175
2646.0,0.0175
2645.0,0.0174
2644.0,0.0173
2643.0,0.0173
2642.0,0.0172
2641.0,0.0172
2640.0,0.0173
2639.0,0.0173
2638.0,0.0173
2637.0,0.0173
2636.0,0.0173
2635.0,0.0173
2634.0,0.0173
2633.0,0.0172
2632.0,0.0172
2631.0,0.0172
2630.0,0.0172
2629.0,0.0172
2628.0,0.0172
2627.0,0.0172
2626.0,0.0171
2625.0,0.0171
2624.0,0.0171
2623.0,0.0171
2622.0,0.0171
2621.0,0.0171
2620.0,0.0171
2619.0,0.0171
2618.0,0.0171
2617.0,0.0171
2616.0,0.0171
2615.0,0.0171
2614.0,0.0171
2613.0,0.0171
2612.0,0.0171
2611.0,0.0171
2610.0,0.0171
2609.0,0.0171
2608.0,0.0171
2607.0,0.017
2606.0,0.0169
2605.0,0.0168
2604.0,0.0168
2603.0,0.0167
2602.0,0.0167
2601.0,0.0167
2600.0,0.0167
2599.0,0.0166
2598.0,0.0166
2597.0,0.0166
2596.0,0.0167
2595.0,0.0167
2594.0,0.0167
2593.0,0.0167
2592.0,0.0168
2591.0,0.0168
2590.0,0.0168
2589.0,0.0168
2588.0,0.0168
2587.0,0.0168
2586.0,0.0169
2585.0,0.017
2584.0,0.0171
2583.0,0.0171
2582.0,0.0171
2581.0,0.0171
2580.0,0.0171
2579.0,0.0171
2578.0,0.017
2577.0,0.0169
2576.0,0.0168
2575.0,0.0167
2574.0,0.0166
2573.0,0.0166
2572.0,0.0166
2571.0,0.0165
2570.0,0.0164
2569.0,0.0163
2568.0,0.0163
2567.0,0.0162
2566.0,0.0162
2565.0,0.0162
2564.0,0.0162
2563.0,0.0162
2562.0,0.0162
2561.0,0.0162
2560.0,0.0162
2559.0,0.0161
2558.0,0.0161
2557.0,0.016
2556.0,0.016
2555.0,0.0159
2554.0,0.0159
2553.0,0.0159
2552.0,0.0159
2551.0,0.0159
2550.0,0.0159
2549.0,0.0159
2548.0,0.0159
2547.0,0.0159
2546.0,0.0158
2545.0,0.0158
2544.0,0.0157
2543.0,0.0156
2542.0,0.0155
2541.0,0.0155
2540.0,0.0155
2539.0,0.0155
2538.0,0.0155
2537.0,0.0156
2536.0,0.0156
2535.0,0.0156
2534.0,0.0156
2533.0,0.0156
2532.0,0.0156
2531.0,0.0156
2530.0,0.0156
2529.0,0.0156
2528.0,0.0157
2527.0,0.0157
2526.0,0.0156
2525.0,0.0156
2524.0,0.0156
2523.0,0.0156
2522.0,0.0155
2521.0,0.0154
2520.0,0.0154
2519.0,0.0154
2518.0,0.0154
2517.0,0.0153
2516.0,0.0153
2515.0,0.0152
2514.0,0.0152
2513.0,0.0151
2512.0,0.0151
2511.0,0.0151
2510.0,0.0151
2509.0,0.0151
2508.0,0.0151
2507.0,0.0152
2506.0,0.0152
2505.0,0.0152
2504.0,0.0152
2503.0,0.0151
2502.0,0.0151
2501.0,0.0151
2500.0,0.0151
2499.0,0.0151
2498.0,0.0151
2497.0,0.0151
2496.0,0.0151
2495.0,0.0151
2494.0,0.0151
2493.0,0.0151
2492.0,0.0151
2491.0,0.0151
2490.0,0.0151
2489.0,0.0151
2488.0,0.0151
2487.0,0.0152
2486.0,0.0152
2485.0,0.0152
2484.0,0.0151
2483.0,0.0151
2482.0,0.0151
2481.0,0.015
2480.0,0.015
2479.0,0.015
2478.0,0.015
2477.0,0.015
2476.0,0.0151
2475.0,0.0151
2474.0,0.0151
2473.0,0.0151
2472.0,0.0151
2471.0,0.0151
2470.0,0.015
2469.0,0.015
2468.0,0.015
2467.0,0.015
2466.0,0.015
2465.0,0.015
2464.0,0.015
2463.0,0.015
2462.0,0.015
2461.0,0.015
2460.0,0.015
2459.0,0.015
2458.0,0.015
2457.0,0.015
2456.0,0.015
2455.0,0.015
2454.0,0.015
2453.0,0.015
2452.0,0.015
2451.0,0.015
2450.0,0.0149
2449.0,0.0149
2448.0,0.0148
2447.0,0.0148
2446.0,0.0148
2445.0,0.0149
2444.0,0.015
2443.0,0.0151
2442.0,0.0151
2441.0,0.0151
2440.0,0.015
2439.0,0.015
2438.0,0.015
2437.0,0.015
2436.0,0.015
2435.0,0.015
2434.0,0.0151
2433.0,0.0151
2432.0,0.0151
2431.0,0.0151
2430.0,0.0151
2429.0,0.0151
2428.0,0.0151
2427.0,0.0151
2426.0,0.0151
2425.0,0.0151
2424.0,0.0151
2423.0,0.0151
2422.0,0.0151
2421.0,0.015
2420.0,0.015
2419.0,0.015
2418.0,0.015
2417.0,0.015
2416.0,0.015
2415.0,0.015
2414.0,0.0149
2413.0,0.0149
2412.0,0.0149
2411.0,0.0149
2410.0,0.0149
2409.0,0.0149
2408.0,0.0149
2407.0,0.015
2406.0,0.015
2405.0,0.015
2404.0,0.015
2403.0,0.015
2402.0,0.015
2401.0,0.015
2400.0,0.0151
2399.0,0.0151
2398.0,0.0151
2397.0,0.0152
2396.0,0.0151
2395.0,0.0151
2394.0,0.015
2393.0,0.015
2392.0,0.0149
2391.0,0.0149
2390.0,0.0148
2389.0,0.0148
2388.0,0.0147
2387.0,0.0147
2386.0,0.0146
2385.0,0.0144
2384.0,0.0142
2383.0,0.014
2382.0,0.0137
2381.0,0.0134
2380.0,0.0132
2379.0,0.0131
2378.0,0.0131
2377.0,0.0133
2376.0,0.0135
2375.0,0.0136
2374.0,0.0136
2373.0,0.0135
2372.0,0.0133
2371.0,0.0129
2370.0,0.0127
2369.0,0.013
2368.0,0.0141
2367.0,0.0156
2366.0,0.0167
2365.0,0.0162
2364.0,0.0137
2363.0,0.0105
2362.0,0.0093
2361.0,0.0112
2360.0,0.0143
2359.0,0.0155
2358.0,0.0142
2357.0,0.0124
2356.0,0.0117
2355.0,0.0122
2354.0,0.013
2353.0,0.0134
2352.0,0.0131
2351.0,0.0125
2350.0,0.0118
2349.0,0.011
2348.0,0.0102
2347.0,0.0094
2346.0,0.0089
2345.0,0.0086
2344.0,0.0083
2343.0,0.0079
2342.0,0.0078
2341.0,0.0081
2340.0,0.0086
2339.0,0.0091
2338.0,0.0096
2337.0,0.0102
2336.0,0.0107
2335.0,0.0112
2334.0,0.0116
2333.0,0.0118
2332.0,0.0118
2331.0,0.0116
2330.0,0.0117
2329.0,0.0118
2328.0,0.0119
2327.0,0.012
2326.0,0.0121
2325.0,0.0125
2324.0,0.0131
2323.0,0.0137
2322.0,0.0143
2321.0,0.0146
2320.0,0.0146
2319.0,0.0145
2318.0,0.0143
2317.0,0.0142
2316.0,0.014
2315.0,0.0137
2314.0,0.0135
2313.0,0.0134
2312.0,0.0133
2311.0,0.0132
2310.0,0.0132
2309.0,0.0131
2308.0,0.0131
2307.0,0.0132
2306.0,0.0134
2305.0,0.0135
2304.0,0.0135
2303.0,0.0135
2302.0,0.0135
2301.0,0.0135
2300.0,0.0136
2299.0,0.0138
2298.0,0.0139
2297.0,0.014
2296.0,0.0141
2295.0,0.0141
2294.0,0.0142
2293.0,0.0143
2292.0,0.0143
2291.0,0.0144
2290.0,0.0144
2289.0,0.0145
2288.0,0.0145
2287.0,0.0146
2286.0,0.0147
2285.0,0.0147
2284.0,0.0147
2283.0,0.0147
2282.0,0.0146
2281.0,0.0146
2280.0,0.0146
2279.0,0.0146
2278.0,0.0146
2277.0,0.0146
2276.0,0.0145
2275.0,0.0145
2274.0,0.0145
2273.0,0.0144
2272.0,0.0144
2271.0,0.0145
2270.0,0.0145
2269.0,0.0146
2268.0,0.0146
2267.0,0.0146
2266.0,0.0146
2265.0,0.0146
2264.0,0.0146
2263.0,0.0146
2262.0,0.0146
2261.0,0.0147
2260.0,0.0149
2259.0,0.0149
2258.0,0.0149
2257.0,0.0149
2256.0,0.0148
2255.0,0.0148
2254.0,0.0149
2253.0,0.0149
2252.0,0.0149
2251.0,0.0149
2250.0,0.0149
2249.0,0.0149
2248.0,0.0149
2247.0,0.0149
2246.0,0.0148
2245.0,0.0148
2244.0,0.0148
2243.0,0.0148
2242.0,0.0148
2241.0,0.0148
2240.0,0.0148
2239.0,0.0148
2238.0,0.0148
2237.0,0.0148
2236.0,0.0148
2235.0,0.0148
2234.0,0.0148
2233.0,0.0148
2232.0,0.0148
2231.0,0.0148
2230.0,0.0148
2229.0,0.0148
2228.0,0.0148
2227.0,0.0148
2226.0,0.0148
2225.0,0.0148
2224.0,0.0148
2223.0,0.0149
2222.0,0.0149
2221.0,0.0149
2220.0,0.0149
2219.0,0.0148
2218.0,0.0148
2217.0,0.0148
2216.0,0.0148
2215.0,0.0148
2214.0,0.0147
2213.0,0.0147
2212.0,0.0147
2211.0,0.0148
2210.0,0.0148
2209.0,0.0148
2208.0,0.0148
2207.0,0.0147
2206.0,0.0146
2205.0,0.0146
2204.0,0.0146
2203.0,0.0147
2202.0,0.0147
2201.0,0.0148
2200.0,0.0148
2199.0,0.0148
2198.0,0.0148
2197.0,0.0148
2196.0,0.0148
2195.0,0.0148
2194.0,0.0148
2193.0,0.0147
2192.0,0.0146
2191.0,0.0146
2190.0,0.0146
2189.0,0.0147
2188.0,0.0147
2187.0,0.0147
2186.0,0.0148
2185.0,0.0148
2184.0,0.0148
2183.0,0.0148
2182.0,0.0148
2181.0,0.0147
2180.0,0.0147
2179.0,0.0147
2178.0,0.0147
2177.0,0.0147
2176.0,0.0147
2175.0,0.0147
2174.0,0.0147
2173.0,0.0147
2172.0,0.0147
2171.0,0.0147
2170.0,0.0147
2169.0,0.0148
2168.0,0.0148
2167.0,0.0148
2166.0,0.0147
2165.0,0.0147
2164.0,0.0146
2163.0,0.0146
2162.0,0.0146
2161.0,0.0147
2160.0,0.0147
2159.0,0.0147
2158.0,0.0147
2157.0,0.0147
2156.0,0.0147
2155.0,0.0147
2154.0,0.0147
2153.0,0.0147
2152.0,0.0147
2151.0,0.0146
2150.0,0.0146
2149.0,0.0146
2148.0,0.0146
2147.0,0.0146
2146.0,0.0146
2145.0,0.0146
2144.0,0.0147
2143.0,0.0147
2142.0,0.0147
2141.0,0.0147
2140.0,0.0147
2139.0,0.0146
2138.0,0.0146
2137.0,0.0146
2136.0,0.0146
2135.0,0.0146
2134.0,0.0146
2133.0,0.0147
2132.0,0.0147
2131.0,0.0147
2130.0,0.0147
2129.0,0.0147
2128.0,0.0147
2127.0,0.0146
2126.0,0.0146
2125.0,0.0146
2124.0,0.0146
2123.0,0.0146
2122.0,0.0146
2121.0,0.0145
2120.0,0.0145
2119.0,0.0144
2118.0,0.0144
2117.0,0.0143
2116.0,0.0144
2115.0,0.0144
2114.0,0.0145
2113.0,0.0145
2112.0,0.0145
2111.0,0.0144
2110.0,0.0144
2109.0,0.0144
2108.0,0.0144
2107.0,0.0145
2106.0,0.0145
2105.0,0.0145
2104.0,0.0144
2103.0,0.0144
2102.0,0.0144
2101.0,0.0144
2100.0,0.0144
2099.0,0.0144
2098.0,0.0144
2097.0,0.0144
2096.0,0.0144
2095.0,0.0144
2094.0,0.0143
2093.0,0.0144
2092.0,0.0144
2091.0,0.0144
2090.0,0.0145
2089.0,0.0145
2088.0,0.0145
2087.0,0.0145
2086.0,0.0145
2085.0,0.0145
2084.0,0.0144
2083.0,0.0144
2082.0,0.0144
2081.0,0.0144
2080.0,0.0144
2079.0,0.0144
2078.0,0.0145
2077.0,0.0145
2076.0,0.0145
2075.0,0.0145
2074.0,0.0145
2073.0,0.0144
2072.0,0.0144
2071.0,0.0144
2070.0,0.0144
2069.0,0.0144
2068.0,0.0144
2067.0,0.0144
2066.0,0.0144
2065.0,0.0143
2064.0,0.0143
2063.0,0.0143
2062.0,0.0143
2061.0,0.0144
2060.0,0.0144
2059.0,0.0144
2058.0,0.0145
2057.0,0.0145
2056.0,0.0145
2055.0,0.0144
2054.0,0.0144
2053.0,0.0144
2052.0,0.0144
2051.0,0.0144
2050.0,0.0144
2049.0,0.0144
2048.0,0.0143
2047.0,0.0143
2046.0,0.0143
2045.0,0.0143
2044.0,0.0143
2043.0,0.0143
2042.0,0.0143
2041.0,0.0143
2040.0,0.0143
2039.0,0.0143
2038.0,0.0143
2037.0,0.0143
2036.0,0.0143
2035.0,0.0144
2034.0,0.0144
2033.0,0.0145
2032.0,0.0145
2031.0,0.0145
2030.0,0.0144
2029.0,0.0144
2028.0,0.0144
2027.0,0.0144
2026.0,0.0144
2025.0,0.0143
2024.0,0.0143
2023.0,0.0143
2022.0,0.0143
2021.0,0.0143
2020.0,0.0144
2019.0,0.0144
2018.0,0.0144
2017.0,0.0144
2016.0,0.0144
2015.0,0.0144
2014.0,0.0145
2013.0,0.0145
2012.0,0.0145
2011.0,0.0144
2010.0,0.0144
2009.0,0.0144
2008.0,0.0144
2007.0,0.0144
2006.0,0.0144
2005.0,0.0143
2004.0,0.0143
2003.0,0.0143
2002.0,0.0143
2001.0,0.0143
2000.0,0.0144
1999.0,0.0144
1998.0,0.0144
1997.0,0.0144
1996.0,0.0144
1995.0,0.0144
1994.0,0.0143
1993.0,0.0143
1992.0,0.0143
1991.0,0.0143
1990.0,0.0143
1989.0,0.0142
1988.0,0.0142
1987.0,0.0142
1986.0,0.0142
1985.0,0.0142
1984.0,0.0143
1983.0,0.0143
1982.0,0.0142
1981.0,0.0142
1980.0,0.0143
1979.0,0.0143
1978.0,0.0143
1977.0,0.0143
1976.0,0.0143
1975.0,0.0143
1974.0,0.0143
1973.0,0.0143
1972.0,0.0143
1971.0,0.0143
1970.0,0.0143
1969.0,0.0143
1968.0,0.0143
1967.0,0.0144
1966.0,0.0144
1965.0,0.0144
1964.0,0.0144
1963.0,0.0144
1962.0,0.0144
1961.0,0.0144
1960.0,0.0143
1959.0,0.0143
1958.0,0.0143
1957.0,0.0144
1956.0,0.0144
1955.0,0.0144
1954.0,0.0144
1953.0,0.0144
1952.0,0.0143
1951.0,0.0143
1950.0,0.0143
1949.0,0.0143
1948.0,0.0143
1947.0,0.0143
1946.0,0.0143
1945.0,0.0143
1944.0,0.0144
1943.0,0.0143
1942.0,0.0143
1941.0,0.0143
1940.0,0.0143
1939.0,0.0143
1938.0,0.0143
1937.0,0.0143
1936.0,0.0144
1935.0,0.0144
1934.0,0.0144
1933.0,0.0143
1932.0,0.0143
1931.0,0.0143
1930.0,0.0143
1929.0,0.0143
1928.0,0.0144
1927.0,0.0144
1926.0,0.0144
1925.0,0.0144
1924.0,0.0144
1923.0,0.0144
1922.0,0.0144
1921.0,0.0144
1920.0,0.0144
1919.0,0.0144
1918.0,0.0144
1917.0,0.0144
1916.0,0.0145
1915.0,0.0145
1914.0,0.0145
1913.0,0.0144
1912.0,0.0144
1911.0,0.0144
1910.0,0.0145
1909.0,0.0145
1908.0,0.0145
1907.0,0.0145
1906.0,0.0145
1905.0,0.0144
1904.0,0.0144
1903.0,0.0143
1902.0,0.0143
1901.0,0.0144
1900.0,0.0144
1899.0,0.0144
1898.0,0.0145
1897.0,0.0145
1896.0,0.0145
1895.0,0.0144
1894.0,0.0144
1893.0,0.0144
1892.0,0.0145
1891.0,0.0145
1890.0,0.0145
1889.0,0.0145
1888.0,0.0145
1887.0,0.0145
1886.0,0.0145
1885.0,0.0145
1884.0,0.0145
1883.0,0.0145
1882.0,0.0145
1881.0,0.0145
1880.0,0.0145
1879.0,0.0145
1878.0,0.0144
1877.0,0.0144
1876.0,0.0144
1875.0,0.0144
1874.0,0.0144
1873.0,0.0144
1872.0,0.0144
1871.0,0.0144
1870.0,0.0144
1869.0,0.0145
1868.0,0.0146
1867.0,0.0146
1866.0,0.0146
1865.0,0.0145
1864.0,0.0145
1863.0,0.0144
1862.0,0.0144
1861.0,0.0145
1860.0,0.0145
1859.0,0.0145
1858.0,0.0145
1857.0,0.0145
1856.0,0.0145
1855.0,0.0145
1854.0,0.0145
1853.0,0.0145
1852.0,0.0145
1851.0,0.0145
1850.0,0.0145
1849.0,0.0144
1848.0,0.0144
1847.0,0.0145
1846.0,0.0145
1845.0,0.0145
1844.0,0.0145
1843.0,0.0145
1842.0,0.0145
1841.0,0.0146
1840.0,0.0146
1839.0,0.0146
1838.0,0.0145
1837.0,0.0145
1836.0,0.0146
1835.0,0.0146
1834.0,0.0146
1833.0,0.0146
1832.0,0.0147
1831.0,0.0147
1830.0,0.0146
1829.0,0.0146
1828.0,0.0146
1827.0,0.0146
1826.0,0.0146
1825.0,0.0146
1824.0,0.0146
1823.0,0.0145
1822.0,0.0145
1821.0,0.0144
1820.0,0.0144
1819.0,0.0144
1818.0,0.0145
1817.0,0.0145
1816.0,0.0146
1815.0,0.0146
1814.0,0.0145
1813.0,0.0145
1812.0,0.0145
1811.0,0.0145
1810.0,0.0145
1809.0,0.0145
1808.0,0.0145
1807.0,0.0145
1806.0,0.0145
1805.0,0.0146
1804.0,0.0146
1803.0,0.0146
1802.0,0.0146
1801.0,0.0146
1800.0,0.0147
1799.0,0.0147
1798.0,0.0146
1797.0,0.0146
1796.0,0.0146
1795.0,0.0145
1794.0,0.0144
1793.0,0.0144
1792.0,0.0145
1791.0,0.0146
1790.0,0.0146
1789.0,0.0147
1788.0,0.0147
1787.0,0.0147
1786.0,0.0147
1785.0,0.0147
1784.0,0.0147
1783.0,0.0147
1782.0,0.0147
1781.0,0.0147
1780.0,0.0147
1779.0,0.0147
1778.0,0.0147
1777.0,0.0147
1776.0,0.0147
1775.0,0.0148
1774.0,0.0148
1773.0,0.0147
1772.0,0.0147
1771.0,0.0147
1770.0,0.0147
1769.0,0.0148
1768.0,0.0148
1767.0,0.0148
1766.0,0.0148
1765.0,0.0148
1764.0,0.0148
1763.0,0.0148
1762.0,0.0148
1761.0,0.0148
1760.0,0.0148
1759.0,0.0148
1758.0,0.0149
1757.0,0.0149
1756.0,0.015
1755.0,0.015
1754.0,0.015
1753.0,0.0149
1752.0,0.015
1751.0,0.015
1750.0,0.0151
1749.0,0.0153
1748.0,0.0154
1747.0,0.0154
1746.0,0.0154
1745.0,0.0155
1744.0,0.0155
1743.0,0.0156
1742.0,0.0156
1741.0,0.0156
1740.0,0.0156
1739.0,0.0156
1738.0,0.0157
1737.0,0.0158
1736.0,0.0158
1735.0,0.0158
1734.0,0.0158
1733.0,0.0159
1732.0,0.0159
1731.0,0.0159
1730.0,0.016
1729.0,0.016
1728.0,0.016
1727.0,0.016
1726.0,0.016
1725.0,0.0161
1724.0,0.0161
1723.0,0.0161
1722.0,0.0162
1721.0,0.0162
1720.0,0.0163
1719.0,0.0163
1718.0,0.0163
1717.0,0.0164
1716.0,0.0165
1715.0,0.0166
1714.0,0.0167
1713.0,0.0167
1712.0,0.0168
1711.0,0.0168
1710.0,0.0169
1709.0,0.0169
1708.0,0.017
1707.0,0.017
1706.0,0.017
1705.0,0.0171
1704.0,0.0173
1703.0,0.0175
1702.0,0.0176
1701.0,0.0176
1700.0,0.0178
1699.0,0.0179
1698.0,0.018
1697.0,0.0183
1696.0,0.0185
1695.0,0.0185
1694.0,0.0185
1693.0,0.0186
1692.0,0.0188
1691.0,0.019
1690.0,0.0192
1689.0,0.0194
1688.0,0.0196
1687.0,0.0198
1686.0,0.0199
1685.0,0.0201
1684.0,0.0204
1683.0,0.0206
1682.0,0.0207
1681.0,0.0209
1680.0,0.0211
1679.0,0.0213
1678.0,0.0215
1677.0,0.0217
1676.0,0.0219
1675.0,0.0222
1674.0,0.0223
1673.0,0.0225
1672.0,0.0227
1671.0,0.0229
1670.0,0.0233
1669.0,0.0236
1668.0,0.0239
1667.0,0.024
1666.0,0.0241
1665.0,0.0242
1664.0,0.0244
1663.0,0.0247
1662.0,0.025
1661.0,0.0252
1660.0,0.0254
1659.0,0.0256
1658.0,0.0258
1657.0,0.026
1656.0,0.0261
1655.0,0.0263
1654.0,0.0268
1653.0,0.0278
1652.0,0.0282
1651.0,0.0281
1650.0,0.0282
1649.0,0.0284
1648.0,0.0289
1647.0,0.0297
1646.0,0.0304
1645.0,0.0308
1644.0,0.0312
1643.0,0.0315
1642.0,0.0319
1641.0,0.0321
1640.0,0.0321
1639.0,0.032
1638.0,0.0318
1637.0,0.0314
1636.0,0.0309
1635.0,0.0305
1634.0,0.0299
1633.0,0.0295
1632.0,0.0291
1631.0,0.0288
1630.0,0.0283
1629.0,0.0279
1628.0,0.0274
1627.0,0.0269
1626.0,0.0264
1625.0,0.0259
1624.0,0.0253
1623.0,0.0248
1622.0,0.0244
1621.0,0.0241
1620.0,0.0238
1619.0,0.0236
1618.0,0.0234
1617.0,0.0232
1616.0,0.0231
1615.0,0.0229
1614.0,0.0227
1613.0,0.0226
1612.0,0.0225
1611.0,0.0223
1610.0,0.0222
1609.0,0.0221
1608.0,0.022
1607.0,0.0219
1606.0,0.0218
1605.0,0.0217
1604.0,0.0215
1603.0,0.0214
1602.0,0.0213
1601.0,0.0211
1600.0,0.021
1599.0,0.0209
1598.0,0.0208
1597.0,0.0208
1596.0,0.0207
1595.0,0.0207
1594.0,0.0207
1593.0,0.0207
1592.0,0.0206
1591.0,0.0206
1590.0,0.0206
1589.0,0.0205
1588.0,0.0204
1587.0,0.0203
1586.0,0.0203
1585.0,0.0203
1584.0,0.0202
1583.0,0.0202
1582.0,0.0201
1581.0,0.0201
1580.0,0.0201
1579.0,0.02
1578.0,0.0199
1577.0,0.0198
1576.0,0.0198
1575.0,0.0198
1574.0,0.0197
1573.0,0.0196
1572.0,0.0195
1571.0,0.0193
1570.0,0.0192
1569.0,0.0191
1568.0,0.0191
1567.0,0.0191
1566.0,0.019
1565.0,0.019
1564.0,0.0189
1563.0,0.0188
1562.0,0.0188
1561.0,0.0186
1560.0,0.0182
1559.0,0.0182
1558.0,0.0183
1557.0,0.0182
1556.0,0.0182
1555.0,0.0183
1554.0,0.0183
1553.0,0.0182
1552.0,0.0181
1551.0,0.0181
1550.0,0.018
1549.0,0.018
1548.0,0.0179
1547.0,0.0179
1546.0,0.0178
1545.0,0.0178
1544.0,0.0178
1543.0,0.0178
1542.0,0.0176
1541.0,0.0175
1540.0,0.0175
1539.0,0.0174
1538.0,0.0171
1537.0,0.0171
1536.0,0.0171
1535.0,0.0171
1534.0,0.017
1533.0,0.0169
1532.0,0.0168
1531.0,0.0167
1530.0,0.0166
1529.0,0.0166
1528.0,0.0166
1527.0,0.0165
1526.0,0.0164
1525.0,0.0162
1524.0,0.0162
1523.0,0.0161
1522.0,0.0161
1521.0,0.0162
1520.0,0.0161
1519.0,0.016
1518.0,0.0159
1517.0,0.0159
1516.0,0.0159
1515.0,0.0158
1514.0,0.0157
1513.0,0.0157
1512.0,0.0157
1511.0,0.0158
1510.0,0.0158
1509.0,0.0159
1508.0,0.016
1507.0,0.0161
1506.0,0.0159
1505.0,0.0157
1504.0,0.0156
1503.0,0.0156
1502.0,0.0156
1501.0,0.0156
1500.0,0.0155
1499.0,0.0155
1498.0,0.0155
1497.0,0.0156
1496.0,0.0157
1495.0,0.0156
1494.0,0.0156
1493.0,0.0156
1492.0,0.0156
1491.0,0.0156
1490.0,0.0157
1489.0,0.0159
1488.0,0.0161
1487.0,0.0161
1486.0,0.0162
1485.0,0.0164
1484.0,0.0166
1483.0,0.0168
1482.0,0.0171
1481.0,0.0175
1480.0,0.0179
1479.0,0.0184
1478.0,0.0189
1477.0,0.0197
1476.0,0.0207
1475.0,0.0217
1474.0,0.0233
1473.0,0.0265
1472.0,0.0305
1471.0,0.0338
1470.0,0.0368
1469.0,0.0401
1468.0,0.0437
1467.0,0.0478
1466.0,0.0529
1465.0,0.0589
1464.0,0.064
1463.0,0.0674
1462.0,0.0695
1461.0,0.0711
1460.0,0.0723
1459.0,0.0732
1458.0,0.0747
1457.0,0.0768
1456.0,0.078
1455.0,0.0782
1454.0,0.0781
1453.0,0.0778
1452.0,0.0772
1451.0,0.0761
1450.0,0.0743
1449.0,0.0716
1448.0,0.0678
1447.0,0.0635
1446.0,0.0596
1445.0,0.0561
1444.0,0.0529
1443.0,0.0501
1442.0,0.0479
1441.0,0.0464
1440.0,0.0453
1439.0,0.0446
1438.0,0.0447
1437.0,0.0452
1436.0,0.0453
1435.0,0.0443
1434.0,0.0427
1433.0,0.0405
1432.0,0.0381
1431.0,0.0357
1430.0,0.0337
1429.0,0.0322
1428.0,0.031
1427.0,0.0302
1426.0,0.0296
1425.0,0.029
1424.0,0.0283
1423.0,0.0278
1422.0,0.0274
1421.0,0.027
1420.0,0.0265
1419.0,0.0261
1418.0,0.0258
1417.0,0.0255
1416.0,0.0251
1415.0,0.0248
1414.0,0.0246
1413.0,0.0243
1412.0,0.024
1411.0,0.0238
1410.0,0.0235
1409.0,0.0233
1408.0,0.023
1407.0,0.0228
1406.0,0.0226
1405.0,0.0224
1404.0,0.0221
1403.0,0.0219
1402.0,0.0217
1401.0,0.0214
1400.0,0.0211
1399.0,0.0209
1398.0,0.0208
1397.0,0.0205
1396.0,0.0203
1395.0,0.0201
1394.0,0.02
1393.0,0.0198
1392.0,0.0197
1391.0,0.0197
1390.0,0.0198
1389.0,0.0199
1388.0,0.0204
1387.0,0.0215
1386.0,0.0233
1385.0,0.026
1384.0,0.03
1383.0,0.036
1382.0,0.0442
1381.0,0.0547
1380.0,0.0677
1379.0,0.0826
1378.0,0.0972
1377.0,0.1086
1376.0,0.1145
1375.0,0.113
1374.0,0.1049
1373.0,0.0938
1372.0,0.0832
1371.0,0.0737
1370.0,0.0652
1369.0,0.058
1368.0,0.0526
1367.0,0.049
1366.0,0.0467
1365.0,0.0454
1364.0,0.045
1363.0,0.0453
1362.0,0.0463
1361.0,0.0475
1360.0,0.0484
1359.0,0.0488
1358.0,0.0484
1357.0,0.0472
1356.0,0.0454
1355.0,0.0433
1354.0,0.0411
1353.0,0.0391
1352.0,0.0374
1351.0,0.036
1350.0,0.0348
1349.0,0.0337
1348.0,0.0329
1347.0,0.0321
1346.0,0.0314
1345.0,0.0308
1344.0,0.0303
1343.0,0.0298
1342.0,0.0294
1341.0,0.029
1340.0,0.0288
1339.0,0.0286
1338.0,0.0284
1337.0,0.0283
1336.0,0.0282
1335.0,0.0281
1334.0,0.0282
1333.0,0.0283
1332.0,0.0285
1331.0,0.0287
1330.0,0.0287
1329.0,0.0287
1328.0,0.0286
1327.0,0.0283
1326.0,0.028
1325.0,0.0277
1324.0,0.0274
1323.0,0.027
1322.0,0.0267
1321.0,0.0265
1320.0,0.0262
1319.0,0.026
1318.0,0.0259
1317.0,0.0257
1316.0,0.0256
1315.0,0.0254
1314.0,0.0253
1313.0,0.0252
1312.0,0.0251
1311.0,0.0251
1310.0,0.0252
1309.0,0.0254
1308.0,0.0257
1307.0,0.0262
1306.0,0.0267
1305.0,0.0271
1304.0,0.0272
1303.0,0.0272
1302.0,0.0271
1301.0,0.0269
1300.0,0.0269
1299.0,0.027
1298.0,0.0271
1297.0,0.0272
1296.0,0.0272
1295.0,0.0271
1294.0,0.0269
1293.0,0.0267
1292.0,0.0265
1291.0,0.0263
1290.0,0.026
1289.0,0.0258
1288.0,0.0256
1287.0,0.0254
1286.0,0.0253
1285.0,0.0251
1284.0,0.0251
1283.0,0.025
1282.0,0.0249
1281.0,0.0248
1280.0,0.0247
1279.0,0.0247
1278.0,0.0246
1277.0,0.0245
1276.0,0.0245
1275.0,0.0244
1274.0,0.0244
1273.0,0.0244
1272.0,0.0244
1271.0,0.0244
1270.0,0.0244
1269.0,0.0244
1268.0,0.0244
1267.0,0.0245
1266.0,0.0246
1265.0,0.0247
1264.0,0.0249
1263.0,0.025
1262.0,0.0252
1261.0,0.0254
1260.0,0.0257
1259.0,0.026
1258.0,0.0264
1257.0,0.0268
1256.0,0.0271
1255.0,0.0271
1254.0,0.0269
1253.0,0.0266
1252.0,0.0263
1251.0,0.026
1250.0,0.0258
1249.0,0.0256
1248.0,0.0254
1247.0,0.0252
1246.0,0.0251
1245.0,0.025
1244.0,0.0249
1243.0,0.0248
1242.0,0.0248
1241.0,0.0247
1240.0,0.0247
1239.0,0.0246
1238.0,0.0246
1237.0,0.0246
1236.0,0.0246
1235.0,0.0246
1234.0,0.0246
1233.0,0.0247
1232.0,0.0247
1231.0,0.0247
1230.0,0.0247
1229.0,0.0247
1228.0,0.0247
1227.0,0.0247
1226.0,0.0248
1225.0,0.0249
1224.0,0.0251
1223.0,0.0254
1222.0,0.0257
1221.0,0.0259
1220.0,0.0261
1219.0,0.0261
1218.0,0.0261
1217.0,0.0261
1216.0,0.0261
1215.0,0.026
1214.0,0.0259
1213.0,0.0258
1212.0,0.0256
1211.0,0.0256
1210.0,0.0256
1209.0,0.0256
1208.0,0.0256
1207.0,0.0256
1206.0,0.0256
1205.0,0.0256
1204.0,0.0257
1203.0,0.0258
1202.0,0.0258
1201.0,0.0259
1200.0,0.0259
1199.0,0.026
1198.0,0.0261
1197.0,0.0262
1196.0,0.0263
1195.0,0.0265
1194.0,0.0266
1193.0,0.0267
1192.0,0.0268
1191.0,0.027
1190.0,0.0271
1189.0,0.0272
1188.0,0.0273
1187.0,0.0275
1186.0,0.0276
1185.0,0.0276
1184.0,0.0277
1183.0,0.0279
1182.0,0.0281
1181.0,0.0283
1180.0,0.0286
1179.0,0.0289
1178.0,0.0294
1177.0,0.0298
1176.0,0.0304
1175.0,0.0312
1174.0,0.0322
1173.0,0.0335
1172.0,0.0351
1171.0,0.0368
1170.0,0.0385
1169.0,0.04
1168.0,0.0412
1167.0,0.0418
1166.0,0.0421
1165.0,0.0421
1164.0,0.042
1163.0,0.0419
1162.0,0.0418
1161.0,0.0417
1160.0,0.0418
1159.0,0.042
1158.0,0.0422
1157.0,0.0426
1156.0,0.0431
1155.0,0.0436
1154.0,0.0442
1153.0,0.0448
1152.0,0.0454
1151.0,0.0458
1150.0,0.046
1149.0,0.0462
1148.0,0.0464
1147.0,0.0467
1146.0,0.0471
1145.0,0.0474
1144.0,0.0478
1143.0,0.0482
1142.0,0.0485
1141.0,0.0489
1140.0,0.0493
1139.0,0.0497
1138.0,0.0502
1137.0,0.0506
1136.0,0.051
1135.0,0.0514
1134.0,0.0518
1133.0,0.0521
1132.0,0.0524
1131.0,0.0527
1130.0,0.053
1129.0,0.0532
1128.0,0.0533
1127.0,0.0534
1126.0,0.0535
1125.0,0.0534
1124.0,0.0532
1123.0,0.0529
1122.0,0.0526
1121.0,0.0522
1120.0,0.0519
1119.0,0.0515
1118.0,0.0511
1117.0,0.0508
1116.0,0.0504
1115.0,0.05
1114.0,0.0496
1113.0,0.0492
1112.0,0.0488
1111.0,0.0486
1110.0,0.0484
1109.0,0.0482
1108.0,0.0482
1107.0,0.0482
1106.0,0.0483
1105.0,0.0485
1104.0,0.0485
1103.0,0.0485
1102.0,0.0484
1101.0,0.0481
1100.0,0.0477
1099.0,0.0472
1098.0,0.0466
1097.0,0.046
1096.0,0.0455
1095.0,0.0449
1094.0,0.0445
1093.0,0.0442
1092.0,0.0439
1091.0,0.0436
1090.0,0.0433
1089.0,0.043
1088.0,0.0426
1087.0,0.0422
1086.0,0.0419
1085.0,0.0415
1084.0,0.0413
1083.0,0.041
1082.0,0.0407
1081.0,0.0404
1080.0,0.0401
1079.0,0.0398
1078.0,0.0394
1077.0,0.039
1076.0,0.0386
1075.0,0.0381
1074.0,0.0376
1073.0,0.0372
1072.0,0.0368
1071.0,0.0365
1070.0,0.0362
1069.0,0.0358
1068.0,0.0354
1067.0,0.035
1066.0,0.0347
1065.0,0.0343
1064.0,0.034
1063.0,0.0336
1062.0,0.0332
1061.0,0.0329
1060.0,0.0327
1059.0,0.0324
1058.0,0.0322
1057.0,0.032
1056.0,0.0318
1055.0,0.0317
1054.0,0.0316
1053.0,0.0315
1052.0,0.0314
1051.0,0.0313
1050.0,0.0312
1049.0,0.0312
1048.0,0.0313
1047.0,0.0313
1046.0,0.0313
1045.0,0.0313
1044.0,0.0312
1043.0,0.0309
1042.0,0.0307
1041.0,0.0304
1040.0,0.0302
1039.0,0.03
1038.0,0.0299
1037.0,0.0298
1036.0,0.0297
1035.0,0.0296
1034.0,0.0294
1033.0,0.0293
1032.0,0.0292
1031.0,0.029
1030.0,0.0288
1029.0,0.0287
1028.0,0.0285
1027.0,0.0285
1026.0,0.0285
1025.0,0.0284
1024.0,0.0284
1023.0,0.0283
1022.0,0.0283
1021.0,0.0282
1020.0,0.0282
1019.0,0.0282
1018.0,0.0282
1017.0,0.0281
1016.0,0.0281
1015.0,0.028
1014.0,0.028
1013.0,0.0281
1012.0,0.0281
1011.0,0.0282
1010.0,0.0283
1009.0,0.0284
1008.0,0.0286
1007.0,0.0289
1006.0,0.0294
1005.0,0.0299
1004.0,0.0307
1003.0,0.0319
1002.0,0.0335
1001.0,0.0355
1000.0,0.0377
999.0,0.0396
998.0,0.0406
997.0,0.0406
996.0,0.0395
995.0,0.0378
994.0,0.0359
993.0,0.0342
992.0,0.0327
991.0,0.0316
990.0,0.0308
989.0,0.0301
988.0,0.0297
987.0,0.0295
986.0,0.0294
985.0,0.0294
984.0,0.0295
983.0,0.0296
982.0,0.0299
981.0,0.0306
980.0,0.0318
979.0,0.0336
978.0,0.0359
977.0,0.0386
976.0,0.0414
975.0,0.044
974.0,0.0458
973.0,0.0466
972.0,0.046
971.0,0.0443
970.0,0.0419
969.0,0.0394
968.0,0.0372
967.0,0.0354
966.0,0.034
965.0,0.033
964.0,0.0323
963.0,0.0318
962.0,0.0313
961.0,0.0309
960.0,0.0305
959.0,0.0301
958.0,0.0297
957.0,0.0294
956.0,0.0291
955.0,0.0289
954.0,0.0287
953.0,0.0286
952.0,0.0285
951.0,0.0284
950.0,0.0284
949.0,0.0283
948.0,0.0283
947.0,0.0282
946.0,0.0282
945.0,0.0283
944.0,0.0286
943.0,0.0289
942.0,0.0292
941.0,0.0294
940.0,0.0295
939.0,0.0294
938.0,0.0291
937.0,0.0288
936.0,0.0284
935.0,0.028
934.0,0.0278
933.0,0.0275
932.0,0.0273
931.0,0.0272
930.0,0.0271
929.0,0.027
928.0,0.0269
927.0,0.0269
926.0,0.0269
925.0,0.0269
924.0,0.0269
923.0,0.027
922.0,0.027
921.0,0.027
920.0,0.027
919.0,0.0269
918.0,0.0269
917.0,0.0269
916.0,0.0269
915.0,0.0269
914.0,0.027
913.0,0.027
912.0,0.0271
911.0,0.0272
910.0,0.0273
909.0,0.0274
908.0,0.0276
907.0,0.0278
906.0,0.0283
905.0,0.029
904.0,0.03
903.0,0.0312
902.0,0.0325
901.0,0.0339
900.0,0.0351
899.0,0.0358
898.0,0.0359
897.0,0.0354
896.0,0.0344
895.0,0.0333
894.0,0.0323
893.0,0.0315
892.0,0.0309
891.0,0.0304
890.0,0.03
889.0,0.0297
888.0,0.0296
887.0,0.0295
886.0,0.0295
885.0,0.0294
884.0,0.0294
883.0,0.0294
882.0,0.0295
881.0,0.0295
880.0,0.0296
879.0,0.0297
878.0,0.0297
877.0,0.0298
876.0,0.0298
875.0,0.0298
874.0,0.0297
873.0,0.0297
872.0,0.0297
871.0,0.0297
870.0,0.0298
869.0,0.0299
868.0,0.03
867.0,0.0301
866.0,0.0301
865.0,0.0302
864.0,0.0303
863.0,0.0304
862.0,0.0305
861.0,0.0305
860.0,0.0306
859.0,0.0307
858.0,0.0308
857.0,0.0309
856.0,0.031
855.0,0.031
854.0,0.031
853.0,0.0312
852.0,0.0314
851.0,0.0318
850.0,0.0323
849.0,0.0327
848.0,0.0331
847.0,0.0336
846.0,0.0345
845.0,0.036
844.0,0.0382
843.0,0.041
842.0,0.0433
841.0,0.0443
840.0,0.0437
839.0,0.0418
838.0,0.0396
837.0,0.0378
836.0,0.0366
835.0,0.0359
834.0,0.0354
833.0,0.0351
832.0,0.0348
831.0,0.0345
830.0,0.0343
829.0,0.034
828.0,0.0339
827.0,0.0337
826.0,0.0336
825.0,0.0336
824.0,0.0335
823.0,0.0335
822.0,0.0335
821.0,0.0335
820.0,0.0336
819.0,0.0338
818.0,0.0341
817.0,0.0344
816.0,0.0349
815.0,0.0355
814.0,0.0365
813.0,0.0378
812.0,0.0394
811.0,0.0409
810.0,0.0422
809.0,0.0429
808.0,0.0432
807.0,0.0429
806.0,0.0422
805.0,0.0413
804.0,0.0403
803.0,0.0394
802.0,0.0387
801.0,0.0381
800.0,0.0377
799.0,0.0375
798.0,0.0373
797.0,0.0372
796.0,0.0371
795.0,0.037
794.0,0.037
793.0,0.037
792.0,0.0369
791.0,0.0368
790.0,0.0368
789.0,0.0367
788.0,0.0367
787.0,0.0368
786.0,0.0369
785.0,0.0369
784.0,0.0369
783.0,0.0369
782.0,0.0369
781.0,0.037
780.0,0.0371
779.0,0.0371
778.0,0.0371
777.0,0.0372
776.0,0.0374
775.0,0.0377
774.0,0.038
773.0,0.0381
772.0,0.0381
771.0,0.0381
770.0,0.0381
769.0,0.038
768.0,0.0379
767.0,0.0377
766.0,0.0376
765.0,0.0376
764.0,0.0376
763.0,0.0376
762.0,0.0377
761.0,0.0378
760.0,0.0378
759.0,0.0378
758.0,0.0378
757.0,0.0378
756.0,0.0379
755.0,0.038
754.0,0.0381
753.0,0.038
752.0,0.0379
751.0,0.0378
750.0,0.0379
749.0,0.038
748.0,0.0381
747.0,0.038
746.0,0.038
745.0,0.0381
744.0,0.0381
743.0,0.038
742.0,0.0379
741.0,0.038
740.0,0.0383
739.0,0.0386
738.0,0.0388
737.0,0.0389
736.0,0.0388
735.0,0.0387
734.0,0.0386
733.0,0.0385
732.0,0.0385
731.0,0.0385
730.0,0.0386
729.0,0.0387
728.0,0.0388
727.0,0.0388
726.0,0.0388
725.0,0.0387
724.0,0.0385
723.0,0.0384
722.0,0.0384
721.0,0.0388
720.0,0.0393
719.0,0.0396
718.0,0.0396
717.0,0.0396
716.0,0.0395
715.0,0.0395
714.0,0.0396
713.0,0.0396
712.0,0.0395
711.0,0.0392
710.0,0.039
709.0,0.0387
708.0,0.0385
707.0,0.0383
706.0,0.0382
705.0,0.0383
704.0,0.0387
703.0,0.039
702.0,0.0392
701.0,0.0392
700.0,0.0393
699.0,0.0393
698.0,0.0392
697.0,0.0392
696.0,0.0391
695.0,0.0391
694.0,0.0395
693.0,0.0401
692.0,0.0405
691.0,0.0402
690.0,0.0395
689.0,0.0391
688.0,0.0396
687.0,0.0404
686.0,0.0408
685.0,0.0408
684.0,0.0407
683.0,0.0408
682.0,0.041
681.0,0.041
680.0,0.0411
679.0,0.0414
678.0,0.0418
677.0,0.0422
676.0,0.0423
675.0,0.042
674.0,0.0416
673.0,0.0413
672.0,0.0412
671.0,0.0418
670.0,0.0428
669.0,0.0439
668.0,0.0452
667.0,0.0456
666.0,0.044
665.0,0.0421
664.0,0.0413
663.0,0.0415
662.0,0.0422
661.0,0.0429
660.0,0.0433
659.0,0.0434
658.0,0.0436
657.0,0.0439
656.0,0.0442
655.0,0.0441
654.0,0.0438
653.0,0.0437
652.0,0.0437
651.0,0.0435
650.0,0.0434
649.0,0.0441
648.0,0.0456
647.0,0.0471
646.0,0.0479
645.0,0.0481
644.0,0.0478
643.0,0.0472
642.0,0.0465
641.0,0.0462
640.0,0.0465
639.0,0.0475
638.0,0.0492
637.0,0.0518
636.0,0.0545
635.0,0.056
634.0,0.0556
633.0,0.0538
632.0,0.0522
631.0,0.0514
630.0,0.0512
629.0,0.0515
628.0,0.0518
627.0,0.0521
626.0,0.0519
625.0,0.0514
624.0,0.0506
623.0,0.0498
622.0,0.0493
621.0,0.0495
620.0,0.0501
619.0,0.0508
618.0,0.0511
617.0,0.0513
616.0,0.0512
615.0,0.0508
614.0,0.0501
613.0,0.0494
612.0,0.0489
611.0,0.0485
610.0,0.0483
609.0,0.0482
608.0,0.048
607.0,0.0473
606.0,0.0462
605.0,0.0455
604.0,0.0457
603.0,0.0467
602.0,0.048
601.0,0.0489
600.0,0.0488
