cm-1,A
4000.0,0.00401400208620073
3999.0,0.00401400208620073
3998.0,0.00401400208620073
3997.0,0.003970171588923321
3996.0,0.003970171588923321
3995.0,0.00401400208620073
3994.0,0.0040578370074493275
3993.0,0.004101676353562844
3992.0,0.004233220950025984
3991.0,0.004320939488377862
3990.0,0.004408675747646695
3989.0,0.004408675747646695
3988.0,0.004408675747646695
3987.0,0.0043648054024501
3986.0,0.004320939488377862
3985.0,0.004233220950025984
3984.0,0.004145520125434121
3983.0,0.004101676353562844
3982.0,0.0040578370074493275
3981.0,0.0040578370074493275
3980.0,0.004145520125434121
3979.0,0.004233220950025984
3978.0,0.004320939488377862
3977.0,0.0043648054024501
3976.0,0.004320939488377862
3975.0,0.004277078004534696
3974.0,0.004233220950025984
3973.0,0.004233220950025984
3972.0,0.004277078004534696
3971.0,0.004320939488377862
3970.0,0.0043648054024501
3969.0,0.0043648054024501
3968.0,0.004320939488377862
3967.0,0.004189368323957332
3966.0,0.004101676353562844
3965.0,0.0040578370074493275
3964.0,0.004101676353562844
3963.0,0.004233220950025984
3962.0,0.004408675747646695
3961.0,0.004452550524862486
3960.0,0.004452550524862486
3959.0,0.004408675747646695
3958.0,0.004408675747646695
3957.0,0.004408675747646695
3956.0,0.004452550524862486
3955.0,0.004452550524862486
3954.0,0.004408675747646695
3953.0,0.004277078004534696
3952.0,0.004189368323957332
3951.0,0.004101676353562844
3950.0,0.0040578370074493275
3949.0,0.0040578370074493275
3948.0,0.00401400208620073
3947.0,0.00401400208620073
3946.0,0.00401400208620073
3945.0,0.00401400208620073
3944.0,0.003970171588923321
3943.0,0.0038387066319929275
3942.0,0.003707281458678491
3941.0,0.0036634819042162814
3940.0,0.003707281458678491
3939.0,0.0038387066319929275
3938.0,0.00401400208620073
3937.0,0.004145520125434121
3936.0,0.004233220950025984
3935.0,0.0043648054024501
3934.0,0.004452550524862486
3933.0,0.0044964297349936455
3932.0,0.0044964297349936455
3931.0,0.004408675747646695
3930.0,0.004320939488377862
3929.0,0.004277078004534696
3928.0,0.004277078004534696
3927.0,0.004320939488377862
3926.0,0.004452550524862486
3925.0,0.0044964297349936455
3924.0,0.004452550524862486
3923.0,0.004277078004534696
3922.0,0.0040578370074493275
3921.0,0.003926345514724705
3920.0,0.003926345514724705
3919.0,0.00401400208620073
3918.0,0.004145520125434121
3917.0,0.004145520125434121
3916.0,0.004101676353562844
3915.0,0.0040578370074493275
3914.0,0.004101676353562844
3913.0,0.004189368323957332
3912.0,0.004277078004534696
3911.0,0.0043648054024501
3910.0,0.004320939488377862
3909.0,0.004233220950025984
3908.0,0.004189368323957332
3907.0,0.004145520125434121
3906.0,0.004145520125434121
3905.0,0.004145520125434121
3904.0,0.004101676353562844
3903.0,0.00401400208620073
3902.0,0.0040578370074493275
3901.0,0.004277078004534696
3900.0,0.0044964297349936455
3899.0,0.00458420145758498
3898.0,0.004540313378935901
3897.0,0.004408675747646695
3896.0,0.004277078004534696
3895.0,0.004189368323957332
3894.0,0.00401400208620073
3893.0,0.0038825238627120395
3892.0,0.003794893821675638
3891.0,0.0037510854308679953
3890.0,0.003794893821675638
3889.0,0.0038825238627120395
3888.0,0.0040578370074493275
3887.0,0.004233220950025984
3886.0,0.004277078004534696
3885.0,0.004101676353562844
3884.0,0.003926345514724705
3883.0,0.0038825238627120395
3882.0,0.0040578370074493275
3881.0,0.004277078004534696
3880.0,0.004320939488377862
3879.0,0.004189368323957332
3878.0,0.00401400208620073
3877.0,0.003970171588923321
3876.0,0.00401400208620073
3875.0,0.00401400208620073
3874.0,0.003970171588923321
3873.0,0.0038825238627120395
3872.0,0.0038825238627120395
3871.0,0.00401400208620073
3870.0,0.004145520125434121
3869.0,0.0040578370074493275
3868.0,0.003926345514724705
3867.0,0.003926345514724705
3866.0,0.00401400208620073
3865.0,0.004101676353562844
3864.0,0.004101676353562844
3863.0,0.004101676353562844
3862.0,0.004145520125434121
3861.0,0.004233220950025984
3860.0,0.004277078004534696
3859.0,0.004277078004534696
3858.0,0.004145520125434121
3857.0,0.0038825238627120395
3856.0,0.0035758960449088217
3855.0,0.0033570086445275926
3854.0,0.0033132443998284966
3853.0,0.0032257291386954545
3852.0,0.0030944893043338695
3851.0,0.0032694845648473247
3850.0,0.0037510854308679953
3849.0,0.004189368323957332
3848.0,0.004408675747646695
3847.0,0.004408675747646695
3846.0,0.0043648054024501
3845.0,0.004320939488377862
3844.0,0.004189368323957332
3843.0,0.003970171588923321
3842.0,0.0037510854308679953
3841.0,0.0035758960449088217
3840.0,0.003488327845821315
3839.0,0.003488327845821315
3838.0,0.0035321097382827737
3837.0,0.0035321097382827737
3836.0,0.0035321097382827737
3835.0,0.0035758960449088217
3834.0,0.003707281458678491
3833.0,0.003794893821675638
3832.0,0.003794893821675638
3831.0,0.0037510854308679953
3830.0,0.0036634819042162814
3829.0,0.003707281458678491
3828.0,0.003794893821675638
3827.0,0.003926345514724705
3826.0,0.003970171588923321
3825.0,0.003970171588923321
3824.0,0.003926345514724705
3823.0,0.003970171588923321
3822.0,0.0040578370074493275
3821.0,0.003970171588923321
3820.0,0.003707281458678491
3819.0,0.0035321097382827737
3818.0,0.003707281458678491
3817.0,0.004101676353562844
3816.0,0.004408675747646695
3815.0,0.004452550524862486
3814.0,0.004408675747646695
3813.0,0.004540313378935901
3812.0,0.004671990922590297
3811.0,0.004759798137184523
3810.0,0.004671990922590297
3809.0,0.004671990922590297
3808.0,0.004715892310740433
3807.0,0.004628093971837721
3806.0,0.004320939488377862
3805.0,0.00401400208620073
3804.0,0.003926345514724705
3803.0,0.0040578370074493275
3802.0,0.004320939488377862
3801.0,0.004320939488377862
3800.0,0.004145520125434121
3799.0,0.004101676353562844
3798.0,0.0043648054024501
3797.0,0.004671990922590297
3796.0,0.00484762310854614
3795.0,0.00484762310854614
3794.0,0.00484762310854614
3793.0,0.00484762310854614
3792.0,0.004935465843858511
3791.0,0.004935465843858511
3790.0,0.00489154225525934
3789.0,0.00484762310854614
3788.0,0.004803708402820517
3787.0,0.004759798137184523
3786.0,0.004715892310740433
3785.0,0.004671990922590297
3784.0,0.004671990922590297
3783.0,0.004628093971837721
3782.0,0.004671990922590297
3781.0,0.004671990922590297
3780.0,0.004715892310740433
3779.0,0.004628093971837721
3778.0,0.004540313378935901
3777.0,0.004452550524862486
3776.0,0.004452550524862486
3775.0,0.0044964297349936455
3774.0,0.0044964297349936455
3773.0,0.0044964297349936455
3772.0,0.004540313378935901
3771.0,0.004671990922590297
3770.0,0.004715892310740433
3769.0,0.004715892310740433
3768.0,0.004628093971837721
3767.0,0.004628093971837721
3766.0,0.004715892310740433
3765.0,0.004759798137184523
3764.0,0.004759798137184523
3763.0,0.004759798137184523
3762.0,0.004759798137184523
3761.0,0.004715892310740433
3760.0,0.004628093971837721
3759.0,0.0044964297349936455
3758.0,0.0043648054024501
3757.0,0.004233220950025984
3756.0,0.004101676353562844
3755.0,0.0038825238627120395
3754.0,0.003707281458678491
3753.0,0.0035758960449088217
3752.0,0.003619686766589858
3751.0,0.003794893821675638
3750.0,0.0038825238627120395
3749.0,0.0038387066319929275
3748.0,0.003794893821675638
3747.0,0.0038825238627120395
3746.0,0.004101676353562844
3745.0,0.004320939488377862
3744.0,0.004320939488377862
3743.0,0.004145520125434121
3742.0,0.004145520125434121
3741.0,0.0043648054024501
3740.0,0.004452550524862486
3739.0,0.004277078004534696
3738.0,0.0040578370074493275
3737.0,0.00401400208620073
3736.0,0.004101676353562844
3735.0,0.004101676353562844
3734.0,0.00401400208620073
3733.0,0.00401400208620073
3732.0,0.004101676353562844
3731.0,0.004233220950025984
3730.0,0.004408675747646695
3729.0,0.00458420145758498
3728.0,0.004759798137184523
3727.0,0.00489154225525934
3726.0,0.004979393875242044
3725.0,0.005023326350308999
3724.0,0.005067263269958211
3723.0,0.005111204635089406
3722.0,0.005111204635089406
3721.0,0.005023326350308999
3720.0,0.004935465843858511
3719.0,0.00484762310854614
3718.0,0.004715892310740433
3717.0,0.004628093971837721
3716.0,0.0044964297349936455
3715.0,0.004452550524862486
3714.0,0.004408675747646695
3713.0,0.004452550524862486
3712.0,0.004540313378935901
3711.0,0.004540313378935901
3710.0,0.00458420145758498
3709.0,0.004671990922590297
3708.0,0.004803708402820517
3707.0,0.004979393875242044
3706.0,0.005111204635089406
3705.0,0.005243055412371911
3704.0,0.00541891874010525
3703.0,0.005462895701502157
3702.0,0.00537494623139545
3701.0,0.005111204635089406
3700.0,0.00489154225525934
3699.0,0.00484762310854614
3698.0,0.005023326350308999
3697.0,0.005243055412371911
3696.0,0.00537494623139545
3695.0,0.0052870145684298375
3694.0,0.005067263269958211
3693.0,0.004803708402820517
3692.0,0.00458420145758498
3691.0,0.0044964297349936455
3690.0,0.0044964297349936455
3689.0,0.0044964297349936455
3688.0,0.004452550524862486
3687.0,0.004540313378935901
3686.0,0.004759798137184523
3685.0,0.005067263269958211
3684.0,0.005199100705396198
3683.0,0.005155150446602086
3682.0,0.005023326350308999
3681.0,0.00489154225525934
3680.0,0.004759798137184523
3679.0,0.004628093971837721
3678.0,0.0044964297349936455
3677.0,0.0044964297349936455
3676.0,0.004628093971837721
3675.0,0.004540313378935901
3674.0,0.004320939488377862
3673.0,0.004233220950025984
3672.0,0.004408675747646695
3671.0,0.004671990922590297
3670.0,0.00484762310854614
3669.0,0.00489154225525934
3668.0,0.004935465843858511
3667.0,0.005155150446602086
3666.0,0.00541891874010525
3665.0,0.005550862985963967
3664.0,0.005506877116487674
3663.0,0.00541891874010525
3662.0,0.005330978174470591
3661.0,0.0052870145684298375
3660.0,0.005243055412371911
3659.0,0.005243055412371911
3658.0,0.0052870145684298375
3657.0,0.00541891874010525
3656.0,0.005462895701502157
3655.0,0.005330978174470591
3654.0,0.005067263269958211
3653.0,0.004759798137184523
3652.0,0.004408675747646695
3651.0,0.004145520125434121
3650.0,0.004233220950025984
3649.0,0.004540313378935901
3648.0,0.004803708402820517
3647.0,0.005067263269958211
3646.0,0.005330978174470591
3645.0,0.005550862985963967
3644.0,0.005726851026829571
3643.0,0.00577085918230158
3642.0,0.00577085918230158
3641.0,0.005682847330363394
3640.0,0.005638848091999105
3639.0,0.005594853310833647
3638.0,0.005638848091999105
3637.0,0.005682847330363394
3636.0,0.00577085918230158
3635.0,0.005814871797682919
3634.0,0.00577085918230158
3633.0,0.005594853310833647
3632.0,0.0052870145684298375
3631.0,0.005111204635089406
3630.0,0.005155150446602086
3629.0,0.00537494623139545
3628.0,0.00537494623139545
3627.0,0.005330978174470591
3626.0,0.005462895701502157
3625.0,0.005682847330363394
3624.0,0.005814871797682919
3623.0,0.005858888873877532
3622.0,0.005858888873877532
3621.0,0.00590291041179003
3620.0,0.005990966876386672
3619.0,0.005990966876386672
3618.0,0.005814871797682919
3617.0,0.005638848091999105
3616.0,0.005506877116487674
3615.0,0.005462895701502157
3614.0,0.005462895701502157
3613.0,0.005506877116487674
3612.0,0.005550862985963967
3611.0,0.005682847330363394
3610.0,0.005814871797682919
3609.0,0.00590291041179003
3608.0,0.005990966876386672
3607.0,0.005990966876386672
3606.0,0.005990966876386672
3605.0,0.006035001804881146
3604.0,0.006079041198713275
3603.0,0.00612308505878878
3602.0,0.00612308505878878
3601.0,0.006035001804881146
3600.0,0.005946936412324799
3599.0,0.005858888873877532
3598.0,0.005814871797682919
3597.0,0.00590291041179003
3596.0,0.00612308505878878
3595.0,0.006387442061109638
3594.0,0.00656376950238835
3593.0,0.006519680930003435
3592.0,0.006299305179649828
3591.0,0.005946936412324799
3590.0,0.005638848091999105
3589.0,0.005506877116487674
3588.0,0.005594853310833647
3587.0,0.00577085918230158
3586.0,0.005946936412324799
3585.0,0.006035001804881146
3584.0,0.00612308505878878
3583.0,0.00612308505878878
3582.0,0.006079041198713275
3581.0,0.006079041198713275
3580.0,0.00612308505878878
3579.0,0.006167133386013823
3578.0,0.00621118618129457
3577.0,0.00625524344553785
3576.0,0.006299305179649828
3575.0,0.006387442061109638
3574.0,0.006431517210272464
3573.0,0.006387442061109638
3572.0,0.006299305179649828
3571.0,0.006167133386013823
3570.0,0.005990966876386672
3569.0,0.00590291041179003
3568.0,0.00590291041179003
3567.0,0.005990966876386672
3566.0,0.006035001804881146
3565.0,0.00612308505878878
3564.0,0.006299305179649828
3563.0,0.006475596832934416
3562.0,0.006607862550997545
3561.0,0.006607862550997545
3560.0,0.006519680930003435
3559.0,0.006431517210272464
3558.0,0.006431517210272464
3557.0,0.006475596832934416
3556.0,0.006431517210272464
3555.0,0.006431517210272464
3554.0,0.006343371384537999
3553.0,0.006299305179649828
3552.0,0.00621118618129457
3551.0,0.006167133386013823
3550.0,0.006167133386013823
3549.0,0.00625524344553785
3548.0,0.006387442061109638
3547.0,0.006475596832934416
3546.0,0.006519680930003435
3545.0,0.006519680930003435
3544.0,0.00656376950238835
3543.0,0.006519680930003435
3542.0,0.006475596832934416
3541.0,0.006431517210272464
3540.0,0.006475596832934416
3539.0,0.006607862550997545
3538.0,0.006784279525863024
3537.0,0.006872514894289861
3536.0,0.006828394969235152
3535.0,0.006784279525863024
3534.0,0.006828394969235152
3533.0,0.006872514894289861
3532.0,0.006916639301937977
3531.0,0.006784279525863024
3530.0,0.006607862550997545
3529.0,0.006475596832934416
3528.0,0.006431517210272464
3527.0,0.006431517210272464
3526.0,0.006519680930003435
3525.0,0.006696062080525422
3524.0,0.006872514894289861
3523.0,0.007004901568658406
3522.0,0.007004901568658406
3521.0,0.007004901568658406
3520.0,0.00696076819309055
3519.0,0.006916639301937977
3518.0,0.006828394969235152
3517.0,0.006740168563263094
3516.0,0.006607862550997545
3515.0,0.00656376950238835
3514.0,0.006475596832934416
3513.0,0.006475596832934416
3512.0,0.006519680930003435
3511.0,0.006607862550997545
3510.0,0.006740168563263094
3509.0,0.006872514894289861
3508.0,0.006872514894289861
3507.0,0.006784279525863024
3506.0,0.006696062080525422
3505.0,0.006607862550997545
3504.0,0.006607862550997545
3503.0,0.006607862550997545
3502.0,0.006519680930003435
3501.0,0.006431517210272464
3500.0,0.006343371384537999
3499.0,0.006343371384537999
3498.0,0.006387442061109638
3497.0,0.006519680930003435
3496.0,0.006607862550997545
3495.0,0.006651960076740071
3494.0,0.006607862550997545
3493.0,0.006519680930003435
3492.0,0.006431517210272464
3491.0,0.006431517210272464
3490.0,0.006475596832934416
3489.0,0.006607862550997545
3488.0,0.006696062080525422
3487.0,0.006740168563263094
3486.0,0.006696062080525422
3485.0,0.006651960076740071
3484.0,0.006607862550997545
3483.0,0.006607862550997545
3482.0,0.006651960076740071
3481.0,0.006607862550997545
3480.0,0.006607862550997545
3479.0,0.006607862550997545
3478.0,0.006696062080525422
3477.0,0.006784279525863024
3476.0,0.006828394969235152
3475.0,0.006828394969235152
3474.0,0.006784279525863024
3473.0,0.006740168563263094
3472.0,0.006784279525863024
3471.0,0.006784279525863024
3470.0,0.006828394969235152
3469.0,0.006872514894289861
3468.0,0.006916639301937977
3467.0,0.00696076819309055
3466.0,0.006916639301937977
3465.0,0.006916639301937977
3464.0,0.00696076819309055
3463.0,0.007093181776687496
3462.0,0.007181479933320523
3461.0,0.007181479933320523
3460.0,0.007093181776687496
3459.0,0.007004901568658406
3458.0,0.00696076819309055
3457.0,0.007049039429553483
3456.0,0.007181479933320523
3455.0,0.007358130121602358
3454.0,0.0074464821678643656
3453.0,0.007490664932224611
3452.0,0.007402303897961815
3451.0,0.007269796045857202
3450.0,0.007225635744644521
3449.0,0.007225635744644521
3448.0,0.007313960837872058
3447.0,0.007358130121602358
3446.0,0.007358130121602358
3445.0,0.007358130121602358
3444.0,0.007402303897961815
3443.0,0.0074464821678643656
3442.0,0.0074464821678643656
3441.0,0.007402303897961815
3440.0,0.007402303897961815
3439.0,0.0074464821678643656
3438.0,0.007534852191956709
3437.0,0.0075790439479759275
3436.0,0.007534852191956709
3435.0,0.007490664932224611
3434.0,0.007490664932224611
3433.0,0.007534852191956709
3432.0,0.007667440952535687
3431.0,0.007711646202907652
3430.0,0.007755855953228474
3429.0,0.007755855953228474
3428.0,0.007755855953228474
3427.0,0.007755855953228474
3426.0,0.007711646202907652
3425.0,0.007667440952535687
3424.0,0.007667440952535687
3423.0,0.007755855953228474
3422.0,0.007800070204414977
3421.0,0.007844288957383316
3420.0,0.007844288957383316
3419.0,0.007800070204414977
3418.0,0.007755855953228474
3417.0,0.007667440952535687
3416.0,0.007534852191956709
3415.0,0.007402303897961815
3414.0,0.007313960837872058
3413.0,0.007225635744644521
3412.0,0.007137328610972382
3411.0,0.007004901568658406
3410.0,0.00696076819309055
3409.0,0.007049039429553483
3408.0,0.007181479933320523
3407.0,0.007269796045857202
3406.0,0.007358130121602358
3405.0,0.007358130121602358
3404.0,0.007402303897961815
3403.0,0.0074464821678643656
3402.0,0.0074464821678643656
3401.0,0.007358130121602358
3400.0,0.007225635744644521
3399.0,0.007093181776687496
3398.0,0.007049039429553483
3397.0,0.007049039429553483
3396.0,0.007049039429553483
3395.0,0.00696076819309055
3394.0,0.006872514894289861
3393.0,0.006696062080525422
3392.0,0.006519680930003435
3391.0,0.006431517210272464
3390.0,0.006431517210272464
3389.0,0.00656376950238835
3388.0,0.006651960076740071
3387.0,0.006740168563263094
3386.0,0.006784279525863024
3385.0,0.006872514894289861
3384.0,0.00696076819309055
3383.0,0.007049039429553483
3382.0,0.007049039429553483
3381.0,0.007004901568658406
3380.0,0.006916639301937977
3379.0,0.006916639301937977
3378.0,0.00696076819309055
3377.0,0.007049039429553483
3376.0,0.007093181776687496
3375.0,0.007049039429553483
3374.0,0.007004901568658406
3373.0,0.007004901568658406
3372.0,0.007049039429553483
3371.0,0.007093181776687496
3370.0,0.007093181776687496
3369.0,0.007049039429553483
3368.0,0.007049039429553483
3367.0,0.007049039429553483
3366.0,0.00696076819309055
3365.0,0.006872514894289861
3364.0,0.006828394969235152
3363.0,0.006872514894289861
3362.0,0.00696076819309055
3361.0,0.00696076819309055
3360.0,0.006872514894289861
3359.0,0.006696062080525422
3358.0,0.00656376950238835
3357.0,0.006519680930003435
3356.0,0.006519680930003435
3355.0,0.00656376950238835
3354.0,0.006607862550997545
3353.0,0.006651960076740071
3352.0,0.006696062080525422
3351.0,0.006651960076740071
3350.0,0.006651960076740071
3349.0,0.006607862550997545
3348.0,0.006519680930003435
3347.0,0.006519680930003435
3346.0,0.006607862550997545
3345.0,0.006784279525863024
3344.0,0.006916639301937977
3343.0,0.00696076819309055
3342.0,0.006916639301937977
3341.0,0.006872514894289861
3340.0,0.006916639301937977
3339.0,0.00696076819309055
3338.0,0.007004901568658406
3337.0,0.007004901568658406
3336.0,0.007004901568658406
3335.0,0.007049039429553483
3334.0,0.007049039429553483
3333.0,0.007004901568658406
3332.0,0.006872514894289861
3331.0,0.006784279525863024
3330.0,0.006784279525863024
3329.0,0.006872514894289861
3328.0,0.007004901568658406
3327.0,0.007049039429553483
3326.0,0.007093181776687496
3325.0,0.007049039429553483
3324.0,0.00696076819309055
3323.0,0.006916639301937977
3322.0,0.006872514894289861
3321.0,0.006828394969235152
3320.0,0.006828394969235152
3319.0,0.006872514894289861
3318.0,0.006916639301937977
3317.0,0.007049039429553483
3316.0,0.007181479933320523
3315.0,0.007269796045857202
3314.0,0.007225635744644521
3313.0,0.007093181776687496
3312.0,0.007004901568658406
3311.0,0.006872514894289861
3310.0,0.006828394969235152
3309.0,0.006784279525863024
3308.0,0.006828394969235152
3307.0,0.00696076819309055
3306.0,0.007049039429553483
3305.0,0.007137328610972382
3304.0,0.007137328610972382
3303.0,0.007093181776687496
3302.0,0.007049039429553483
3301.0,0.00696076819309055
3300.0,0.006828394969235152
3299.0,0.006784279525863024
3298.0,0.006828394969235152
3297.0,0.006872514894289861
3296.0,0.00696076819309055
3295.0,0.007004901568658406
3294.0,0.007049039429553483
3293.0,0.007093181776687496
3292.0,0.007181479933320523
3291.0,0.007181479933320523
3290.0,0.007137328610972382
3289.0,0.007049039429553483
3288.0,0.007004901568658406
3287.0,0.00696076819309055
3286.0,0.00696076819309055
3285.0,0.006916639301937977
3284.0,0.00696076819309055
3283.0,0.007004901568658406
3282.0,0.007004901568658406
3281.0,0.007004901568658406
3280.0,0.00696076819309055
3279.0,0.006916639301937977
3278.0,0.006872514894289861
3277.0,0.006828394969235152
3276.0,0.006916639301937977
3275.0,0.007049039429553483
3274.0,0.007181479933320523
3273.0,0.007225635744644521
3272.0,0.007137328610972382
3271.0,0.007004901568658406
3270.0,0.00696076819309055
3269.0,0.007004901568658406
3268.0,0.007093181776687496
3267.0,0.007225635744644521
3266.0,0.007269796045857202
3265.0,0.007225635744644521
3264.0,0.007137328610972382
3263.0,0.007093181776687496
3262.0,0.007004901568658406
3261.0,0.007004901568658406
3260.0,0.00696076819309055
3259.0,0.007004901568658406
3258.0,0.007093181776687496
3257.0,0.007137328610972382
3256.0,0.007137328610972382
3255.0,0.007093181776687496
3254.0,0.007093181776687496
3253.0,0.007093181776687496
3252.0,0.007049039429553483
3251.0,0.00696076819309055
3250.0,0.006784279525863024
3249.0,0.006651960076740071
3248.0,0.006607862550997545
3247.0,0.006696062080525422
3246.0,0.006872514894289861
3245.0,0.00696076819309055
3244.0,0.00696076819309055
3243.0,0.00696076819309055
3242.0,0.00696076819309055
3241.0,0.007004901568658406
3240.0,0.007049039429553483
3239.0,0.007049039429553483
3238.0,0.00696076819309055
3237.0,0.006784279525863024
3236.0,0.006651960076740071
3235.0,0.006519680930003435
3234.0,0.006475596832934416
3233.0,0.006475596832934416
3232.0,0.006519680930003435
3231.0,0.006607862550997545
3230.0,0.006651960076740071
3229.0,0.006696062080525422
3228.0,0.006784279525863024
3227.0,0.006828394969235152
3226.0,0.006872514894289861
3225.0,0.006828394969235152
3224.0,0.006784279525863024
3223.0,0.006828394969235152
3222.0,0.006872514894289861
3221.0,0.006872514894289861
3220.0,0.006784279525863024
3219.0,0.006696062080525422
3218.0,0.006607862550997545
3217.0,0.00656376950238835
3216.0,0.006607862550997545
3215.0,0.006696062080525422
3214.0,0.006740168563263094
3213.0,0.006740168563263094
3212.0,0.006784279525863024
3211.0,0.006828394969235152
3210.0,0.006828394969235152
3209.0,0.006828394969235152
3208.0,0.006872514894289861
3207.0,0.007004901568658406
3206.0,0.007137328610972382
3205.0,0.007181479933320523
3204.0,0.007093181776687496
3203.0,0.00696076819309055
3202.0,0.006828394969235152
3201.0,0.006696062080525422
3200.0,0.006651960076740071
3199.0,0.006696062080525422
3198.0,0.006828394969235152
3197.0,0.006916639301937977
3196.0,0.00696076819309055
3195.0,0.00696076819309055
3194.0,0.006916639301937977
3193.0,0.006872514894289861
3192.0,0.006916639301937977
3191.0,0.00696076819309055
3190.0,0.006916639301937977
3189.0,0.006872514894289861
3188.0,0.006828394969235152
3187.0,0.006828394969235152
3186.0,0.006916639301937977
3185.0,0.006916639301937977
3184.0,0.006916639301937977
3183.0,0.006872514894289861
3182.0,0.006784279525863024
3181.0,0.006696062080525422
3180.0,0.006607862550997545
3179.0,0.006519680930003435
3178.0,0.006431517210272464
3177.0,0.006387442061109638
3176.0,0.006431517210272464
3175.0,0.006519680930003435
3174.0,0.006607862550997545
3173.0,0.006651960076740071
3172.0,0.006740168563263094
3171.0,0.006784279525863024
3170.0,0.006872514894289861
3169.0,0.006872514894289861
3168.0,0.006872514894289861
3167.0,0.006828394969235152
3166.0,0.006828394969235152
3165.0,0.006828394969235152
3164.0,0.006784279525863024
3163.0,0.006740168563263094
3162.0,0.006651960076740071
3161.0,0.006607862550997545
3160.0,0.006651960076740071
3159.0,0.006696062080525422
3158.0,0.006828394969235152
3157.0,0.006916639301937977
3156.0,0.006916639301937977
3155.0,0.006916639301937977
3154.0,0.006916639301937977
3153.0,0.006828394969235152
3152.0,0.006828394969235152
3151.0,0.006828394969235152
3150.0,0.006828394969235152
3149.0,0.006784279525863024
3148.0,0.006784279525863024
3147.0,0.006740168563263094
3146.0,0.006784279525863024
3145.0,0.006784279525863024
3144.0,0.006784279525863024
3143.0,0.006784279525863024
3142.0,0.006740168563263094
3141.0,0.006740168563263094
3140.0,0.006740168563263094
3139.0,0.006696062080525422
3138.0,0.006607862550997545
3137.0,0.006475596832934416
3136.0,0.006431517210272464
3135.0,0.006387442061109638
3134.0,0.006431517210272464
3133.0,0.006475596832934416
3132.0,0.006431517210272464
3131.0,0.006431517210272464
3130.0,0.006475596832934416
3129.0,0.006519680930003435
3128.0,0.00656376950238835
3127.0,0.006607862550997545
3126.0,0.006607862550997545
3125.0,0.006696062080525422
3124.0,0.006740168563263094
3123.0,0.006740168563263094
3122.0,0.006696062080525422
3121.0,0.006651960076740071
3120.0,0.006696062080525422
3119.0,0.006740168563263094
3118.0,0.006872514894289861
3117.0,0.00696076819309055
3116.0,0.00696076819309055
3115.0,0.006916639301937977
3114.0,0.006872514894289861
3113.0,0.006872514894289861
3112.0,0.006916639301937977
3111.0,0.00696076819309055
3110.0,0.007004901568658406
3109.0,0.007049039429553483
3108.0,0.007093181776687496
3107.0,0.007137328610972382
3106.0,0.007181479933320523
3105.0,0.007269796045857202
3104.0,0.007313960837872058
3103.0,0.007358130121602358
3102.0,0.007402303897961815
3101.0,0.007402303897961815
3100.0,0.007402303897961815
3099.0,0.007402303897961815
3098.0,0.007402303897961815
3097.0,0.007402303897961815
3096.0,0.007358130121602358
3095.0,0.007269796045857202
3094.0,0.007225635744644521
3093.0,0.007181479933320523
3092.0,0.007137328610972382
3091.0,0.007181479933320523
3090.0,0.007181479933320523
3089.0,0.007269796045857202
3088.0,0.007313960837872058
3087.0,0.007358130121602358
3086.0,0.007402303897961815
3085.0,0.007358130121602358
3084.0,0.007313960837872058
3083.0,0.007358130121602358
3082.0,0.007402303897961815
3081.0,0.007490664932224611
3080.0,0.0075790439479759275
3079.0,0.00762324020119709
3078.0,0.007711646202907652
3077.0,0.007755855953228474
3076.0,0.007755855953228474
3075.0,0.007755855953228474
3074.0,0.007667440952535687
3073.0,0.0075790439479759275
3072.0,0.0075790439479759275
3071.0,0.007711646202907652
3070.0,0.007844288957383316
3069.0,0.007932739972333236
3068.0,0.007976972236149349
3067.0,0.007888512213050314
3066.0,0.007755855953228474
3065.0,0.00762324020119709
3064.0,0.007534852191956709
3063.0,0.007490664932224611
3062.0,0.00762324020119709
3061.0,0.007800070204414977
3060.0,0.007976972236149349
3059.0,0.007976972236149349
3058.0,0.007888512213050314
3057.0,0.007755855953228474
3056.0,0.007667440952535687
3055.0,0.00762324020119709
3054.0,0.007667440952535687
3053.0,0.007755855953228474
3052.0,0.007844288957383316
3051.0,0.007932739972333236
3050.0,0.007932739972333236
3049.0,0.007800070204414977
3048.0,0.00762324020119709
3047.0,0.0074464821678643656
3046.0,0.007358130121602358
3045.0,0.007269796045857202
3044.0,0.007225635744644521
3043.0,0.007225635744644521
3042.0,0.007269796045857202
3041.0,0.007225635744644521
3040.0,0.007181479933320523
3039.0,0.007093181776687496
3038.0,0.007004901568658406
3037.0,0.006872514894289861
3036.0,0.006740168563263094
3035.0,0.006696062080525422
3034.0,0.006696062080525422
3033.0,0.006740168563263094
3032.0,0.006784279525863024
3031.0,0.006916639301937977
3030.0,0.00696076819309055
3029.0,0.007004901568658406
3028.0,0.007004901568658406
3027.0,0.006916639301937977
3026.0,0.006872514894289861
3025.0,0.006872514894289861
3024.0,0.00696076819309055
3023.0,0.007093181776687496
3022.0,0.007269796045857202
3021.0,0.007402303897961815
3020.0,0.007490664932224611
3019.0,0.0074464821678643656
3018.0,0.0074464821678643656
3017.0,0.0074464821678643656
3016.0,0.007490664932224611
3015.0,0.0075790439479759275
3014.0,0.007667440952535687
3013.0,0.007755855953228474
3012.0,0.007888512213050314
3011.0,0.007976972236149349
3010.0,0.007976972236149349
3009.0,0.007888512213050314
3008.0,0.007800070204414977
3007.0,0.007800070204414977
3006.0,0.007800070204414977
3005.0,0.007800070204414977
3004.0,0.007844288957383316
3003.0,0.007976972236149349
3002.0,0.008109696063975047
3001.0,0.008286724286910463
3000.0,0.008330992620051436
2999.0,0.008330992620051436
2998.0,0.008242460465651913
2997.0,0.008242460465651913
2996.0,0.008330992620051436
2995.0,0.008419542825660153
2994.0,0.008552401996197112
2993.0,0.008640997362049818
2992.0,0.008773924307505121
2991.0,0.008951223547323472
2990.0,0.00908424549391551
2989.0,0.009217308196862062
2988.0,0.009261671492462709
2987.0,0.009261671492462709
2986.0,0.009306039320248427
2985.0,0.00939478857608056
2984.0,0.009483555971770974
2983.0,0.009616741093766423
2982.0,0.00974996707218323
2981.0,0.009838807101520963
2980.0,0.009972101229705377
2979.0,0.010060986715464404
2978.0,0.010194349063173958
2977.0,0.010327752376126709
2976.0,0.01046119667949763
2975.0,0.010594681998483901
2974.0,0.010728208358306901
2973.0,0.01086177578421088
2972.0,0.011039929609661936
2971.0,0.011262724711199823
2970.0,0.011530229790124524
2969.0,0.011797899741219142
2968.0,0.012065734767841452
2967.0,0.012333735073725371
2966.0,0.012512493866907004
2965.0,0.01260190086298274
2964.0,0.012736045877764557
2963.0,0.012959713020733288
2962.0,0.01318349541446362
2961.0,0.013407393177789162
2960.0,0.013541787262693505
2959.0,0.013496984613259544
2958.0,0.013407393177789162
2957.0,0.013407393177789162
2956.0,0.013541787262693505
2955.0,0.013676222949234651
2954.0,0.013765869865004277
2953.0,0.013676222949234651
2952.0,0.013452186585275916
2951.0,0.013138729709955221
2950.0,0.012870232340102872
2949.0,0.01264661126420652
2948.0,0.012423105273012602
2947.0,0.012289056869694281
2946.0,0.012199714248127602
2945.0,0.01215504982870197
2944.0,0.012021084124518078
2943.0,0.011797899741219142
2942.0,0.011530229790124524
2941.0,0.01117359295472431
2940.0,0.01086177578421088
2939.0,0.010550182333308289
2938.0,0.010416710688994968
2937.0,0.010327752376126709
2936.0,0.01023881228122181
2935.0,0.010149890396819572
2934.0,0.01001654169860089
2933.0,0.01001654169860089
2932.0,0.010105436281226954
2931.0,0.010194349063173958
2930.0,0.01023881228122181
2929.0,0.010194349063173958
2928.0,0.010105436281226954
2927.0,0.009972101229705377
2926.0,0.009883233932095559
2925.0,0.009883233932095559
2924.0,0.009838807101520963
2923.0,0.009838807101520963
2922.0,0.009838807101520963
2921.0,0.009794384815193347
2920.0,0.009705553871561357
2919.0,0.00966114521239847
2918.0,0.009616741093766423
2917.0,0.009616741093766423
2916.0,0.009616741093766423
2915.0,0.009616741093766423
2914.0,0.00966114521239847
2913.0,0.009616741093766423
2912.0,0.009572341514736404
2911.0,0.009483555971770974
2910.0,0.00939478857608056
2909.0,0.00939478857608056
2908.0,0.009483555971770974
2907.0,0.009527946474380489
2906.0,0.009527946474380489
2905.0,0.009439170005980158
2904.0,0.009306039320248427
2903.0,0.009261671492462709
2902.0,0.009350411681145587
2901.0,0.009483555971770974
2900.0,0.009616741093766423
2899.0,0.009705553871561357
2898.0,0.009705553871561357
2897.0,0.00966114521239847
2896.0,0.00966114521239847
2895.0,0.00966114521239847
2894.0,0.00974996707218323
2893.0,0.009794384815193347
2892.0,0.009838807101520963
2891.0,0.009883233932095559
2890.0,0.009927665307847056
2889.0,0.01001654169860089
2888.0,0.01001654169860089
2887.0,0.010060986715464404
2886.0,0.010060986715464404
2885.0,0.010060986715464404
2884.0,0.009972101229705377
2883.0,0.009883233932095559
2882.0,0.009838807101520963
2881.0,0.009838807101520963
2880.0,0.009794384815193347
2879.0,0.00974996707218323
2878.0,0.00966114521239847
2877.0,0.00966114521239847
2876.0,0.009705553871561357
2875.0,0.00974996707218323
2874.0,0.009705553871561357
2873.0,0.009572341514736404
2872.0,0.009439170005980158
2871.0,0.00939478857608056
2870.0,0.009350411681145587
2869.0,0.009350411681145587
2868.0,0.009350411681145587
2867.0,0.009350411681145587
2866.0,0.009306039320248427
2865.0,0.009306039320248427
2864.0,0.009261671492462709
2863.0,0.009172949432521227
2862.0,0.009128595198514056
2861.0,0.009039900317800775
2860.0,0.008995559669244813
2859.0,0.009039900317800775
2858.0,0.00908424549391551
2857.0,0.009172949432521227
2856.0,0.009261671492462709
2855.0,0.009306039320248427
2854.0,0.009261671492462709
2853.0,0.009217308196862062
2852.0,0.009128595198514056
2851.0,0.008951223547323472
2850.0,0.008773924307505121
2849.0,0.008596697419959609
2848.0,0.008463824699968647
2847.0,0.008463824699968647
2846.0,0.008463824699968647
2845.0,0.00850811108984062
2844.0,0.008463824699968647
2843.0,0.008419542825660153
2842.0,0.008375265465994541
2841.0,0.008330992620051436
2840.0,0.008286724286910463
2839.0,0.008286724286910463
2838.0,0.008286724286910463
2837.0,0.008286724286910463
2836.0,0.008242460465651913
2835.0,0.008198201155356077
2834.0,0.008109696063975047
2833.0,0.007976972236149349
2832.0,0.007888512213050314
2831.0,0.007844288957383316
2830.0,0.007844288957383316
2829.0,0.007888512213050314
2828.0,0.007932739972333236
2827.0,0.007888512213050314
2826.0,0.007888512213050314
2825.0,0.007844288957383316
2824.0,0.007888512213050314
2823.0,0.007932739972333236
2822.0,0.007932739972333236
2821.0,0.007888512213050314
2820.0,0.007844288957383316
2819.0,0.007755855953228474
2818.0,0.007711646202907652
2817.0,0.007711646202907652
2816.0,0.007755855953228474
2815.0,0.007755855953228474
2814.0,0.007755855953228474
2813.0,0.007711646202907652
2812.0,0.007667440952535687
2811.0,0.007667440952535687
2810.0,0.007711646202907652
2809.0,0.007800070204414977
2808.0,0.007844288957383316
2807.0,0.007844288957383316
2806.0,0.007800070204414977
2805.0,0.007711646202907652
2804.0,0.0075790439479759275
2803.0,0.007490664932224611
2802.0,0.007490664932224611
2801.0,0.0075790439479759275
2800.0,0.007711646202907652
2799.0,0.007844288957383316
2798.0,0.007932739972333236
2797.0,0.007976972236149349
2796.0,0.007976972236149349
2795.0,0.008021209005416363
2794.0,0.008021209005416363
2793.0,0.007976972236149349
2792.0,0.007888512213050314
2791.0,0.007800070204414977
2790.0,0.007667440952535687
2789.0,0.0075790439479759275
2788.0,0.007490664932224611
2787.0,0.007490664932224611
2786.0,0.007534852191956709
2785.0,0.0075790439479759275
2784.0,0.007534852191956709
2783.0,0.0074464821678643656
2782.0,0.007358130121602358
2781.0,0.007313960837872058
2780.0,0.007269796045857202
2779.0,0.007269796045857202
2778.0,0.007269796045857202
2777.0,0.007313960837872058
2776.0,0.007402303897961815
2775.0,0.007534852191956709
2774.0,0.007667440952535687
2773.0,0.007800070204414977
2772.0,0.007888512213050314
2771.0,0.007932739972333236
2770.0,0.007932739972333236
2769.0,0.007888512213050314
2768.0,0.007844288957383316
2767.0,0.007800070204414977
2766.0,0.007755855953228474
2765.0,0.007667440952535687
2764.0,0.007534852191956709
2763.0,0.007402303897961815
2762.0,0.007358130121602358
2761.0,0.007358130121602358
2760.0,0.007402303897961815
2759.0,0.007490664932224611
2758.0,0.00762324020119709
2757.0,0.007667440952535687
2756.0,0.007711646202907652
2755.0,0.007711646202907652
2754.0,0.00762324020119709
2753.0,0.007490664932224611
2752.0,0.007358130121602358
2751.0,0.007358130121602358
2750.0,0.007402303897961815
2749.0,0.0075790439479759275
2748.0,0.007667440952535687
2747.0,0.007711646202907652
2746.0,0.0075790439479759275
2745.0,0.0074464821678643656
2744.0,0.007358130121602358
2743.0,0.007269796045857202
2742.0,0.007225635744644521
2741.0,0.007269796045857202
2740.0,0.007402303897961815
2739.0,0.00762324020119709
2738.0,0.007755855953228474
2737.0,0.007755855953228474
2736.0,0.007667440952535687
2735.0,0.007534852191956709
2734.0,0.007358130121602358
2733.0,0.007225635744644521
2732.0,0.007181479933320523
2731.0,0.007225635744644521
2730.0,0.007313960837872058
2729.0,0.007358130121602358
2728.0,0.007402303897961815
2727.0,0.0074464821678643656
2726.0,0.007490664932224611
2725.0,0.007490664932224611
2724.0,0.0074464821678643656
2723.0,0.0074464821678643656
2722.0,0.0074464821678643656
2721.0,0.0074464821678643656
2720.0,0.0074464821678643656
2719.0,0.0074464821678643656
2718.0,0.007490664932224611
2717.0,0.007490664932224611
2716.0,0.0074464821678643656
2715.0,0.007402303897961815
2714.0,0.007313960837872058
2713.0,0.007181479933320523
2712.0,0.007049039429553483
2711.0,0.007049039429553483
2710.0,0.007093181776687496
2709.0,0.007137328610972382
2708.0,0.007181479933320523
2707.0,0.007181479933320523
2706.0,0.007225635744644521
2705.0,0.007269796045857202
2704.0,0.007269796045857202
2703.0,0.007269796045857202
2702.0,0.007269796045857202
2701.0,0.007225635744644521
2700.0,0.007225635744644521
2699.0,0.007269796045857202
2698.0,0.007269796045857202
2697.0,0.007225635744644521
2696.0,0.007181479933320523
2695.0,0.007137328610972382
2694.0,0.007093181776687496
2693.0,0.007093181776687496
2692.0,0.007093181776687496
2691.0,0.007137328610972382
2690.0,0.007137328610972382
2689.0,0.007137328610972382
2688.0,0.007137328610972382
2687.0,0.007093181776687496
2686.0,0.007049039429553483
2685.0,0.007004901568658406
2684.0,0.007049039429553483
2683.0,0.007137328610972382
2682.0,0.007269796045857202
2681.0,0.007269796045857202
2680.0,0.007225635744644521
2679.0,0.007137328610972382
2678.0,0.007049039429553483
2677.0,0.007004901568658406
2676.0,0.007004901568658406
2675.0,0.00696076819309055
2674.0,0.006916639301937977
2673.0,0.006872514894289861
2672.0,0.006916639301937977
2671.0,0.007004901568658406
2670.0,0.007049039429553483
2669.0,0.007093181776687496
2668.0,0.007049039429553483
2667.0,0.007049039429553483
2666.0,0.007049039429553483
2665.0,0.007049039429553483
2664.0,0.007093181776687496
2663.0,0.007181479933320523
2662.0,0.007225635744644521
2661.0,0.007225635744644521
2660.0,0.007181479933320523
2659.0,0.007049039429553483
2658.0,0.007004901568658406
2657.0,0.00696076819309055
2656.0,0.007004901568658406
2655.0,0.007049039429553483
2654.0,0.007049039429553483
2653.0,0.007049039429553483
2652.0,0.007049039429553483
2651.0,0.007049039429553483
2650.0,0.007093181776687496
2649.0,0.007093181776687496
2648.0,0.007137328610972382
2647.0,0.007181479933320523
2646.0,0.007269796045857202
2645.0,0.007269796045857202
2644.0,0.007181479933320523
2643.0,0.007093181776687496
2642.0,0.007004901568658406
2641.0,0.007004901568658406
2640.0,0.007049039429553483
2639.0,0.007093181776687496
2638.0,0.007137328610972382
2637.0,0.007093181776687496
2636.0,0.007137328610972382
2635.0,0.007181479933320523
2634.0,0.007269796045857202
2633.0,0.007269796045857202
2632.0,0.007225635744644521
2631.0,0.007137328610972382
2630.0,0.007093181776687496
2629.0,0.007093181776687496
2628.0,0.007093181776687496
2627.0,0.007093181776687496
2626.0,0.007093181776687496
2625.0,0.007137328610972382
2624.0,0.007137328610972382
2623.0,0.007137328610972382
2622.0,0.007137328610972382
2621.0,0.007093181776687496
2620.0,0.007093181776687496
2619.0,0.007137328610972382
2618.0,0.007225635744644521
2617.0,0.007269796045857202
2616.0,0.007313960837872058
2615.0,0.007269796045857202
2614.0,0.007181479933320523
2613.0,0.007137328610972382
2612.0,0.007093181776687496
2611.0,0.007137328610972382
2610.0,0.007225635744644521
2609.0,0.007225635744644521
2608.0,0.007225635744644521
2607.0,0.007137328610972382
2606.0,0.007093181776687496
2605.0,0.007137328610972382
2604.0,0.007137328610972382
2603.0,0.007137328610972382
2602.0,0.007049039429553483
2601.0,0.007004901568658406
2600.0,0.00696076819309055
2599.0,0.007004901568658406
2598.0,0.007049039429553483
2597.0,0.007049039429553483
2596.0,0.007004901568658406
2595.0,0.00696076819309055
2594.0,0.006916639301937977
2593.0,0.006916639301937977
2592.0,0.006916639301937977
2591.0,0.00696076819309055
2590.0,0.007004901568658406
2589.0,0.007049039429553483
2588.0,0.007049039429553483
2587.0,0.007049039429553483
2586.0,0.007004901568658406
2585.0,0.006916639301937977
2584.0,0.006872514894289861
2583.0,0.006872514894289861
2582.0,0.007004901568658406
2581.0,0.007181479933320523
2580.0,0.007225635744644521
2579.0,0.007181479933320523
2578.0,0.007093181776687496
2577.0,0.007049039429553483
2576.0,0.007049039429553483
2575.0,0.007137328610972382
2574.0,0.007225635744644521
2573.0,0.007313960837872058
2572.0,0.007358130121602358
2571.0,0.007402303897961815
2570.0,0.007358130121602358
2569.0,0.007225635744644521
2568.0,0.007137328610972382
2567.0,0.007093181776687496
2566.0,0.007093181776687496
2565.0,0.007181479933320523
2564.0,0.007225635744644521
2563.0,0.007181479933320523
2562.0,0.007137328610972382
2561.0,0.007137328610972382
2560.0,0.007093181776687496
2559.0,0.007137328610972382
2558.0,0.007137328610972382
2557.0,0.007137328610972382
2556.0,0.007137328610972382
2555.0,0.007137328610972382
2554.0,0.007225635744644521
2553.0,0.007358130121602358
2552.0,0.007402303897961815
2551.0,0.0074464821678643656
2550.0,0.007358130121602358
2549.0,0.007225635744644521
2548.0,0.007137328610972382
2547.0,0.007049039429553483
2546.0,0.007049039429553483
2545.0,0.007049039429553483
2544.0,0.007093181776687496
2543.0,0.007137328610972382
2542.0,0.007181479933320523
2541.0,0.007181479933320523
2540.0,0.007137328610972382
2539.0,0.007137328610972382
2538.0,0.007181479933320523
2537.0,0.007225635744644521
2536.0,0.007269796045857202
2535.0,0.007269796045857202
2534.0,0.007269796045857202
2533.0,0.007313960837872058
2532.0,0.007313960837872058
2531.0,0.007269796045857202
2530.0,0.007225635744644521
2529.0,0.007225635744644521
2528.0,0.007225635744644521
2527.0,0.007225635744644521
2526.0,0.007225635744644521
2525.0,0.007181479933320523
2524.0,0.007137328610972382
2523.0,0.007181479933320523
2522.0,0.007269796045857202
2521.0,0.007313960837872058
2520.0,0.007313960837872058
2519.0,0.007269796045857202
2518.0,0.007181479933320523
2517.0,0.007137328610972382
2516.0,0.007137328610972382
2515.0,0.007225635744644521
2514.0,0.007269796045857202
2513.0,0.007313960837872058
2512.0,0.007358130121602358
2511.0,0.007358130121602358
2510.0,0.007313960837872058
2509.0,0.007313960837872058
2508.0,0.007269796045857202
2507.0,0.007269796045857202
2506.0,0.007225635744644521
2505.0,0.007137328610972382
2504.0,0.007049039429553483
2503.0,0.007049039429553483
2502.0,0.007049039429553483
2501.0,0.00696076819309055
2500.0,0.006872514894289861
2499.0,0.006784279525863024
2498.0,0.006784279525863024
2497.0,0.006872514894289861
2496.0,0.006916639301937977
2495.0,0.007004901568658406
2494.0,0.007049039429553483
2493.0,0.007049039429553483
2492.0,0.007049039429553483
2491.0,0.007049039429553483
2490.0,0.007093181776687496
2489.0,0.007049039429553483
2488.0,0.006916639301937977
2487.0,0.006828394969235152
2486.0,0.006784279525863024
2485.0,0.006872514894289861
2484.0,0.007004901568658406
2483.0,0.007137328610972382
2482.0,0.007225635744644521
2481.0,0.007269796045857202
2480.0,0.007269796045857202
2479.0,0.007181479933320523
2478.0,0.007093181776687496
2477.0,0.00696076819309055
2476.0,0.006872514894289861
2475.0,0.006784279525863024
2474.0,0.006740168563263094
2473.0,0.006784279525863024
2472.0,0.006828394969235152
2471.0,0.006784279525863024
2470.0,0.006696062080525422
2469.0,0.006651960076740071
2468.0,0.006607862550997545
2467.0,0.006607862550997545
2466.0,0.006651960076740071
2465.0,0.006740168563263094
2464.0,0.006784279525863024
2463.0,0.006828394969235152
2462.0,0.006828394969235152
2461.0,0.006784279525863024
2460.0,0.006784279525863024
2459.0,0.006784279525863024
2458.0,0.006740168563263094
2457.0,0.006651960076740071
2456.0,0.00656376950238835
2455.0,0.00656376950238835
2454.0,0.006651960076740071
2453.0,0.006740168563263094
2452.0,0.006784279525863024
2451.0,0.006740168563263094
2450.0,0.006696062080525422
2449.0,0.006607862550997545
2448.0,0.00656376950238835
2447.0,0.006519680930003435
2446.0,0.006519680930003435
2445.0,0.006607862550997545
2444.0,0.006696062080525422
2443.0,0.006784279525863024
2442.0,0.006828394969235152
2441.0,0.006828394969235152
2440.0,0.006828394969235152
2439.0,0.006872514894289861
2438.0,0.006872514894289861
2437.0,0.006916639301937977
2436.0,0.006872514894289861
2435.0,0.006872514894289861
2434.0,0.006828394969235152
2433.0,0.006784279525863024
2432.0,0.006784279525863024
2431.0,0.006828394969235152
2430.0,0.006872514894289861
2429.0,0.006828394969235152
2428.0,0.006784279525863024
2427.0,0.006740168563263094
2426.0,0.006740168563263094
2425.0,0.006784279525863024
2424.0,0.006872514894289861
2423.0,0.006916639301937977
2422.0,0.006872514894289861
2421.0,0.006828394969235152
2420.0,0.006784279525863024
2419.0,0.006784279525863024
2418.0,0.006784279525863024
2417.0,0.006828394969235152
2416.0,0.006828394969235152
2415.0,0.006828394969235152
2414.0,0.006784279525863024
2413.0,0.006740168563263094
2412.0,0.006740168563263094
2411.0,0.006740168563263094
2410.0,0.006784279525863024
2409.0,0.006872514894289861
2408.0,0.00696076819309055
2407.0,0.007049039429553483
2406.0,0.007137328610972382
2405.0,0.007181479933320523
2404.0,0.007181479933320523
2403.0,0.007137328610972382
2402.0,0.007137328610972382
2401.0,0.007181479933320523
2400.0,0.007181479933320523
2399.0,0.007093181776687496
2398.0,0.007049039429553483
2397.0,0.00696076819309055
2396.0,0.00696076819309055
2395.0,0.00696076819309055
2394.0,0.00696076819309055
2393.0,0.006916639301937977
2392.0,0.00696076819309055
2391.0,0.007004901568658406
2390.0,0.007049039429553483
2389.0,0.007093181776687496
2388.0,0.007137328610972382
2387.0,0.007181479933320523
2386.0,0.007269796045857202
2385.0,0.007358130121602358
2384.0,0.007402303897961815
2383.0,0.0074464821678643656
2382.0,0.007490664932224611
2381.0,0.0074464821678643656
2380.0,0.0074464821678643656
2379.0,0.0074464821678643656
2378.0,0.007490664932224611
2377.0,0.007534852191956709
2376.0,0.0075790439479759275
2375.0,0.007667440952535687
2374.0,0.007755855953228474
2373.0,0.007711646202907652
2372.0,0.0075790439479759275
2371.0,0.007534852191956709
2370.0,0.007800070204414977
2369.0,0.008330992620051436
2368.0,0.008773924307505121
2367.0,0.008951223547323472
2366.0,0.0087296108049002
2365.0,0.008021209005416363
2364.0,0.006872514894289861
2363.0,0.005858888873877532
2362.0,0.005682847330363394
2361.0,0.006519680930003435
2360.0,0.007755855953228474
2359.0,0.008375265465994541
2358.0,0.008021209005416363
2357.0,0.007181479933320523
2356.0,0.006651960076740071
2355.0,0.006784279525863024
2354.0,0.007358130121602358
2353.0,0.007932739972333236
2352.0,0.008198201155356077
2351.0,0.008153946355103248
2350.0,0.008021209005416363
2349.0,0.007800070204414977
2348.0,0.007755855953228474
2347.0,0.007976972236149349
2346.0,0.008552401996197112
2345.0,0.009172949432521227
2344.0,0.009350411681145587
2343.0,0.009039900317800775
2342.0,0.008552401996197112
2341.0,0.008198201155356077
2340.0,0.007976972236149349
2339.0,0.007800070204414977
2338.0,0.00762324020119709
2337.0,0.0075790439479759275
2336.0,0.007755855953228474
2335.0,0.008065450281052211
2334.0,0.008242460465651913
2333.0,0.008198201155356077
2332.0,0.008109696063975047
2331.0,0.008242460465651913
2330.0,0.008419542825660153
2329.0,0.008375265465994541
2328.0,0.008065450281052211
2327.0,0.007534852191956709
2326.0,0.007004901568658406
2325.0,0.006740168563263094
2324.0,0.006784279525863024
2323.0,0.007049039429553483
2322.0,0.007269796045857202
2321.0,0.007313960837872058
2320.0,0.007225635744644521
2319.0,0.007137328610972382
2318.0,0.007093181776687496
2317.0,0.007049039429553483
2316.0,0.00696076819309055
2315.0,0.006916639301937977
2314.0,0.006828394969235152
2313.0,0.006828394969235152
2312.0,0.006916639301937977
2311.0,0.007049039429553483
2310.0,0.007137328610972382
2309.0,0.007225635744644521
2308.0,0.007225635744644521
2307.0,0.007225635744644521
2306.0,0.007137328610972382
2305.0,0.007093181776687496
2304.0,0.007004901568658406
2303.0,0.006916639301937977
2302.0,0.006916639301937977
2301.0,0.006916639301937977
2300.0,0.00696076819309055
2299.0,0.007049039429553483
2298.0,0.007093181776687496
2297.0,0.007004901568658406
2296.0,0.006872514894289861
2295.0,0.006740168563263094
2294.0,0.006740168563263094
2293.0,0.006740168563263094
2292.0,0.006828394969235152
2291.0,0.006872514894289861
2290.0,0.006872514894289861
2289.0,0.006828394969235152
2288.0,0.006784279525863024
2287.0,0.006651960076740071
2286.0,0.00656376950238835
2285.0,0.006475596832934416
2284.0,0.006387442061109638
2283.0,0.006387442061109638
2282.0,0.006431517210272464
2281.0,0.00656376950238835
2280.0,0.006651960076740071
2279.0,0.006696062080525422
2278.0,0.006696062080525422
2277.0,0.006696062080525422
2276.0,0.006651960076740071
2275.0,0.00656376950238835
2274.0,0.006475596832934416
2273.0,0.006343371384537999
2272.0,0.00625524344553785
2271.0,0.00621118618129457
2270.0,0.00625524344553785
2269.0,0.006299305179649828
2268.0,0.006387442061109638
2267.0,0.006431517210272464
2266.0,0.006475596832934416
2265.0,0.006475596832934416
2264.0,0.006475596832934416
2263.0,0.006431517210272464
2262.0,0.006387442061109638
2261.0,0.006343371384537999
2260.0,0.00625524344553785
2259.0,0.00621118618129457
2258.0,0.006167133386013823
2257.0,0.006167133386013823
2256.0,0.006167133386013823
2255.0,0.00612308505878878
2254.0,0.00612308505878878
2253.0,0.00612308505878878
2252.0,0.006167133386013823
2251.0,0.00621118618129457
2250.0,0.006299305179649828
2249.0,0.006343371384537999
2248.0,0.006343371384537999
2247.0,0.006387442061109638
2246.0,0.006387442061109638
2245.0,0.006387442061109638
2244.0,0.006299305179649828
2243.0,0.00625524344553785
2242.0,0.006167133386013823
2241.0,0.006079041198713275
2240.0,0.006079041198713275
2239.0,0.00612308505878878
2238.0,0.00621118618129457
2237.0,0.006167133386013823
2236.0,0.006079041198713275
2235.0,0.005990966876386672
2234.0,0.005946936412324799
2233.0,0.005946936412324799
2232.0,0.005946936412324799
2231.0,0.005990966876386672
2230.0,0.005990966876386672
2229.0,0.006035001804881146
2228.0,0.006079041198713275
2227.0,0.00612308505878878
2226.0,0.00612308505878878
2225.0,0.006079041198713275
2224.0,0.006079041198713275
2223.0,0.006079041198713275
2222.0,0.006079041198713275
2221.0,0.006035001804881146
2220.0,0.005946936412324799
2219.0,0.00590291041179003
2218.0,0.00590291041179003
2217.0,0.005946936412324799
2216.0,0.005946936412324799
2215.0,0.005946936412324799
2214.0,0.00590291041179003
2213.0,0.00590291041179003
2212.0,0.005858888873877532
2211.0,0.005858888873877532
2210.0,0.00590291041179003
2209.0,0.005946936412324799
2208.0,0.005946936412324799
2207.0,0.005990966876386672
2206.0,0.005990966876386672
2205.0,0.005990966876386672
2204.0,0.00590291041179003
2203.0,0.005858888873877532
2202.0,0.00590291041179003
2201.0,0.00590291041179003
2200.0,0.005946936412324799
2199.0,0.005946936412324799
2198.0,0.005990966876386672
2197.0,0.005990966876386672
2196.0,0.006035001804881146
2195.0,0.005990966876386672
2194.0,0.00590291041179003
2193.0,0.005814871797682919
2192.0,0.00577085918230158
2191.0,0.005726851026829571
2190.0,0.00577085918230158
2189.0,0.005858888873877532
2188.0,0.00590291041179003
2187.0,0.005990966876386672
2186.0,0.005990966876386672
2185.0,0.005990966876386672
2184.0,0.005946936412324799
2183.0,0.00590291041179003
2182.0,0.00590291041179003
2181.0,0.00590291041179003
2180.0,0.00590291041179003
2179.0,0.00590291041179003
2178.0,0.005858888873877532
2177.0,0.005814871797682919
2176.0,0.005814871797682919
2175.0,0.005814871797682919
2174.0,0.005858888873877532
2173.0,0.005858888873877532
2172.0,0.005858888873877532
2171.0,0.00590291041179003
2170.0,0.005946936412324799
2169.0,0.00590291041179003
2168.0,0.005858888873877532
2167.0,0.005814871797682919
2166.0,0.005858888873877532
2165.0,0.005858888873877532
2164.0,0.00590291041179003
2163.0,0.00590291041179003
2162.0,0.005946936412324799
2161.0,0.005990966876386672
2160.0,0.005990966876386672
2159.0,0.005946936412324799
2158.0,0.00590291041179003
2157.0,0.005858888873877532
2156.0,0.005814871797682919
2155.0,0.005858888873877532
2154.0,0.005858888873877532
2153.0,0.00590291041179003
2152.0,0.00590291041179003
2151.0,0.00590291041179003
2150.0,0.00590291041179003
2149.0,0.00590291041179003
2148.0,0.00590291041179003
2147.0,0.005858888873877532
2146.0,0.005814871797682919
2145.0,0.00577085918230158
2144.0,0.005726851026829571
2143.0,0.005814871797682919
2142.0,0.00590291041179003
2141.0,0.005990966876386672
2140.0,0.006035001804881146
2139.0,0.006035001804881146
2138.0,0.006035001804881146
2137.0,0.006035001804881146
2136.0,0.006035001804881146
2135.0,0.006035001804881146
2134.0,0.006035001804881146
2133.0,0.005990966876386672
2132.0,0.005946936412324799
2131.0,0.005946936412324799
2130.0,0.00590291041179003
2129.0,0.005946936412324799
2128.0,0.005946936412324799
2127.0,0.005990966876386672
2126.0,0.005990966876386672
2125.0,0.00590291041179003
2124.0,0.005858888873877532
2123.0,0.005814871797682919
2122.0,0.005814871797682919
2121.0,0.005814871797682919
2120.0,0.005814871797682919
2119.0,0.005814871797682919
2118.0,0.005814871797682919
2117.0,0.005814871797682919
2116.0,0.005858888873877532
2115.0,0.00590291041179003
2114.0,0.005858888873877532
2113.0,0.00577085918230158
2112.0,0.005682847330363394
2111.0,0.005638848091999105
2110.0,0.005682847330363394
2109.0,0.005726851026829571
2108.0,0.005726851026829571
2107.0,0.005726851026829571
2106.0,0.005682847330363394
2105.0,0.005594853310833647
2104.0,0.005550862985963967
2103.0,0.005550862985963967
2102.0,0.005638848091999105
2101.0,0.005726851026829571
2100.0,0.005814871797682919
2099.0,0.005814871797682919
2098.0,0.005858888873877532
2097.0,0.005858888873877532
2096.0,0.00590291041179003
2095.0,0.005858888873877532
2094.0,0.005814871797682919
2093.0,0.005726851026829571
2092.0,0.005682847330363394
2091.0,0.005638848091999105
2090.0,0.005638848091999105
2089.0,0.005638848091999105
2088.0,0.005638848091999105
2087.0,0.005638848091999105
2086.0,0.005594853310833647
2085.0,0.005594853310833647
2084.0,0.005594853310833647
2083.0,0.005638848091999105
2082.0,0.005638848091999105
2081.0,0.005594853310833647
2080.0,0.005594853310833647
2079.0,0.005550862985963967
2078.0,0.005506877116487674
2077.0,0.005462895701502157
2076.0,0.00537494623139545
2075.0,0.005330978174470591
2074.0,0.005330978174470591
2073.0,0.00537494623139545
2072.0,0.00537494623139545
2071.0,0.005330978174470591
2070.0,0.005243055412371911
2069.0,0.005155150446602086
2068.0,0.005111204635089406
2067.0,0.005155150446602086
2066.0,0.005199100705396198
2065.0,0.005199100705396198
2064.0,0.005155150446602086
2063.0,0.005155150446602086
2062.0,0.005111204635089406
2061.0,0.005067263269958211
2060.0,0.005067263269958211
2059.0,0.005067263269958211
2058.0,0.005067263269958211
2057.0,0.005023326350308999
2056.0,0.004935465843858511
2055.0,0.00484762310854614
2054.0,0.004759798137184523
2053.0,0.004715892310740433
2052.0,0.004715892310740433
2051.0,0.004715892310740433
2050.0,0.004715892310740433
2049.0,0.004715892310740433
2048.0,0.004671990922590297
2047.0,0.004671990922590297
2046.0,0.004671990922590297
2045.0,0.004671990922590297
2044.0,0.004628093971837721
2043.0,0.004628093971837721
2042.0,0.004628093971837721
2041.0,0.004671990922590297
2040.0,0.004715892310740433
2039.0,0.004715892310740433
2038.0,0.004671990922590297
2037.0,0.004628093971837721
2036.0,0.00458420145758498
2035.0,0.004540313378935901
2034.0,0.0044964297349936455
2033.0,0.004452550524862486
2032.0,0.004408675747646695
2031.0,0.004320939488377862
2030.0,0.004320939488377862
2029.0,0.0043648054024501
2028.0,0.004408675747646695
2027.0,0.004408675747646695
2026.0,0.004452550524862486
2025.0,0.004452550524862486
2024.0,0.004452550524862486
2023.0,0.004452550524862486
2022.0,0.004452550524862486
2021.0,0.004452550524862486
2020.0,0.004540313378935901
2019.0,0.004628093971837721
2018.0,0.004671990922590297
2017.0,0.004715892310740433
2016.0,0.004671990922590297
2015.0,0.004628093971837721
2014.0,0.0044964297349936455
2013.0,0.004408675747646695
2012.0,0.004320939488377862
2011.0,0.004277078004534696
2010.0,0.004233220950025984
2009.0,0.004233220950025984
2008.0,0.004233220950025984
2007.0,0.004233220950025984
2006.0,0.004277078004534696
2005.0,0.0043648054024501
2004.0,0.004452550524862486
2003.0,0.0044964297349936455
2002.0,0.0044964297349936455
2001.0,0.004452550524862486
2000.0,0.0043648054024501
1999.0,0.004320939488377862
1998.0,0.004320939488377862
1997.0,0.004320939488377862
1996.0,0.0043648054024501
1995.0,0.004452550524862486
1994.0,0.004540313378935901
1993.0,0.00458420145758498
1992.0,0.00458420145758498
1991.0,0.004628093971837721
1990.0,0.004628093971837721
1989.0,0.004715892310740433
1988.0,0.004759798137184523
1987.0,0.004759798137184523
1986.0,0.004759798137184523
1985.0,0.004715892310740433
1984.0,0.004671990922590297
1983.0,0.004628093971837721
1982.0,0.004628093971837721
1981.0,0.004628093971837721
1980.0,0.004628093971837721
1979.0,0.004671990922590297
1978.0,0.004715892310740433
1977.0,0.004759798137184523
1976.0,0.004803708402820517
1975.0,0.00484762310854614
1974.0,0.004803708402820517
1973.0,0.004715892310740433
1972.0,0.004671990922590297
1971.0,0.004628093971837721
1970.0,0.004671990922590297
1969.0,0.004715892310740433
1968.0,0.004803708402820517
1967.0,0.00489154225525934
1966.0,0.004935465843858511
1965.0,0.004935465843858511
1964.0,0.004935465843858511
1963.0,0.004935465843858511
1962.0,0.004979393875242044
1961.0,0.005067263269958211
1960.0,0.005199100705396198
1959.0,0.0052870145684298375
1958.0,0.00537494623139545
1957.0,0.00541891874010525
1956.0,0.00541891874010525
1955.0,0.00541891874010525
1954.0,0.00541891874010525
1953.0,0.00537494623139545
1952.0,0.00537494623139545
1951.0,0.00541891874010525
1950.0,0.005506877116487674
1949.0,0.005594853310833647
1948.0,0.005638848091999105
1947.0,0.005682847330363394
1946.0,0.005682847330363394
1945.0,0.005682847330363394
1944.0,0.005682847330363394
1943.0,0.005594853310833647
1942.0,0.005462895701502157
1941.0,0.005330978174470591
1940.0,0.005155150446602086
1939.0,0.005023326350308999
1938.0,0.00484762310854614
1937.0,0.004759798137184523
1936.0,0.004715892310740433
1935.0,0.004628093971837721
1934.0,0.0044964297349936455
1933.0,0.004320939488377862
1932.0,0.004189368323957332
1931.0,0.004101676353562844
1930.0,0.0040578370074493275
1929.0,0.00401400208620073
1928.0,0.0040578370074493275
1927.0,0.00401400208620073
1926.0,0.003970171588923321
1925.0,0.003926345514724705
1924.0,0.003926345514724705
1923.0,0.00401400208620073
1922.0,0.0040578370074493275
1921.0,0.00401400208620073
1920.0,0.0038825238627120395
1919.0,0.0037510854308679953
1918.0,0.0035758960449088217
1917.0,0.003488327845821315
1916.0,0.003488327845821315
1915.0,0.003488327845821315
1914.0,0.003488327845821315
1913.0,0.0033570086445275926
1912.0,0.0033132443998284966
1911.0,0.0033132443998284966
1910.0,0.0033570086445275926
1909.0,0.0033570086445275926
1908.0,0.0033132443998284966
1907.0,0.0031819781204844855
1906.0,0.0030070181092942683
1905.0,0.0028758443407954637
1904.0,0.0027447101798967477
1903.0,0.002701007590486082
1902.0,0.002613615602686581
1901.0,0.002569926202528716
1900.0,0.0025262411970197185
1899.0,0.0025262411970197185
1898.0,0.002482560585275184
1897.0,0.002482560585275184
1896.0,0.002482560585275184
1895.0,0.002482560585275184
1894.0,0.002482560585275184
1893.0,0.0024388843664115978
1892.0,0.002395212539545666
1891.0,0.0023078820582733695
1890.0,0.0021769192542746563
1889.0,0.002089632653256679
1888.0,0.0020459959305969555
1887.0,0.0020459959305969555
1886.0,0.0020023635919956817
1885.0,0.001915112063444413
1884.0,0.0017842676290416026
1883.0,0.0016970599014589638
1882.0,0.0016534626036355249
1881.0,0.001609869681952425
1880.0,0.0015662811355310335
1879.0,0.0015662811355310335
1878.0,0.0015226969634936083
1877.0,0.0014791171649619628
1876.0,0.0014355417390583547
1875.0,0.0014355417390583547
1874.0,0.0013919706849057079
1873.0,0.0014355417390583547
1872.0,0.0014791171649619628
1871.0,0.001609869681952425
1870.0,0.0016534626036355249
1869.0,0.0016970599014589638
1868.0,0.0017406615763013722
1867.0,0.0016970599014589638
1866.0,0.0016534626036355249
1865.0,0.0015662811355310335
1864.0,0.0013919706849057079
1863.0,0.001304841688344327
1862.0,0.0012612837441823288
1861.0,0.0012177301682640973
1860.0,0.0011741809597138886
1859.0,0.0011306361176557367
1858.0,0.0010435595295137379
1857.0,0.0009565003968372565
1856.0,0.0009129773741116676
1855.0,0.000869458712629001
1854.0,0.0008259444115150671
1853.0,0.0008259444115150671
1852.0,0.000869458712629001
1851.0,0.0009565003968372565
1850.0,0.0011306361176557367
1849.0,0.0012612837441823288
1848.0,0.0013919706849057079
1847.0,0.0014791171649619628
1846.0,0.0015226969634936083
1845.0,0.0015226969634936083
1844.0,0.0014355417390583547
1843.0,0.0014355417390583547
1842.0,0.0015226969634936083
1841.0,0.001609869681952425
1840.0,0.0015226969634936083
1839.0,0.0013919706849057079
1838.0,0.0012612837441823288
1837.0,0.0011741809597138886
1836.0,0.0011741809597138886
1835.0,0.0011741809597138886
1834.0,0.0012612837441823288
1833.0,0.001348404001626502
1832.0,0.0013919706849057079
1831.0,0.0014355417390583547
1830.0,0.001348404001626502
1829.0,0.0012612837441823288
1828.0,0.0012612837441823288
1827.0,0.0013919706849057079
1826.0,0.0014791171649619628
1825.0,0.0014791171649619628
1824.0,0.0014355417390583547
1823.0,0.0013919706849057079
1822.0,0.001348404001626502
1821.0,0.0012612837441823288
1820.0,0.0011741809597138886
1819.0,0.0011306361176557367
1818.0,0.0010870956412141197
1817.0,0.0010435595295137379
1816.0,0.0009565003968372565
1815.0,0.000869458712629001
1814.0,0.0008259444115150671
1813.0,0.0007824344698965646
1812.0,0.0007824344698965646
1811.0,0.0007824344698965646
1810.0,0.0006954276616513155
1809.0,0.0006084382809090627
1808.0,0.0005649501236701937
1807.0,0.0005649501236701937
1806.0,0.000521466320689834
1805.0,0.0003910410285830057
1804.0,0.00030411258916074324
1803.0,0.00030411258916074324
1802.0,0.0003475746339209884
1801.0,0.0003475746339209884
1800.0,0.00030411258916074324
1799.0,0.00026065489343207737
1798.0,0.00021720154586435392
1797.0,0.00021720154586435392
1796.0,0.00021720154586435392
1795.0,0.00021720154586435392
1794.0,0.0001303078917322953
1793.0,-8.685021164911433e-05
1792.0,-0.0002604985473904087
1791.0,-0.0003472966853634851
1790.0,-0.0002604985473904087
1789.0,-0.00017368305846510168
1788.0,-0.00013026880522692963
1787.0,-0.00013026880522692963
1786.0,-0.00017368305846510168
1785.0,-0.00030389978481260016
1784.0,-0.00043407747931878404
1783.0,-0.00043407747931878404
1782.0,-0.0003472966853634851
1781.0,-0.0002604985473904087
1780.0,-0.0002604985473904087
1779.0,-0.0002604985473904087
1778.0,-0.00021709297223004853
1777.0,-0.00021709297223004853
1776.0,-0.00021709297223004853
1775.0,-4.3427276862573194e-05
1774.0,4.343161980746579e-05
1773.0,-0.00017368305846510168
1772.0,-0.0005208409361854294
1771.0,-0.0006075870628903246
1770.0,-0.0003906892499099257
1769.0,-8.685021164911433e-05
1768.0,0.0001303078917322953
1767.0,0.00021720154586435392
1766.0,0.00026065489343207737
1765.0,0.0003475746339209884
1764.0,0.00043451177401765406
1763.0,0.0005649501236701937
1762.0,0.0007389288868995258
1761.0,0.000869458712629001
1760.0,0.0011741809597138886
1759.0,0.0016534626036355249
1758.0,0.0021769192542746563
1757.0,0.002613615602686581
1756.0,0.0029632891174733444
1755.0,0.0035321097382827737
1754.0,0.004233220950025984
1753.0,0.004979393875242044
1752.0,0.005858888873877532
1751.0,0.007137328610972382
1750.0,0.008773924307505121
1749.0,0.010594681998483901
1748.0,0.01264661126420652
1747.0,0.014932966849499074
1746.0,0.017412209298337533
1745.0,0.02022406727031445
1744.0,0.023604163388120325
1743.0,0.02738066094037661
1742.0,0.03147035562516054
1741.0,0.036117771071222604
1740.0,0.04186632432376469
1739.0,0.047885915093007325
1738.0,0.05256627811294923
1737.0,0.05601112492622806
1736.0,0.05993198626064755
1735.0,0.06712054217620067
1734.0,0.07763790321520991
1733.0,0.08618614761628329
1732.0,0.09167586072382083
1731.0,0.09653017149282994
1730.0,0.10204318999304807
1729.0,0.10773839308446487
1728.0,0.11277666863747693
1727.0,0.11730473761840288
1726.0,0.12170805075020397
1725.0,0.12650501774383094
1724.0,0.1318847946727828
1723.0,0.13697470377052956
1722.0,0.1407415825326932
1721.0,0.1427881576831076
1720.0,0.14423862766005224
1719.0,0.14739803066176504
1718.0,0.15372475758778692
1717.0,0.1603334431175667
1716.0,0.16380251922107458
1715.0,0.16494389827988365
1714.0,0.16481693015095633
1713.0,0.16310648362356628
1712.0,0.1600822243213189
1711.0,0.1562690348879079
1710.0,0.15205736115477642
1709.0,0.1471541819850033
1708.0,0.1414628024303608
1707.0,0.13513308567147386
1706.0,0.12877744324029283
1705.0,0.12280148472821018
1704.0,0.11719095860756013
1703.0,0.11176432672943282
1702.0,0.10590557267730127
1701.0,0.09974214156222239
1700.0,0.09425807260839858
1699.0,0.09044397075882471
1698.0,0.08756536662442538
1697.0,0.08454739831152125
1696.0,0.08107890990866418
1695.0,0.07753405470158659
1694.0,0.07453319930846214
1693.0,0.07196279359311708
1692.0,0.06935655895783555
1691.0,0.06681652082538614
1690.0,0.06464390705442691
1689.0,0.06298389253518577
1688.0,0.061580354206806964
1687.0,0.060081579630943294
1686.0,0.05848856736559682
1685.0,0.05729763111133224
1684.0,0.05670338543334519
1683.0,0.05581353871631256
1682.0,0.05462990550969615
1681.0,0.053449489430144714
1680.0,0.05207638016827354
1679.0,0.0506099933550872
1678.0,0.04909991063361274
1677.0,0.047643522676209304
1676.0,0.04638525830935958
1675.0,0.04527520902093718
1674.0,0.04426415772233416
1673.0,0.04320747962950522
1672.0,0.04215336629184985
1671.0,0.04105406750606355
1670.0,0.04019568349166214
1669.0,0.03948165721929198
1668.0,0.03876880295533702
1667.0,0.03796231343498735
1666.0,0.037062711569998186
1665.0,0.0360705779734416
1664.0,0.03503362516890207
1663.0,0.03409308450480819
1662.0,0.03334211579824231
1661.0,0.032686081712916426
1660.0,0.032031037121307726
1659.0,0.03128362253321426
1658.0,0.030490901403433135
1657.0,0.029746130405213123
1656.0,0.02904906565457588
1655.0,0.028306761050139073
1654.0,0.027889771597169544
1653.0,0.027936083991977778
1652.0,0.027612000892527133
1651.0,0.02738066094037661
1650.0,0.027195677663422346
1649.0,0.026687379547098322
1648.0,0.026225806029419818
1647.0,0.026087429580295085
1646.0,0.025856900097785074
1645.0,0.02544225514642018
1644.0,0.024936003904763915
1643.0,0.024476287039668643
1642.0,0.02406295751688936
1641.0,0.02365002099672653
1640.0,0.023237476732539397
1639.0,0.022871099419317753
1638.0,0.02255077261765881
1637.0,0.022367834754000393
1636.0,0.02227639471115217
1635.0,0.021956506090037076
1634.0,0.021545566634771474
1633.0,0.021317434843055594
1632.0,0.021089422824428272
1631.0,0.020770406977844713
1630.0,0.02036058777709271
1629.0,0.019996628416253603
1628.0,0.019814763052665052
1627.0,0.019769308608968306
1626.0,0.019769308608968306
1625.0,0.019769308608968306
1624.0,0.019632973815224997
1623.0,0.01940584422377989
1622.0,0.019178833355664393
1621.0,0.0190880622231564
1620.0,0.01899731005860028
1619.0,0.019042683770379876
1618.0,0.01940584422377989
1617.0,0.02022406727031445
1616.0,0.020952673052035298
1615.0,0.02122621566987748
1614.0,0.021135015652343103
1613.0,0.020861530453190058
1612.0,0.020406104151069693
1611.0,0.019860222254245663
1610.0,0.019451260640229506
1609.0,0.0190880622231564
1608.0,0.018725167293411005
1607.0,0.01840788278591865
1606.0,0.018045555530026514
1605.0,0.01759307113620534
1604.0,0.017095882207371904
1603.0,0.016554142658660398
1602.0,0.016103208673694303
1601.0,0.015742798294583915
1600.0,0.015427684378367834
1599.0,0.015112798935672522
1598.0,0.014753209197138295
1597.0,0.014438812226654996
1596.0,0.014169510141607944
1595.0,0.01403492169512921
1594.0,0.013945219230304673
1593.0,0.013900374944870508
1592.0,0.01381070026317599
1591.0,0.01372104409400876
1590.0,0.013676222949234651
1589.0,0.01372104409400876
1588.0,0.013900374944870508
1587.0,0.014124642691606404
1586.0,0.014573525916998342
1585.0,0.015247721884586563
1584.0,0.01628352608625061
1583.0,0.01759307113620534
1582.0,0.019133445417920836
1581.0,0.020542681902151694
1580.0,0.021636852916117055
1579.0,0.022413561996148967
1578.0,0.02277955336461468
1577.0,0.022642270454698687
1576.0,0.021910826943857264
1575.0,0.020907099361673565
1574.0,0.01990568621470623
1573.0,0.018951941086827073
1572.0,0.01800028587012159
1571.0,0.016960383953898095
1570.0,0.01596801972881945
1569.0,0.015247721884586563
1568.0,0.014753209197138295
1567.0,0.014438812226654996
1566.0,0.014124642691606404
1565.0,0.013676222949234651
1564.0,0.013362604389846044
1563.0,0.013138729709955221
1562.0,0.013004460275618523
1561.0,0.012780770091995297
1560.0,0.012691326268817527
1559.0,0.012959713020733288
1558.0,0.012736045877764557
1557.0,0.012378417874516323
1556.0,0.012289056869694281
1555.0,0.01215504982870197
1554.0,0.011931796607364653
1553.0,0.011708658092512314
1552.0,0.011619434777991433
1551.0,0.011485634166333858
1550.0,0.011262724711199823
1549.0,0.010995384301463185
1548.0,0.010728208358306901
1547.0,0.010550182333308289
1546.0,0.010327752376126709
1545.0,0.010194349063173958
1544.0,0.010149890396819572
1543.0,0.01001654169860089
1542.0,0.00974996707218323
1541.0,0.009483555971770974
1540.0,0.009350411681145587
1539.0,0.009261671492462709
1538.0,0.009261671492462709
1537.0,0.009483555971770974
1536.0,0.009616741093766423
1535.0,0.00966114521239847
1534.0,0.009705553871561357
1533.0,0.009794384815193347
1532.0,0.009838807101520963
1531.0,0.009883233932095559
1530.0,0.009794384815193347
1529.0,0.009705553871561357
1528.0,0.009705553871561357
1527.0,0.009838807101520963
1526.0,0.009972101229705377
1525.0,0.01001654169860089
1524.0,0.009927665307847056
1523.0,0.009794384815193347
1522.0,0.00966114521239847
1521.0,0.009483555971770974
1520.0,0.009306039320248427
1519.0,0.009217308196862062
1518.0,0.009172949432521227
1517.0,0.009128595198514056
1516.0,0.009128595198514056
1515.0,0.009217308196862062
1514.0,0.009306039320248427
1513.0,0.009527946474380489
1512.0,0.009972101229705377
1511.0,0.010683695010048622
1510.0,0.011708658092512314
1509.0,0.01322826573375524
1508.0,0.016148281008528276
1507.0,0.020724852408976924
1506.0,0.023604163388120325
1505.0,0.02365002099672653
1504.0,0.02255077261765881
1503.0,0.020861530453190058
1502.0,0.018770512579999288
1501.0,0.01646391839700767
1500.0,0.014214382227394795
1499.0,0.012244383261476699
1498.0,0.010639186223752484
1497.0,0.009483555971770974
1496.0,0.008596697419959609
1495.0,0.007888512213050314
1494.0,0.007402303897961815
1493.0,0.007004901568658406
1492.0,0.006696062080525422
1491.0,0.006387442061109638
1490.0,0.00625524344553785
1489.0,0.006299305179649828
1488.0,0.006387442061109638
1487.0,0.006299305179649828
1486.0,0.00621118618129457
1485.0,0.00625524344553785
1484.0,0.006387442061109638
1483.0,0.006519680930003435
1482.0,0.006651960076740071
1481.0,0.006828394969235152
1480.0,0.007004901568658406
1479.0,0.007181479933320523
1478.0,0.007313960837872058
1477.0,0.007490664932224611
1476.0,0.007755855953228474
1475.0,0.007976972236149349
1474.0,0.008198201155356077
1473.0,0.008552401996197112
1472.0,0.008951223547323472
1471.0,0.009261671492462709
1470.0,0.009527946474380489
1469.0,0.009838807101520963
1468.0,0.010194349063173958
1467.0,0.010639186223752484
1466.0,0.011396456654336085
1465.0,0.01260190086298274
1464.0,0.013990068146738865
1463.0,0.015157768594724175
1462.0,0.016148281008528276
1461.0,0.017050711425501408
1460.0,0.017955020928509757
1459.0,0.019133445417920836
1458.0,0.0209982515252789
1457.0,0.023374947949272418
1456.0,0.02484402159331056
1455.0,0.025350165561278004
1454.0,0.025488307262671706
1453.0,0.02544225514642018
1452.0,0.025258095499050004
1451.0,0.025028005701930978
1450.0,0.024798037742147727
1449.0,0.02461415101053266
1448.0,0.024430342106337877
1447.0,0.024246610963712723
1446.0,0.02406295751688936
1445.0,0.023971159908874107
1444.0,0.023879381700184332
1443.0,0.023741750742954926
1442.0,0.023604163388120325
1441.0,0.023374947949272418
1440.0,0.023100049017062307
1439.0,0.022642270454698687
1438.0,0.021910826943857264
1437.0,0.020907099361673565
1436.0,0.019678413991243593
1435.0,0.01845319495476394
1434.0,0.01727661233145472
1433.0,0.016013078034810446
1432.0,0.014573525916998342
1431.0,0.013138729709955221
1430.0,0.011842527443247208
1429.0,0.010728208358306901
1428.0,0.009883233932095559
1427.0,0.009306039320248427
1426.0,0.008818242332126802
1425.0,0.008463824699968647
1424.0,0.008375265465994541
1423.0,0.00850811108984062
1422.0,0.008773924307505121
1421.0,0.009172949432521227
1420.0,0.010105436281226954
1419.0,0.011931796607364653
1418.0,0.01452861671041239
1417.0,0.017547848615010242
1416.0,0.0211806132671577
1415.0,0.02558042614771394
1414.0,0.030957032694186815
1413.0,0.037488606492403154
1412.0,0.04464904263234004
1411.0,0.05129369109514803
1410.0,0.056159373598738904
1409.0,0.058737090681050264
1408.0,0.0588862729628985
1407.0,0.05685187064143715
1406.0,0.053203972728539606
1405.0,0.04885683989244738
1404.0,0.04469717723830824
1403.0,0.041101805289228244
1402.0,0.038199360808321536
1401.0,0.035646070707806565
1400.0,0.03338901331806565
1399.0,0.03137697904301118
1398.0,0.02969962459782227
1397.0,0.02826040911222183
1396.0,0.026872146400301444
1395.0,0.025488307262671706
1394.0,0.024108863598207186
1393.0,0.02282532397981263
1392.0,0.02168250325324883
1391.0,0.020542681902151694
1390.0,0.01954210772389997
1389.0,0.018815862601645694
1388.0,0.01831727262871463
1387.0,0.018045555530026514
1386.0,0.01781925440359733
1385.0,0.017638298366853045
1384.0,0.017502630802287644
1383.0,0.01759307113620534
1382.0,0.017955020928509757
1381.0,0.01858915983411169
1380.0,0.01949668180660491
1379.0,0.02058821736556471
1378.0,0.021728158389364705
1377.0,0.02291687968414724
1376.0,0.024154774532432866
1375.0,0.02562649291857677
1374.0,0.027149444152769986
1373.0,0.028353117935693284
1372.0,0.029095501846216454
1371.0,0.029374223311705583
1370.0,0.029188389127482228
1369.0,0.02849221828874393
1368.0,0.027288159452933503
1367.0,0.02558042614771394
1366.0,0.023604163388120325
1365.0,0.0214542995372613
1364.0,0.019178833355664393
1363.0,0.01677978535189717
1362.0,0.014618439768003144
1361.0,0.012870232340102872
1360.0,0.011485634166333858
1359.0,0.010416710688994968
1358.0,0.009572341514736404
1357.0,0.008951223547323472
1356.0,0.008552401996197112
1355.0,0.008286724286910463
1354.0,0.008198201155356077
1353.0,0.008198201155356077
1352.0,0.008375265465994541
1351.0,0.008685301823389224
1350.0,0.009128595198514056
1349.0,0.009838807101520963
1348.0,0.010728208358306901
1347.0,0.011842527443247208
1346.0,0.013093968619278806
1345.0,0.014393916947563534
1344.0,0.015697768020096703
1343.0,0.016870075265299933
1342.0,0.017909760704207134
1341.0,0.018770512579999288
1340.0,0.019269623464054586
1339.0,0.0190880622231564
1338.0,0.018226681372252695
1337.0,0.01677978535189717
1336.0,0.015112798935672522
1335.0,0.013496984613259544
1334.0,0.012065734767841452
1333.0,0.010906307389674463
1332.0,0.010105436281226954
1331.0,0.009616741093766423
1330.0,0.009439170005980158
1329.0,0.009527946474380489
1328.0,0.009838807101520963
1327.0,0.01037222925484893
1326.0,0.011084479487313281
1325.0,0.011931796607364653
1324.0,0.012870232340102872
1323.0,0.01381070026317599
1322.0,0.014798141635428141
1321.0,0.01578783323856614
1320.0,0.016824927962187042
1319.0,0.017955020928509757
1318.0,0.0190880622231564
1317.0,0.02022406727031445
1316.0,0.021317434843055594
1315.0,0.022413561996148967
1314.0,0.023604163388120325
1313.0,0.024936003904763915
1312.0,0.026318081496016443
1311.0,0.027797161620935595
1310.0,0.02932775731028059
1309.0,0.030957032694186815
1308.0,0.032686081712916426
1307.0,0.03442204208947208
1306.0,0.036117771071222604
1305.0,0.03777276864991497
1304.0,0.03948165721929198
1303.0,0.04138834223512067
1302.0,0.04363944632667782
1301.0,0.04633693625290869
1300.0,0.04958646063061889
1299.0,0.053203972728539606
1298.0,0.05709945885970602
1297.0,0.06118017497378969
1296.0,0.06545105233385295
1295.0,0.06961138175567827
1294.0,0.07370901311513656
1293.0,0.07768983678560404
1292.0,0.08165507103772507
1291.0,0.08539243222891946
1290.0,0.08889568219596411
1289.0,0.09226626300234453
1288.0,0.09550084460218011
1287.0,0.09848719087006019
1286.0,0.10111034407341357
1285.0,0.1033635694704158
1284.0,0.10535169620648288
1283.0,0.1071265931112344
1282.0,0.10862982530385179
1281.0,0.10997041383658313
1280.0,0.11120293254331926
1279.0,0.11227020271196975
1278.0,0.11322735694556196
1277.0,0.11429961987167014
1276.0,0.11565785235294102
1275.0,0.11730473761840288
1274.0,0.11941504393502012
1273.0,0.12228319913502328
1272.0,0.12592425477696523
1271.0,0.13024040521758962
1270.0,0.13489602535887202
1269.0,0.13984173868172167
1268.0,0.14514763758216587
1267.0,0.15045774799498335
1266.0,0.15564710368910672
1265.0,0.16058480731610647
1264.0,0.16507090353942422
1263.0,0.16902660267734948
1262.0,0.17230771132555445
1261.0,0.17509352869788763
1260.0,0.17737432122585917
1259.0,0.1789452449531117
1258.0,0.17979854051435984
1257.0,0.18025870272698952
1256.0,0.18071935302751885
1255.0,0.1811804924524636
1254.0,0.18177410638604452
1253.0,0.18283142761894444
1252.0,0.18435585086803474
1251.0,0.18628560811885508
1250.0,0.18842499412940672
1249.0,0.19091186865365373
1248.0,0.19361649817583237
1247.0,0.19640633522865558
1246.0,0.19921420967223735
1245.0,0.20197120659592693
1244.0,0.20474581741911724
1243.0,0.20725821416525125
1242.0,0.2093630380682967
1241.0,0.21105427297625234
1240.0,0.21239785381766252
1239.0,0.21310667473868428
1238.0,0.2130357405642671
1237.0,0.2121146490590755
1236.0,0.21041928783557462
1235.0,0.20781850385032108
1234.0,0.20418947533259169
1233.0,0.19983300979863605
1232.0,0.19497515557019485
1231.0,0.1894986522334703
1230.0,0.18369240056806024
1229.0,0.1778319206319825
1228.0,0.17204947169736973
1227.0,0.16621562534352097
1226.0,0.16039627052916305
1225.0,0.15465386258859137
1224.0,0.14898639317633
1223.0,0.14333151638846497
1222.0,0.13774932540207496
1221.0,0.13235576609690147
1220.0,0.12726117252733116
1219.0,0.12234075588839133
1218.0,0.11758931562603192
1217.0,0.11305829401658474
1216.0,0.10868560061785693
1215.0,0.10457745396059215
1214.0,0.10078158214862709
1213.0,0.09729018703012282
1212.0,0.09398837472858723
1211.0,0.09076499663169257
1210.0,0.08772478950118767
1209.0,0.08491689834879956
1208.0,0.0823369756726251
1207.0,0.07987667370927598
1206.0,0.07743023101428781
1205.0,0.07504911108438939
1204.0,0.07268097504034388
1203.0,0.07047889936889606
1202.0,0.068389593637038
1201.0,0.06646209802829528
1200.0,0.06459351024765114
1199.0,0.06263258248271053
1198.0,0.06068046892176193
1197.0,0.058786812414678646
1196.0,0.057049929922901255
1195.0,0.05536929814372171
1194.0,0.05374429280060267
1193.0,0.05212534510230182
1192.0,0.0506099933550872
1191.0,0.049148541111453614
1190.0,0.04774046340917959
1189.0,0.046481918555007384
1188.0,0.04537162249272897
1187.0,0.04450467081587295
1186.0,0.04387961360698034
1185.0,0.0435434165901003
1184.0,0.043495409683302455
1183.0,0.04368746915880539
1182.0,0.04411991377462465
1181.0,0.044793462458058375
1180.0,0.045612749855485024
1179.0,0.04643358574299339
1178.0,0.04720755695590784
1177.0,0.047982909952573705
1176.0,0.048565334467987054
1175.0,0.04885683989244738
1174.0,0.04871106272232795
1173.0,0.04803141550708934
1172.0,0.0469171560879138
1171.0,0.04541983725624266
1170.0,0.04363944632667782
1169.0,0.04167506835594681
1168.0,0.03962436858984186
1167.0,0.03763066432997886
1166.0,0.03583468937826462
1165.0,0.03423403581731388
1164.0,0.032920265855503006
1163.0,0.03184406285002961
1162.0,0.030957032694186815
1161.0,0.030211462585061133
1160.0,0.02960662792039992
1159.0,0.029234840219232394
1158.0,0.029141943003497595
1157.0,0.029281296279810798
1156.0,0.02969962459782227
1155.0,0.030397735151460825
1154.0,0.03137697904301118
1153.0,0.03263926003405038
1152.0,0.03423403581731388
1151.0,0.0360705779734416
1150.0,0.03810452633214956
1149.0,0.04038628892895613
1148.0,0.04287180232318688
1147.0,0.045564513671517703
1146.0,0.04851676924770687
1145.0,0.051684859310652254
1144.0,0.05507339001378431
1143.0,0.05843887976392925
1142.0,0.061780582187257016
1141.0,0.06499684854634524
1140.0,0.0680846829187538
1139.0,0.0710411591191702
1138.0,0.07370901311513656
1137.0,0.07623803917129979
1136.0,0.07862570458152551
1135.0,0.08086958613938555
1134.0,0.08296737783760655
1133.0,0.08502252755566908
1132.0,0.0872466963286771
1131.0,0.08969583193143116
1130.0,0.09231997575758011
1129.0,0.09517630019905599
1128.0,0.09837823590664274
1127.0,0.10193333935836524
1126.0,0.10590557267730127
1125.0,0.11030620855581463
1124.0,0.11503480179926728
1123.0,0.11970100857424737
1122.0,0.12412880927263426
1121.0,0.1281352979118051
1120.0,0.13159069668503998
1119.0,0.13430394008392943
1118.0,0.1360232160956132
1117.0,0.1367961409713705
1116.0,0.13661765155921235
1115.0,0.13554825284181704
1114.0,0.1337717526203528
1113.0,0.1318847946727828
1112.0,0.13041629228657614
1111.0,0.12977172098820566
1110.0,0.1302990263261221
1109.0,0.1322379753497993
1108.0,0.13566694496660703
1107.0,0.14032142337155173
1106.0,0.14581545616639335
1105.0,0.15205736115477642
1104.0,0.158765704493959
1103.0,0.1657700971483227
1102.0,0.17276000049435458
1101.0,0.17973284283903546
1100.0,0.18655245573517876
1099.0,0.1928033392890527
1098.0,0.19825338078053978
1097.0,0.2028710122034474
1096.0,0.20662875108104428
1095.0,0.20950372303289044
1094.0,0.2115487929765445
1093.0,0.21282300752944616
1092.0,0.2135325232597176
1091.0,0.2135325232597176
1090.0,0.21268124337545258
1089.0,0.21133678687914248
1088.0,0.20957408260888943
1087.0,0.2074682380986923
1086.0,0.2049546295788751
1085.0,0.20217868863597643
1084.0,0.19921420967223735
1083.0,0.19592875111433883
1082.0,0.19219446772937543
1081.0,0.1879561020697733
1080.0,0.18329481633348466
1079.0,0.17809362264767703
1078.0,0.1725014918665413
1077.0,0.16659787076814148
1076.0,0.16064767110457878
1075.0,0.1545918603782066
1074.0,0.14849704722945534
1073.0,0.14260718907909875
1072.0,0.1370342410222376
1071.0,0.13170831198214428
1070.0,0.1267375405612734
1069.0,0.12211057462851604
1068.0,0.11776015198117662
1067.0,0.11356568037106163
1066.0,0.10957898119908571
1065.0,0.10596099919539115
1064.0,0.10270287794050348
1063.0,0.09968750301627338
1062.0,0.09691001300805646
1061.0,0.09447395156495153
1060.0,0.09242742120144909
1059.0,0.09087205801073917
1058.0,0.08974922769985194
1057.0,0.08900228368935714
1056.0,0.08862929288386212
1055.0,0.08862929288386212
1054.0,0.08905559425002108
1053.0,0.08996287644694911
1052.0,0.09124698081546634
1051.0,0.09285746899685954
1050.0,0.09452793807529569
1049.0,0.09636748391576244
1048.0,0.09821485469640057
1047.0,0.10001543745060903
1046.0,0.10165883427249067
1045.0,0.10303309806684524
1044.0,0.10408045468998406
1043.0,0.1047432468551055
1042.0,0.10513034325474746
1041.0,0.10529634739076998
1040.0,0.10518567091669917
1039.0,0.10479852522110678
1038.0,0.10413564875270076
1037.0,0.10319830233507843
1036.0,0.10215306842042837
1035.0,0.10089114180660053
1034.0,0.09963287134352972
1033.0,0.09843270997155007
1032.0,0.09729018703012282
1031.0,0.0960964733098364
1030.0,0.09474395125154866
1029.0,0.09334178232840018
1028.0,0.09205147838772776
1027.0,0.09097914578884403
1026.0,0.09039048950983108
1025.0,0.09065796163869155
1024.0,0.09242742120144909
1023.0,0.09620485725896466
1022.0,0.10242788617426934
1021.0,0.11114683301706374
1020.0,0.12193801870998744
1019.0,0.13359450162194508
1018.0,0.14442027749828212
1017.0,0.15242734085788778
1016.0,0.15602015552184012
1015.0,0.15434394001645568
1014.0,0.1482525808667361
1013.0,0.1394224487555844
1012.0,0.12983027886355947
1011.0,0.12084675381575383
1010.0,0.112945621949043
1009.0,0.1063491830140364
1008.0,0.10078158214862709
1007.0,0.09604229147682952
1006.0,0.0919977988274463
1005.0,0.08857603462370545
1004.0,0.08570974433405087
1003.0,0.08333553545860273
1002.0,0.08134070657817682
1001.0,0.07951143534170213
1000.0,0.0777417765670334
999.0,0.07613452481449845
998.0,0.07458476291575367
997.0,0.0732460948102629
996.0,0.07211658966929302
995.0,0.07114346641808922
994.0,0.0702746216219956
993.0,0.06945847013556561
992.0,0.06879647454924775
991.0,0.06823711151882228
990.0,0.06772922410050963
989.0,0.06732334137759932
988.0,0.06691783763020887
987.0,0.0665127121512945
986.0,0.06610796423578891
985.0,0.06575411897692884
984.0,0.0655520510510299
983.0,0.0654005617819271
982.0,0.06529959828457499
981.0,0.06519865825346338
980.0,0.06519865825346338
979.0,0.06519865825346338
978.0,0.06519865825346338
977.0,0.06519865825346338
976.0,0.06519865825346338
975.0,0.06514819703433927
974.0,0.06509774167768612
973.0,0.06494641076893504
972.0,0.06459351024765114
971.0,0.06408986356949264
970.0,0.06338573802478864
969.0,0.06268275223750575
968.0,0.06198090252378963
967.0,0.06118017497378969
966.0,0.06028111764589528
965.0,0.05928434309333741
964.0,0.0582898510583536
963.0,0.05724807957018618
962.0,0.05625823416868636
961.0,0.05541863577307371
960.0,0.054679159207724926
959.0,0.05394093961487645
958.0,0.05325306496641513
957.0,0.05256627811294923
956.0,0.05197846685889629
955.0,0.05139145012356372
954.0,0.05075640943173498
953.0,0.05021979163799939
952.0,0.04982994019179987
951.0,0.04953778109440221
950.0,0.04919717703534143
949.0,0.048808242065293994
948.0,0.04841965509660828
947.0,0.048128442871635535
946.0,0.047934409814949674
945.0,0.04778894189133087
944.0,0.047595060422975566
943.0,0.04740126547022694
942.0,0.04720755695590784
941.0,0.047062332249019345
940.0,0.04701393480294458
939.0,0.04696554274964315
938.0,0.04686877481655505
937.0,0.04672366333269573
936.0,0.04653025674659861
935.0,0.04633693625290869
934.0,0.04609540658654021
933.0,0.04595055323640551
932.0,0.045902279520810385
931.0,0.04585401117045196
930.0,0.04580574818413763
929.0,0.045660991397539874
928.0,0.0454680573730859
927.0,0.0451788169482068
926.0,0.04484161307420642
925.0,0.044456557540257124
924.0,0.044071843103049346
923.0,0.04363944632667782
922.0,0.04325545471730896
921.0,0.04301563225723992
920.0,0.04287180232318688
919.0,0.04272802000705722
918.0,0.04263219156847242
917.0,0.042584285277331047
916.0,0.04272802000705722
915.0,0.04301563225723992
914.0,0.0433514207947967
913.0,0.04368746915880539
912.0,0.044167989767578186
911.0,0.04488976902944808
910.0,0.04595055323640551
909.0,0.04725597598510167
908.0,0.04885683989244738
907.0,0.05056119896349576
906.0,0.05237025261564554
905.0,0.05423607688882637
904.0,0.05601112492622806
903.0,0.05769424710410598
902.0,0.05933412752417122
901.0,0.06078036414518184
900.0,0.06198090252378963
899.0,0.06298389253518577
898.0,0.06363708040225546
897.0,0.06414020196211956
896.0,0.06444235490698613
895.0,0.06459351024765114
894.0,0.06469430971007495
893.0,0.06474471821595262
892.0,0.06489597884855036
891.0,0.06509774167768612
890.0,0.06524912533642091
889.0,0.0654005617819271
888.0,0.06575411897692884
887.0,0.06641148980334699
886.0,0.06737405597821788
885.0,0.06869471857832687
884.0,0.07022356719509815
883.0,0.07206531825882068
882.0,0.07443009045662374
881.0,0.0772226580712021
880.0,0.08045124103115198
879.0,0.0839147001562972
878.0,0.08761850108119962
877.0,0.09151498112135026
876.0,0.0955549589230904
875.0,0.09935981601739963
874.0,0.10253786198693682
873.0,0.10457745396059215
872.0,0.10507502264045665
871.0,0.10397008760377302
870.0,0.1014393550602879
869.0,0.09783387072894878
868.0,0.09366495819490939
867.0,0.08932224525729482
866.0,0.08528671302637614
865.0,0.08170748724464438
864.0,0.07857365898473456
863.0,0.07572071393811841
862.0,0.0732460948102629
861.0,0.07124579782334672
860.0,0.06981534770138009
859.0,0.06884736147670667
858.0,0.06823711151882228
857.0,0.06788152797087754
856.0,0.06767846801070698
855.0,0.0675769736232612
854.0,0.06752623532284674
853.0,0.0675769736232612
852.0,0.06767846801070698
851.0,0.0676277178520861
850.0,0.0675769736232612
849.0,0.06747550294945781
848.0,0.06737405597821788
847.0,0.06722192993944942
846.0,0.06696850489759454
845.0,0.06671522765130522
844.0,0.06656333217371957
843.0,0.06646209802829528
842.0,0.0663102910421054
841.0,0.06605739725873905
840.0,0.06575411897692884
839.0,0.0654005617819271
838.0,0.06504729218214189
837.0,0.06474471821595262
836.0,0.06439198148213077
835.0,0.06393888339001164
834.0,0.06328524178879635
833.0,0.062381820606176586
832.0,0.06143024377893891
831.0,0.06048074738138154
830.0,0.05968277842578207
829.0,0.0588862729628985
828.0,0.05814087347462649
827.0,0.05744631966579017
826.0,0.056950888991593285
825.0,0.05660442349104544
824.0,0.05630767289398331
823.0,0.055961719945581745
822.0,0.05566540802921782
821.0,0.05536929814372171
820.0,0.055172003656783764
819.0,0.0549747987575373
818.0,0.054876229877880656
817.0,0.054876229877880656
816.0,0.0549255115212699
815.0,0.05502409158795207
814.0,0.055122694036304765
813.0,0.05522131887649295
812.0,0.05531996611868961
811.0,0.055270639696704205
810.0,0.055172003656783764
809.0,0.05507339001378431
808.0,0.0549747987575373
807.0,0.0549255115212699
806.0,0.0549255115212699
805.0,0.054876229877880656
804.0,0.05482695382609992
803.0,0.05458065739693696
802.0,0.05413767551038262
801.0,0.05369514500652506
800.0,0.0534986094304124
799.0,0.05379344615721715
798.0,0.05502409158795207
797.0,0.057198533682059516
796.0,0.06003170944866376
795.0,0.06283329628496737
794.0,0.06484555278383164
793.0,0.0655520510510299
792.0,0.06504729218214189
791.0,0.06363708040225546
790.0,0.06153031163235467
789.0,0.059035506507200575
788.0,0.05630767289398331
787.0,0.0534986094304124
786.0,0.05085404758005607
785.0,0.04841965509660828
784.0,0.04628861957244457
783.0,0.04455278942230456
782.0,0.043303435105349175
781.0,0.042344833056508824
780.0,0.04153168163305643
779.0,0.04062466342415694
778.0,0.03967194946985697
777.0,0.038721320914956836
776.0,0.03772539537668518
775.0,0.036779013477011624
774.0,0.03597620715996652
773.0,0.03526907894637077
772.0,0.034516075754861264
771.0,0.03367050483612166
770.0,0.03282657704446046
769.0,0.03207779326948268
768.0,0.03142366482450232
767.0,0.03081714076773867
766.0,0.030211462585061133
765.0,0.029560137048236124
764.0,0.028956208163971375
763.0,0.028306761050139073
762.0,0.027612000892527133
761.0,0.02682594731702781
760.0,0.025995203102585407
759.0,0.02521206778644225
758.0,0.024430342106337877
757.0,0.023695883447997224
756.0,0.022871099419317753
755.0,0.02204787879853809
754.0,0.021363051615525652
753.0,0.02081596632558158
752.0,0.020406104151069693
751.0,0.020178569969774962
750.0,0.02013307743509718
749.0,0.020315076172974234
748.0,0.02058821736556471
747.0,0.020907099361673565
746.0,0.0214542995372613
745.0,0.02259651912656535
744.0,0.024706084643793647
743.0,0.028167720075074953
742.0,0.03343591590268957
741.0,0.04081545726880842
740.0,0.05026854768429301
739.0,0.06143024377893891
738.0,0.07391491307485598
737.0,0.08751223866767632
736.0,0.10187842445889239
735.0,0.1169634899723202
734.0,0.13247358880025661
733.0,0.1480693213597324
732.0,0.16354928627984533
731.0,0.17920761891179637
730.0,0.19579239491795852
729.0,0.21417208000413446
728.0,0.23403357521428614
727.0,0.25375512827980184
726.0,0.27083521030723
725.0,0.2824127031445396
724.0,0.28650945690605756
723.0,0.2826624172761363
722.0,0.2715650490257453
721.0,0.25539412458576116
720.0,0.2364222755333547
719.0,0.21716919479740815
718.0,0.19955787866374353
717.0,0.18422307970163732
716.0,0.17108243838331405
715.0,0.16020781555467067
714.0,0.1513798825658661
713.0,0.14435971910985468
712.0,0.13858508136400327
711.0,0.1337717526203528
710.0,0.12965462891904034
709.0,0.12604034525664676
708.0,0.12262865413022594
707.0,0.11935787359571504
706.0,0.11622503864474187
705.0,0.11345287660889425
704.0,0.11103465569966264
703.0,0.10862982530385179
702.0,0.10573933555301185
701.0,0.10215306842042837
700.0,0.09805153492691598
699.0,0.09420411963213149
698.0,0.09135416109288674
697.0,0.08964244272712252
696.0,0.0881502035005799
695.0,0.08602728844902896
694.0,0.0830725338870073
693.0,0.07992887570247587
692.0,0.07743023101428781
691.0,0.07608277688689435
690.0,0.07572071393811841
689.0,0.07582412969807906
688.0,0.07566901529132153
687.0,0.07520400420208784
686.0,0.07494587968815725
685.0,0.07535895258283709
684.0,0.0763933569825408
683.0,0.07743023101428781
682.0,0.07784567476894111
681.0,0.07706704344478843
680.0,0.07494587968815725
679.0,0.0720140529005715
678.0,0.06971335275448043
677.0,0.0690000580438479
676.0,0.06950943469373039
675.0,0.06940751155740177
674.0,0.06772922410050963
673.0,0.06499684854634524
672.0,0.062281556382736136
671.0,0.06003170944866376
670.0,0.05814087347462649
669.0,0.05789269101064454
668.0,0.05988213325228142
667.0,0.06108018775522828
666.0,0.06003170944866376
665.0,0.057743849580535134
664.0,0.05536929814372171
663.0,0.05379344615721715
662.0,0.052762392129333646
661.0,0.05134256785867963
660.0,0.04963514562387683
659.0,0.0486139051197072
658.0,0.0486139051197072
657.0,0.048468209457651845
656.0,0.04730440041308315
655.0,0.046143701775014145
654.0,0.04633693625290869
653.0,0.047643522676209304
652.0,0.04866248120408234
651.0,0.04905128560059957
650.0,0.04944043838819989
649.0,0.050317309204795935
648.0,0.05100054597304693
647.0,0.050707598587974356
646.0,0.04958646063061889
645.0,0.04832256265669943
644.0,0.04725597598510167
643.0,0.046192002334692894
642.0,0.04513062893352182
641.0,0.04464904263234004
640.0,0.04537162249272897
639.0,0.04711073508906982
638.0,0.048808242065293994
637.0,0.04973253198641148
636.0,0.0506099933550872
635.0,0.052762392129333646
634.0,0.05650548409389744
633.0,0.060081579630943294
632.0,0.061580354206806964
631.0,0.06093025007657582
630.0,0.05933412752417122
629.0,0.05744631966579017
628.0,0.055270639696704205
627.0,0.05290953578037816
626.0,0.050805225762017736
625.0,0.04948910701400333
624.0,0.048808242065293994
623.0,0.048565334467987054
622.0,0.04871106272232795
621.0,0.048905443158337114
620.0,0.04885683989244738
619.0,0.04837110616336182
618.0,0.0478374257855374
617.0,0.0478374257855374
616.0,0.0486139051197072
615.0,0.050073556332087765
614.0,0.051684859310652254
613.0,0.05290953578037816
612.0,0.05310580489767336
611.0,0.05188057561946402
610.0,0.04944043838819989
609.0,0.04657860031896477
608.0,0.04455278942230456
607.0,0.04411991377462465
606.0,0.04508244626504121
605.0,0.046481918555007384
604.0,0.04744970610179822
603.0,0.04740126547022694
602.0,0.046047116768076934
601.0,0.04344740808260106
600.0,0.04086316882962593
