cm-1,A
4000.0,0.0038825238627120395
3999.0,0.0038387066319929275
3998.0,0.0037510854308679953
3997.0,0.003707281458678491
3996.0,0.0036634819042162814
3995.0,0.003619686766589858
3994.0,0.003619686766589858
3993.0,0.003619686766589858
3992.0,0.0035321097382827737
3991.0,0.0034445503666347133
3990.0,0.0034007772998332353
3989.0,0.0034007772998332353
3988.0,0.0034445503666347133
3987.0,0.0035321097382827737
3986.0,0.003619686766589858
3985.0,0.003707281458678491
3984.0,0.0037510854308679953
3983.0,0.0038387066319929275
3982.0,0.0038825238627120395
3981.0,0.0038825238627120395
3980.0,0.0038387066319929275
3979.0,0.0037510854308679953
3978.0,0.003707281458678491
3977.0,0.003707281458678491
3976.0,0.0037510854308679953
3975.0,0.003794893821675638
3974.0,0.003794893821675638
3973.0,0.0037510854308679953
3972.0,0.003707281458678491
3971.0,0.0037510854308679953
3970.0,0.003794893821675638
3969.0,0.0038825238627120395
3968.0,0.003926345514724705
3967.0,0.0038825238627120395
3966.0,0.003794893821675638
3965.0,0.003707281458678491
3964.0,0.003619686766589858
3963.0,0.0035758960449088217
3962.0,0.0035321097382827737
3961.0,0.0035321097382827737
3960.0,0.0035321097382827737
3959.0,0.0035321097382827737
3958.0,0.0035758960449088217
3957.0,0.0035758960449088217
3956.0,0.003619686766589858
3955.0,0.003619686766589858
3954.0,0.003619686766589858
3953.0,0.003619686766589858
3952.0,0.0035758960449088217
3951.0,0.0035758960449088217
3950.0,0.0035758960449088217
3949.0,0.003619686766589858
3948.0,0.003619686766589858
3947.0,0.0036634819042162814
3946.0,0.003707281458678491
3945.0,0.003707281458678491
3944.0,0.003707281458678491
3943.0,0.003619686766589858
3942.0,0.0035321097382827737
3941.0,0.003488327845821315
3940.0,0.0035321097382827737
3939.0,0.0035758960449088217
3938.0,0.003619686766589858
3937.0,0.003707281458678491
3936.0,0.003794893821675638
3935.0,0.0038825238627120395
3934.0,0.0038825238627120395
3933.0,0.0037510854308679953
3932.0,0.003619686766589858
3931.0,0.003488327845821315
3930.0,0.003488327845821315
3929.0,0.003619686766589858
3928.0,0.003794893821675638
3927.0,0.003926345514724705
3926.0,0.003970171588923321
3925.0,0.0038825238627120395
3924.0,0.003794893821675638
3923.0,0.003707281458678491
3922.0,0.0037510854308679953
3921.0,0.003794893821675638
3920.0,0.0038825238627120395
3919.0,0.0038825238627120395
3918.0,0.0038387066319929275
3917.0,0.0037510854308679953
3916.0,0.003619686766589858
3915.0,0.0035758960449088217
3914.0,0.003619686766589858
3913.0,0.003707281458678491
3912.0,0.003707281458678491
3911.0,0.003707281458678491
3910.0,0.0037510854308679953
3909.0,0.0038387066319929275
3908.0,0.003970171588923321
3907.0,0.0040578370074493275
3906.0,0.004145520125434121
3905.0,0.004145520125434121
3904.0,0.0040578370074493275
3903.0,0.00401400208620073
3902.0,0.0040578370074493275
3901.0,0.004101676353562844
3900.0,0.004101676353562844
3899.0,0.0040578370074493275
3898.0,0.003970171588923321
3897.0,0.003926345514724705
3896.0,0.0038825238627120395
3895.0,0.0038825238627120395
3894.0,0.0038825238627120395
3893.0,0.003926345514724705
3892.0,0.0038825238627120395
3891.0,0.003794893821675638
3890.0,0.0037510854308679953
3889.0,0.0037510854308679953
3888.0,0.003794893821675638
3887.0,0.003794893821675638
3886.0,0.0037510854308679953
3885.0,0.0036634819042162814
3884.0,0.003707281458678491
3883.0,0.003794893821675638
3882.0,0.003794893821675638
3881.0,0.003707281458678491
3880.0,0.0036634819042162814
3879.0,0.003707281458678491
3878.0,0.0038387066319929275
3877.0,0.003926345514724705
3876.0,0.003970171588923321
3875.0,0.0038825238627120395
3874.0,0.003794893821675638
3873.0,0.0037510854308679953
3872.0,0.0037510854308679953
3871.0,0.003707281458678491
3870.0,0.0035758960449088217
3869.0,0.0035321097382827737
3868.0,0.0036634819042162814
3867.0,0.0038387066319929275
3866.0,0.0038825238627120395
3865.0,0.003794893821675638
3864.0,0.0036634819042162814
3863.0,0.0035758960449088217
3862.0,0.0035758960449088217
3861.0,0.003619686766589858
3860.0,0.003707281458678491
3859.0,0.003794893821675638
3858.0,0.003794893821675638
3857.0,0.0037510854308679953
3856.0,0.003707281458678491
3855.0,0.0038387066319929275
3854.0,0.00401400208620073
3853.0,0.00401400208620073
3852.0,0.003926345514724705
3851.0,0.003970171588923321
3850.0,0.003970171588923321
3849.0,0.0038825238627120395
3848.0,0.003794893821675638
3847.0,0.0037510854308679953
3846.0,0.0037510854308679953
3845.0,0.003794893821675638
3844.0,0.0037510854308679953
3843.0,0.0036634819042162814
3842.0,0.003619686766589858
3841.0,0.0036634819042162814
3840.0,0.0037510854308679953
3839.0,0.0038825238627120395
3838.0,0.003926345514724705
3837.0,0.003970171588923321
3836.0,0.003970171588923321
3835.0,0.00401400208620073
3834.0,0.0040578370074493275
3833.0,0.00401400208620073
3832.0,0.003926345514724705
3831.0,0.0038387066319929275
3830.0,0.003794893821675638
3829.0,0.003794893821675638
3828.0,0.0038387066319929275
3827.0,0.0038825238627120395
3826.0,0.0038825238627120395
3825.0,0.0038825238627120395
3824.0,0.003926345514724705
3823.0,0.003926345514724705
3822.0,0.003970171588923321
3821.0,0.003926345514724705
3820.0,0.003970171588923321
3819.0,0.004101676353562844
3818.0,0.004189368323957332
3817.0,0.0040578370074493275
3816.0,0.0038387066319929275
3815.0,0.003707281458678491
3814.0,0.003707281458678491
3813.0,0.003794893821675638
3812.0,0.0037510854308679953
3811.0,0.003619686766589858
3810.0,0.003619686766589858
3809.0,0.0036634819042162814
3808.0,0.003707281458678491
3807.0,0.0036634819042162814
3806.0,0.0036634819042162814
3805.0,0.0037510854308679953
3804.0,0.0038825238627120395
3803.0,0.003970171588923321
3802.0,0.003926345514724705
3801.0,0.0037510854308679953
3800.0,0.0036634819042162814
3799.0,0.003707281458678491
3798.0,0.0036634819042162814
3797.0,0.0035758960449088217
3796.0,0.0034445503666347133
3795.0,0.0034007772998332353
3794.0,0.0034445503666347133
3793.0,0.0035758960449088217
3792.0,0.0036634819042162814
3791.0,0.003794893821675638
3790.0,0.0038825238627120395
3789.0,0.003926345514724705
3788.0,0.003970171588923321
3787.0,0.003970171588923321
3786.0,0.003970171588923321
3785.0,0.0038825238627120395
3784.0,0.003794893821675638
3783.0,0.0037510854308679953
3782.0,0.003794893821675638
3781.0,0.0038387066319929275
3780.0,0.0038387066319929275
3779.0,0.003794893821675638
3778.0,0.003794893821675638
3777.0,0.0038387066319929275
3776.0,0.0038825238627120395
3775.0,0.0038387066319929275
3774.0,0.003794893821675638
3773.0,0.0037510854308679953
3772.0,0.0037510854308679953
3771.0,0.003794893821675638
3770.0,0.0038387066319929275
3769.0,0.0038825238627120395
3768.0,0.0038825238627120395
3767.0,0.0038825238627120395
3766.0,0.003794893821675638
3765.0,0.0036634819042162814
3764.0,0.0035758960449088217
3763.0,0.0035758960449088217
3762.0,0.0035758960449088217
3761.0,0.0035321097382827737
3760.0,0.0035321097382827737
3759.0,0.0035321097382827737
3758.0,0.0035758960449088217
3757.0,0.003619686766589858
3756.0,0.003707281458678491
3755.0,0.0037510854308679953
3754.0,0.0037510854308679953
3753.0,0.0036634819042162814
3752.0,0.0037510854308679953
3751.0,0.0038825238627120395
3750.0,0.003926345514724705
3749.0,0.0038825238627120395
3748.0,0.003970171588923321
3747.0,0.0040578370074493275
3746.0,0.004101676353562844
3745.0,0.004101676353562844
3744.0,0.00401400208620073
3743.0,0.004101676353562844
3742.0,0.004320939488377862
3741.0,0.004408675747646695
3740.0,0.004320939488377862
3739.0,0.004320939488377862
3738.0,0.004452550524862486
3737.0,0.004671990922590297
3736.0,0.004759798137184523
3735.0,0.004628093971837721
3734.0,0.0043648054024501
3733.0,0.004189368323957332
3732.0,0.004101676353562844
3731.0,0.004101676353562844
3730.0,0.004233220950025984
3729.0,0.0043648054024501
3728.0,0.0044964297349936455
3727.0,0.004540313378935901
3726.0,0.004452550524862486
3725.0,0.0043648054024501
3724.0,0.004233220950025984
3723.0,0.004101676353562844
3722.0,0.003926345514724705
3721.0,0.003794893821675638
3720.0,0.003707281458678491
3719.0,0.003707281458678491
3718.0,0.0037510854308679953
3717.0,0.003794893821675638
3716.0,0.0038825238627120395
3715.0,0.003970171588923321
3714.0,0.004101676353562844
3713.0,0.0043648054024501
3712.0,0.004628093971837721
3711.0,0.004803708402820517
3710.0,0.004803708402820517
3709.0,0.004715892310740433
3708.0,0.00458420145758498
3707.0,0.004452550524862486
3706.0,0.004277078004534696
3705.0,0.004145520125434121
3704.0,0.00401400208620073
3703.0,0.003926345514724705
3702.0,0.0038387066319929275
3701.0,0.0037510854308679953
3700.0,0.0037510854308679953
3699.0,0.0038387066319929275
3698.0,0.003970171588923321
3697.0,0.004145520125434121
3696.0,0.004277078004534696
3695.0,0.0043648054024501
3694.0,0.004452550524862486
3693.0,0.004408675747646695
3692.0,0.004277078004534696
3691.0,0.0040578370074493275
3690.0,0.0038387066319929275
3689.0,0.0036634819042162814
3688.0,0.003619686766589858
3687.0,0.0038387066319929275
3686.0,0.0040578370074493275
3685.0,0.004189368323957332
3684.0,0.004145520125434121
3683.0,0.00401400208620073
3682.0,0.003926345514724705
3681.0,0.0038825238627120395
3680.0,0.0038825238627120395
3679.0,0.003926345514724705
3678.0,0.0040578370074493275
3677.0,0.004277078004534696
3676.0,0.004277078004534696
3675.0,0.0040578370074493275
3674.0,0.003926345514724705
3673.0,0.0040578370074493275
3672.0,0.004189368323957332
3671.0,0.004277078004534696
3670.0,0.004320939488377862
3669.0,0.004277078004534696
3668.0,0.004277078004534696
3667.0,0.004320939488377862
3666.0,0.004277078004534696
3665.0,0.004233220950025984
3664.0,0.004145520125434121
3663.0,0.0040578370074493275
3662.0,0.00401400208620073
3661.0,0.003970171588923321
3660.0,0.003970171588923321
3659.0,0.0040578370074493275
3658.0,0.004145520125434121
3657.0,0.004189368323957332
3656.0,0.004101676353562844
3655.0,0.00401400208620073
3654.0,0.003970171588923321
3653.0,0.003970171588923321
3652.0,0.003970171588923321
3651.0,0.004101676353562844
3650.0,0.004408675747646695
3649.0,0.004452550524862486
3648.0,0.004277078004534696
3647.0,0.004101676353562844
3646.0,0.004101676353562844
3645.0,0.004189368323957332
3644.0,0.004277078004534696
3643.0,0.004277078004534696
3642.0,0.004277078004534696
3641.0,0.004233220950025984
3640.0,0.004189368323957332
3639.0,0.004189368323957332
3638.0,0.004145520125434121
3637.0,0.004145520125434121
3636.0,0.004145520125434121
3635.0,0.004189368323957332
3634.0,0.004189368323957332
3633.0,0.004277078004534696
3632.0,0.004408675747646695
3631.0,0.004540313378935901
3630.0,0.004671990922590297
3629.0,0.00458420145758498
3628.0,0.004408675747646695
3627.0,0.004408675747646695
3626.0,0.00458420145758498
3625.0,0.004671990922590297
3624.0,0.004628093971837721
3623.0,0.0044964297349936455
3622.0,0.004320939488377862
3621.0,0.004189368323957332
3620.0,0.004101676353562844
3619.0,0.0040578370074493275
3618.0,0.0040578370074493275
3617.0,0.004145520125434121
3616.0,0.004277078004534696
3615.0,0.0043648054024501
3614.0,0.004452550524862486
3613.0,0.004452550524862486
3612.0,0.004540313378935901
3611.0,0.004671990922590297
3610.0,0.00489154225525934
3609.0,0.005023326350308999
3608.0,0.005111204635089406
3607.0,0.005067263269958211
3606.0,0.005023326350308999
3605.0,0.005067263269958211
3604.0,0.005111204635089406
3603.0,0.005155150446602086
3602.0,0.005199100705396198
3601.0,0.005111204635089406
3600.0,0.004935465843858511
3599.0,0.004715892310740433
3598.0,0.00458420145758498
3597.0,0.004628093971837721
3596.0,0.004715892310740433
3595.0,0.004803708402820517
3594.0,0.004759798137184523
3593.0,0.004628093971837721
3592.0,0.004540313378935901
3591.0,0.004540313378935901
3590.0,0.004540313378935901
3589.0,0.004540313378935901
3588.0,0.004452550524862486
3587.0,0.004277078004534696
3586.0,0.004145520125434121
3585.0,0.004145520125434121
3584.0,0.004277078004534696
3583.0,0.004408675747646695
3582.0,0.004540313378935901
3581.0,0.004671990922590297
3580.0,0.004803708402820517
3579.0,0.00484762310854614
3578.0,0.00484762310854614
3577.0,0.004803708402820517
3576.0,0.004715892310740433
3575.0,0.004628093971837721
3574.0,0.004628093971837721
3573.0,0.004671990922590297
3572.0,0.004628093971837721
3571.0,0.00458420145758498
3570.0,0.0044964297349936455
3569.0,0.004408675747646695
3568.0,0.0043648054024501
3567.0,0.004277078004534696
3566.0,0.004145520125434121
3565.0,0.004101676353562844
3564.0,0.004145520125434121
3563.0,0.004233220950025984
3562.0,0.0043648054024501
3561.0,0.004452550524862486
3560.0,0.004540313378935901
3559.0,0.00458420145758498
3558.0,0.00458420145758498
3557.0,0.004540313378935901
3556.0,0.0044964297349936455
3555.0,0.004452550524862486
3554.0,0.004408675747646695
3553.0,0.004408675747646695
3552.0,0.004408675747646695
3551.0,0.004408675747646695
3550.0,0.004452550524862486
3549.0,0.0044964297349936455
3548.0,0.004628093971837721
3547.0,0.004715892310740433
3546.0,0.004759798137184523
3545.0,0.004715892310740433
3544.0,0.00458420145758498
3543.0,0.004452550524862486
3542.0,0.0043648054024501
3541.0,0.0043648054024501
3540.0,0.004320939488377862
3539.0,0.004320939488377862
3538.0,0.004277078004534696
3537.0,0.004233220950025984
3536.0,0.004233220950025984
3535.0,0.004277078004534696
3534.0,0.0043648054024501
3533.0,0.004452550524862486
3532.0,0.00458420145758498
3531.0,0.004671990922590297
3530.0,0.004759798137184523
3529.0,0.004803708402820517
3528.0,0.004759798137184523
3527.0,0.004628093971837721
3526.0,0.004540313378935901
3525.0,0.004540313378935901
3524.0,0.004540313378935901
3523.0,0.00458420145758498
3522.0,0.00458420145758498
3521.0,0.004540313378935901
3520.0,0.0044964297349936455
3519.0,0.004452550524862486
3518.0,0.004408675747646695
3517.0,0.004408675747646695
3516.0,0.004408675747646695
3515.0,0.0043648054024501
3514.0,0.004320939488377862
3513.0,0.004233220950025984
3512.0,0.004277078004534696
3511.0,0.004320939488377862
3510.0,0.004452550524862486
3509.0,0.004540313378935901
3508.0,0.004540313378935901
3507.0,0.004540313378935901
3506.0,0.0044964297349936455
3505.0,0.004452550524862486
3504.0,0.004408675747646695
3503.0,0.004452550524862486
3502.0,0.004452550524862486
3501.0,0.0044964297349936455
3500.0,0.0044964297349936455
3499.0,0.0044964297349936455
3498.0,0.0044964297349936455
3497.0,0.00458420145758498
3496.0,0.004671990922590297
3495.0,0.004715892310740433
3494.0,0.004628093971837721
3493.0,0.004540313378935901
3492.0,0.0044964297349936455
3491.0,0.004540313378935901
3490.0,0.004628093971837721
3489.0,0.004715892310740433
3488.0,0.004759798137184523
3487.0,0.004803708402820517
3486.0,0.004803708402820517
3485.0,0.00484762310854614
3484.0,0.00484762310854614
3483.0,0.004803708402820517
3482.0,0.004759798137184523
3481.0,0.004759798137184523
3480.0,0.004803708402820517
3479.0,0.00484762310854614
3478.0,0.00489154225525934
3477.0,0.00489154225525934
3476.0,0.00484762310854614
3475.0,0.004803708402820517
3474.0,0.004715892310740433
3473.0,0.004671990922590297
3472.0,0.004628093971837721
3471.0,0.004628093971837721
3470.0,0.004628093971837721
3469.0,0.004628093971837721
3468.0,0.004671990922590297
3467.0,0.004715892310740433
3466.0,0.004671990922590297
3465.0,0.004671990922590297
3464.0,0.004628093971837721
3463.0,0.004628093971837721
3462.0,0.004671990922590297
3461.0,0.004715892310740433
3460.0,0.004759798137184523
3459.0,0.004803708402820517
3458.0,0.004803708402820517
3457.0,0.004759798137184523
3456.0,0.004715892310740433
3455.0,0.004715892310740433
3454.0,0.004715892310740433
3453.0,0.004803708402820517
3452.0,0.00489154225525934
3451.0,0.005023326350308999
3450.0,0.005111204635089406
3449.0,0.005111204635089406
3448.0,0.005067263269958211
3447.0,0.004935465843858511
3446.0,0.004759798137184523
3445.0,0.004671990922590297
3444.0,0.004671990922590297
3443.0,0.004715892310740433
3442.0,0.00484762310854614
3441.0,0.00489154225525934
3440.0,0.004935465843858511
3439.0,0.00489154225525934
3438.0,0.00484762310854614
3437.0,0.004803708402820517
3436.0,0.004715892310740433
3435.0,0.004671990922590297
3434.0,0.004671990922590297
3433.0,0.004715892310740433
3432.0,0.004715892310740433
3431.0,0.004715892310740433
3430.0,0.004715892310740433
3429.0,0.004759798137184523
3428.0,0.00489154225525934
3427.0,0.004979393875242044
3426.0,0.005067263269958211
3425.0,0.005067263269958211
3424.0,0.005023326350308999
3423.0,0.004979393875242044
3422.0,0.00484762310854614
3421.0,0.004715892310740433
3420.0,0.004628093971837721
3419.0,0.00458420145758498
3418.0,0.004628093971837721
3417.0,0.004671990922590297
3416.0,0.004759798137184523
3415.0,0.004803708402820517
3414.0,0.00484762310854614
3413.0,0.00489154225525934
3412.0,0.00489154225525934
3411.0,0.004803708402820517
3410.0,0.004671990922590297
3409.0,0.004540313378935901
3408.0,0.004540313378935901
3407.0,0.004671990922590297
3406.0,0.004803708402820517
3405.0,0.00484762310854614
3404.0,0.004803708402820517
3403.0,0.004715892310740433
3402.0,0.004715892310740433
3401.0,0.004759798137184523
3400.0,0.004803708402820517
3399.0,0.004759798137184523
3398.0,0.004671990922590297
3397.0,0.004628093971837721
3396.0,0.004628093971837721
3395.0,0.004671990922590297
3394.0,0.004715892310740433
3393.0,0.004759798137184523
3392.0,0.004803708402820517
3391.0,0.00484762310854614
3390.0,0.004803708402820517
3389.0,0.004759798137184523
3388.0,0.004759798137184523
3387.0,0.004803708402820517
3386.0,0.00489154225525934
3385.0,0.004935465843858511
3384.0,0.004935465843858511
3383.0,0.004935465843858511
3382.0,0.004979393875242044
3381.0,0.005023326350308999
3380.0,0.004979393875242044
3379.0,0.00489154225525934
3378.0,0.004759798137184523
3377.0,0.004671990922590297
3376.0,0.004628093971837721
3375.0,0.004671990922590297
3374.0,0.004715892310740433
3373.0,0.004759798137184523
3372.0,0.004803708402820517
3371.0,0.00484762310854614
3370.0,0.00489154225525934
3369.0,0.004935465843858511
3368.0,0.004979393875242044
3367.0,0.004979393875242044
3366.0,0.004935465843858511
3365.0,0.00484762310854614
3364.0,0.004715892310740433
3363.0,0.004628093971837721
3362.0,0.004628093971837721
3361.0,0.004628093971837721
3360.0,0.004671990922590297
3359.0,0.004671990922590297
3358.0,0.004715892310740433
3357.0,0.004671990922590297
3356.0,0.004628093971837721
3355.0,0.00458420145758498
3354.0,0.004540313378935901
3353.0,0.00458420145758498
3352.0,0.004671990922590297
3351.0,0.004759798137184523
3350.0,0.00484762310854614
3349.0,0.00484762310854614
3348.0,0.00484762310854614
3347.0,0.004759798137184523
3346.0,0.004671990922590297
3345.0,0.00458420145758498
3344.0,0.004540313378935901
3343.0,0.004452550524862486
3342.0,0.004408675747646695
3341.0,0.0043648054024501
3340.0,0.004320939488377862
3339.0,0.0043648054024501
3338.0,0.004452550524862486
3337.0,0.004540313378935901
3336.0,0.004540313378935901
3335.0,0.004452550524862486
3334.0,0.0043648054024501
3333.0,0.004320939488377862
3332.0,0.004408675747646695
3331.0,0.004452550524862486
3330.0,0.0044964297349936455
3329.0,0.004452550524862486
3328.0,0.004408675747646695
3327.0,0.0043648054024501
3326.0,0.0043648054024501
3325.0,0.0043648054024501
3324.0,0.0043648054024501
3323.0,0.004320939488377862
3322.0,0.004233220950025984
3321.0,0.004189368323957332
3320.0,0.004145520125434121
3319.0,0.004101676353562844
3318.0,0.004101676353562844
3317.0,0.004145520125434121
3316.0,0.004189368323957332
3315.0,0.004277078004534696
3314.0,0.004408675747646695
3313.0,0.0044964297349936455
3312.0,0.004540313378935901
3311.0,0.004540313378935901
3310.0,0.004540313378935901
3309.0,0.004540313378935901
3308.0,0.0044964297349936455
3307.0,0.004408675747646695
3306.0,0.0043648054024501
3305.0,0.0043648054024501
3304.0,0.004320939488377862
3303.0,0.004277078004534696
3302.0,0.004277078004534696
3301.0,0.004233220950025984
3300.0,0.004189368323957332
3299.0,0.004145520125434121
3298.0,0.004101676353562844
3297.0,0.004145520125434121
3296.0,0.004189368323957332
3295.0,0.004233220950025984
3294.0,0.004277078004534696
3293.0,0.004277078004534696
3292.0,0.004189368323957332
3291.0,0.0040578370074493275
3290.0,0.003926345514724705
3289.0,0.0038825238627120395
3288.0,0.003926345514724705
3287.0,0.003970171588923321
3286.0,0.0040578370074493275
3285.0,0.004101676353562844
3284.0,0.004145520125434121
3283.0,0.004233220950025984
3282.0,0.004320939488377862
3281.0,0.0043648054024501
3280.0,0.004320939488377862
3279.0,0.004189368323957332
3278.0,0.0040578370074493275
3277.0,0.003926345514724705
3276.0,0.003794893821675638
3275.0,0.0037510854308679953
3274.0,0.003794893821675638
3273.0,0.0038825238627120395
3272.0,0.003970171588923321
3271.0,0.0040578370074493275
3270.0,0.004101676353562844
3269.0,0.004101676353562844
3268.0,0.004101676353562844
3267.0,0.004101676353562844
3266.0,0.0040578370074493275
3265.0,0.00401400208620073
3264.0,0.003926345514724705
3263.0,0.0038387066319929275
3262.0,0.003794893821675638
3261.0,0.0037510854308679953
3260.0,0.003707281458678491
3259.0,0.003619686766589858
3258.0,0.0035758960449088217
3257.0,0.0035758960449088217
3256.0,0.0035758960449088217
3255.0,0.0035321097382827737
3254.0,0.003488327845821315
3253.0,0.0034445503666347133
3252.0,0.0034445503666347133
3251.0,0.0034007772998332353
3250.0,0.0033570086445275926
3249.0,0.0033132443998284966
3248.0,0.0033132443998284966
3247.0,0.0033570086445275926
3246.0,0.003488327845821315
3245.0,0.0035758960449088217
3244.0,0.0035758960449088217
3243.0,0.0035321097382827737
3242.0,0.0034445503666347133
3241.0,0.0034007772998332353
3240.0,0.0033570086445275926
3239.0,0.0033570086445275926
3238.0,0.0033570086445275926
3237.0,0.0034007772998332353
3236.0,0.0034007772998332353
3235.0,0.0034007772998332353
3234.0,0.0033570086445275926
3233.0,0.0033132443998284966
3232.0,0.0032257291386954545
3231.0,0.0031819781204844855
3230.0,0.0030944893043338695
3229.0,0.0030070181092942683
3228.0,0.0029632891174733444
3227.0,0.0029195645282691363
3226.0,0.0029195645282691363
3225.0,0.0029632891174733444
3224.0,0.0030070181092942683
3223.0,0.0030944893043338695
3222.0,0.0031819781204844855
3221.0,0.0032257291386954545
3220.0,0.0031819781204844855
3219.0,0.0030944893043338695
3218.0,0.0030070181092942683
3217.0,0.0030070181092942683
3216.0,0.0030070181092942683
3215.0,0.003050751504618754
3214.0,0.0030944893043338695
3213.0,0.0031382315093266833
3212.0,0.0031382315093266833
3211.0,0.0030944893043338695
3210.0,0.0030070181092942683
3209.0,0.0028758443407954637
3208.0,0.0027447101798967477
3207.0,0.0026573093983774942
3206.0,0.0026573093983774942
3205.0,0.0027447101798967477
3204.0,0.0028321285541661467
3203.0,0.0028758443407954637
3202.0,0.0028321285541661467
3201.0,0.0027884171674950053
3200.0,0.0027447101798967477
3199.0,0.0026573093983774942
3198.0,0.0026573093983774942
3197.0,0.0027447101798967477
3196.0,0.0028321285541661467
3195.0,0.0028758443407954637
3194.0,0.0029195645282691363
3193.0,0.0029195645282691363
3192.0,0.0027884171674950053
3191.0,0.002701007590486082
3190.0,0.002613615602686581
3189.0,0.002613615602686581
3188.0,0.0026573093983774942
3187.0,0.0027447101798967477
3186.0,0.0027884171674950053
3185.0,0.0027884171674950053
3184.0,0.002701007590486082
3183.0,0.002613615602686581
3182.0,0.002569926202528716
3181.0,0.002569926202528716
3180.0,0.002613615602686581
3179.0,0.002569926202528716
3178.0,0.002569926202528716
3177.0,0.0025262411970197185
3176.0,0.002569926202528716
3175.0,0.002613615602686581
3174.0,0.002569926202528716
3173.0,0.0025262411970197185
3172.0,0.0024388843664115978
3171.0,0.002351545103793873
3170.0,0.0022642234021015284
3169.0,0.0021769192542746563
3168.0,0.002089632653256679
3167.0,0.002089632653256679
3166.0,0.0021332737608552588
3165.0,0.0021769192542746563
3164.0,0.0022205691343961664
3163.0,0.0022642234021015284
3162.0,0.002351545103793873
3161.0,0.002395212539545666
3160.0,0.002395212539545666
3159.0,0.002351545103793873
3158.0,0.002351545103793873
3157.0,0.0023078820582733695
3156.0,0.0022642234021015284
3155.0,0.0021769192542746563
3154.0,0.0020459959305969555
3153.0,0.001915112063444413
3152.0,0.0018278780605593958
3151.0,0.0018278780605593958
3150.0,0.0018714928717336043
3149.0,0.0018714928717336043
3148.0,0.001915112063444413
3147.0,0.001915112063444413
3146.0,0.0019587356365717845
3145.0,0.0020023635919956817
3144.0,0.0020023635919956817
3143.0,0.0018714928717336043
3142.0,0.0017406615763013722
3141.0,0.001609869681952425
3140.0,0.0015662811355310335
3139.0,0.0015662811355310335
3138.0,0.001609869681952425
3137.0,0.0016534626036355249
3136.0,0.0016534626036355249
3135.0,0.0016534626036355249
3134.0,0.0016970599014589638
3133.0,0.0017406615763013722
3132.0,0.0017842676290416026
3131.0,0.0017406615763013722
3130.0,0.0016534626036355249
3129.0,0.001609869681952425
3128.0,0.001609869681952425
3127.0,0.0016534626036355249
3126.0,0.0016970599014589638
3125.0,0.0017406615763013722
3124.0,0.0016970599014589638
3123.0,0.0016534626036355249
3122.0,0.001609869681952425
3121.0,0.0015662811355310335
3120.0,0.001609869681952425
3119.0,0.0016534626036355249
3118.0,0.0016534626036355249
3117.0,0.0016534626036355249
3116.0,0.001609869681952425
3115.0,0.0015226969634936083
3114.0,0.0014791171649619628
3113.0,0.0013919706849057079
3112.0,0.001348404001626502
3111.0,0.001304841688344327
3110.0,0.001348404001626502
3109.0,0.0014355417390583547
3108.0,0.0014791171649619628
3107.0,0.0015662811355310335
3106.0,0.0016534626036355249
3105.0,0.0016970599014589638
3104.0,0.0016970599014589638
3103.0,0.0016534626036355249
3102.0,0.0015662811355310335
3101.0,0.0014791171649619628
3100.0,0.0014791171649619628
3099.0,0.0015226969634936083
3098.0,0.0015662811355310335
3097.0,0.001609869681952425
3096.0,0.001609869681952425
3095.0,0.0016534626036355249
3094.0,0.0016970599014589638
3093.0,0.0017842676290416026
3092.0,0.0018278780605593958
3091.0,0.0018278780605593958
3090.0,0.0018278780605593958
3089.0,0.0018714928717336043
3088.0,0.0018714928717336043
3087.0,0.0018278780605593958
3086.0,0.0017406615763013722
3085.0,0.0016534626036355249
3084.0,0.001609869681952425
3083.0,0.0015662811355310335
3082.0,0.0015662811355310335
3081.0,0.0015662811355310335
3080.0,0.0015662811355310335
3079.0,0.001609869681952425
3078.0,0.001609869681952425
3077.0,0.0016534626036355249
3076.0,0.0016534626036355249
3075.0,0.0016970599014589638
3074.0,0.0016970599014589638
3073.0,0.0016534626036355249
3072.0,0.001609869681952425
3071.0,0.0015662811355310335
3070.0,0.0014791171649619628
3069.0,0.0014791171649619628
3068.0,0.0014791171649619628
3067.0,0.0015226969634936083
3066.0,0.0015662811355310335
3065.0,0.0015662811355310335
3064.0,0.0015662811355310335
3063.0,0.001609869681952425
3062.0,0.001609869681952425
3061.0,0.0015662811355310335
3060.0,0.0015662811355310335
3059.0,0.0014791171649619628
3058.0,0.0014355417390583547
3057.0,0.001348404001626502
3056.0,0.001348404001626502
3055.0,0.0013919706849057079
3054.0,0.0014355417390583547
3053.0,0.0014791171649619628
3052.0,0.0014791171649619628
3051.0,0.0014355417390583547
3050.0,0.0014355417390583547
3049.0,0.0014355417390583547
3048.0,0.0014791171649619628
3047.0,0.0015226969634936083
3046.0,0.0015226969634936083
3045.0,0.0015226969634936083
3044.0,0.0014791171649619628
3043.0,0.0014791171649619628
3042.0,0.0015226969634936083
3041.0,0.0015662811355310335
3040.0,0.0015662811355310335
3039.0,0.001609869681952425
3038.0,0.001609869681952425
3037.0,0.0016534626036355249
3036.0,0.0016534626036355249
3035.0,0.0016534626036355249
3034.0,0.001609869681952425
3033.0,0.001609869681952425
3032.0,0.001609869681952425
3031.0,0.0016534626036355249
3030.0,0.0016534626036355249
3029.0,0.001609869681952425
3028.0,0.0015662811355310335
3027.0,0.0014791171649619628
3026.0,0.0013919706849057079
3025.0,0.001304841688344327
3024.0,0.0012612837441823288
3023.0,0.0012612837441823288
3022.0,0.001304841688344327
3021.0,0.001304841688344327
3020.0,0.001304841688344327
3019.0,0.0012612837441823288
3018.0,0.0012177301682640973
3017.0,0.0011741809597138886
3016.0,0.0011741809597138886
3015.0,0.0011306361176557367
3014.0,0.0010870956412141197
3013.0,0.0010870956412141197
3012.0,0.0011306361176557367
3011.0,0.0011306361176557367
3010.0,0.0010870956412141197
3009.0,0.0010435595295137379
3008.0,0.0010435595295137379
3007.0,0.0010435595295137379
3006.0,0.0010435595295137379
3005.0,0.0010435595295137379
3004.0,0.0010435595295137379
3003.0,0.0010000277816797354
3002.0,0.0010000277816797354
3001.0,0.0010000277816797354
3000.0,0.0009129773741116676
2999.0,0.0008259444115150671
2998.0,0.0007824344698965646
2997.0,0.0007389288868995258
2996.0,0.0007824344698965646
2995.0,0.0008259444115150671
2994.0,0.0009129773741116676
2993.0,0.0010000277816797354
2992.0,0.0010435595295137379
2991.0,0.0010870956412141197
2990.0,0.0011741809597138886
2989.0,0.001304841688344327
2988.0,0.0013919706849057079
2987.0,0.0014791171649619628
2986.0,0.0015226969634936083
2985.0,0.001609869681952425
2984.0,0.0016970599014589638
2983.0,0.0017406615763013722
2982.0,0.0018278780605593958
2981.0,0.001915112063444413
2980.0,0.0020023635919956817
2979.0,0.0021769192542746563
2978.0,0.002351545103793873
2977.0,0.002482560585275184
2976.0,0.0026573093983774942
2975.0,0.0028321285541661467
2974.0,0.003050751504618754
2973.0,0.0033570086445275926
2972.0,0.0036634819042162814
2971.0,0.0040578370074493275
2970.0,0.0044964297349936455
2969.0,0.004935465843858511
2968.0,0.00541891874010525
2967.0,0.005858888873877532
2966.0,0.006343371384537999
2965.0,0.006784279525863024
2964.0,0.007225635744644521
2963.0,0.00762324020119709
2962.0,0.008065450281052211
2961.0,0.008596697419959609
2960.0,0.009128595198514056
2959.0,0.009705553871561357
2958.0,0.01023881228122181
2957.0,0.010683695010048622
2956.0,0.011129033935354915
2955.0,0.011530229790124524
2954.0,0.0119764380713403
2953.0,0.012467797270160563
2952.0,0.013004460275618523
2951.0,0.01372104409400876
2950.0,0.01452861671041239
2949.0,0.015517693597737248
2948.0,0.016599261819461697
2947.0,0.017864505196230507
2946.0,0.01940584422377989
2945.0,0.0211806132671577
2944.0,0.023237476732539397
2943.0,0.02558042614771394
2942.0,0.02812138297373412
2941.0,0.030910397045078586
2940.0,0.03399914237121604
2939.0,0.037346595106788616
2938.0,0.040958607678906356
2937.0,0.044937930324967956
2936.0,0.049245818406496555
2935.0,0.05394093961487645
2934.0,0.05908526241971446
2933.0,0.06469430971007495
2932.0,0.07073438174693436
2931.0,0.0772226580712021
2930.0,0.08428366205400617
2929.0,0.0919977988274463
2928.0,0.1005078038618683
2927.0,0.11002636159600376
2926.0,0.1207320431753871
2925.0,0.13288622016802298
2924.0,0.1466060225493342
2923.0,0.1619068615544017
2922.0,0.17874856845405884
2921.0,0.1969527895088714
2920.0,0.2160964207272651
2919.0,0.23522628308895954
2918.0,0.2527436025578558
2917.0,0.26664221207441474
2916.0,0.2751509123706144
2915.0,0.2773660774661879
2914.0,0.2735173032151703
2913.0,0.264880365918128
2912.0,0.2532101678473877
2911.0,0.24025663240227502
2910.0,0.22723835285596783
2909.0,0.21481257997063818
2908.0,0.2036338450224786
2907.0,0.19368433019188647
2906.0,0.18508681872492616
2905.0,0.1775703762206431
2904.0,0.1711468403233598
2903.0,0.16551571466519466
2902.0,0.16058480731610647
2901.0,0.15614457737683884
2900.0,0.15205736115477642
2899.0,0.1482525808667361
2898.0,0.14466259553045968
2897.0,0.14122226269455074
2896.0,0.13792828062000573
2895.0,0.134659094375416
2894.0,0.13135556160517425
2893.0,0.12796033202671375
2892.0,0.12441789567211425
2891.0,0.12084675381575383
2890.0,0.11713408027837091
2889.0,0.11345287660889425
2888.0,0.10969078310005154
2887.0,0.10601643278815298
2886.0,0.10231793820358015
2885.0,0.09854167860388774
2884.0,0.09474395125154866
2883.0,0.0908185240221473
2882.0,0.08692825969074924
2881.0,0.0830725338870073
2880.0,0.07919861817434581
2879.0,0.07530729697981409
2878.0,0.07145053299833615
2877.0,0.06777998612288094
2876.0,0.06439198148213077
2875.0,0.061380218497318895
2874.0,0.058737090681050264
2873.0,0.05635711724787096
2872.0,0.054186873412661596
2871.0,0.05232126006306337
2870.0,0.05075640943173498
2869.0,0.04958646063061889
2868.0,0.04885683989244738
2867.0,0.048565334467987054
2866.0,0.048808242065293994
2865.0,0.04963514562387683
2864.0,0.05119595406718891
2863.0,0.05354773498692689
2862.0,0.05680236993107379
2861.0,0.06103020277710969
2860.0,0.06646209802829528
2859.0,0.07329750581735506
2858.0,0.08170748724464438
2857.0,0.09205147838772776
2856.0,0.1047432468551055
2855.0,0.12033079436794658
2854.0,0.13948232253825377
2853.0,0.16247469055039865
2852.0,0.18909571933129965
2851.0,0.21731243176503368
2850.0,0.24336389175415185
2849.0,0.2623303726433581
2848.0,0.2701874928390644
2847.0,0.2660808489876092
2846.0,0.252432837262375
2845.0,0.23321548450214102
2844.0,0.21204387671606817
2843.0,0.19145144875959463
2842.0,0.17263072694617465
2841.0,0.15614457737683884
2840.0,0.14200450443907608
2839.0,0.12994741830645506
2838.0,0.11970100857424737
2837.0,0.11109074073646874
2836.0,0.1038045895457893
2835.0,0.09750757884139638
2834.0,0.0919977988274463
2833.0,0.08719360733870762
2832.0,0.08296737783760655
2831.0,0.07925073872429178
2830.0,0.07592757008963713
2829.0,0.0729891310243489
2828.0,0.07032568205141221
2827.0,0.06788152797087754
2826.0,0.06560255921901192
2825.0,0.06353652599525317
2824.0,0.061680456657844385
2823.0,0.06003170944866376
2822.0,0.05848856736559682
2821.0,0.057049929922901255
2820.0,0.05561604235915585
2819.0,0.05428528594013993
2818.0,0.05305672930217464
2817.0,0.05192951848105887
2816.0,0.05085404758005607
2815.0,0.04987865248862655
2814.0,0.04885683989244738
2813.0,0.047885915093007325
2812.0,0.0469171560879138
2811.0,0.04609540658654021
2810.0,0.045323413081356456
2809.0,0.04460091336073302
2808.0,0.04383156952463674
2807.0,0.04315950984076644
2806.0,0.04248848854552012
2805.0,0.041914151478914974
2804.0,0.041340572947066834
2803.0,0.04081545726880842
2802.0,0.040243327009005014
2801.0,0.03967194946985697
2800.0,0.03914884628031379
2799.0,0.03857890593355173
2798.0,0.03800971255993524
2797.0,0.03744126420403626
2796.0,0.03692083935817303
2795.0,0.03644826642590382
2794.0,0.03602339000339416
2793.0,0.03559892883726867
2792.0,0.03517488211661135
2791.0,0.03470420418834386
2790.0,0.03428102975577918
2789.0,0.03385826726096752
2788.0,0.03343591590268957
2787.0,0.0329671178412978
2786.0,0.03249882527715853
2785.0,0.03207779326948268
2784.0,0.03161045815293173
2783.0,0.031236951802751545
2782.0,0.03081714076773867
2781.0,0.030444315779156517
2780.0,0.030118356253500123
2779.0,0.029746130405213123
2778.0,0.02942069428514915
2777.0,0.02904906565457588
2776.0,0.028770552723758724
2775.0,0.028445846553939003
2774.0,0.02812138297373412
2773.0,0.027843464140506313
2772.0,0.027565723042634938
2771.0,0.02738066094037661
2770.0,0.027149444152769986
2769.0,0.02691835039863255
2768.0,0.026687379547098322
2767.0,0.026410376572743033
2766.0,0.026087429580295085
2765.0,0.025856900097785074
2764.0,0.025672564576383117
2763.0,0.025488307262671706
2762.0,0.025350165561278004
2761.0,0.02516604495145991
2760.0,0.02498200236711723
2759.0,0.024706084643793647
2758.0,0.024522236834125355
2757.0,0.024292536462819925
2756.0,0.024108863598207186
2755.0,0.023879381700184332
2754.0,0.023695883447997224
2753.0,0.023604163388120325
2752.0,0.023466619608062178
2751.0,0.023374947949272418
2750.0,0.023283295636617574
2749.0,0.023191662661933732
2748.0,0.023100049017062307
2747.0,0.02300845469384938
2746.0,0.02291687968414724
2745.0,0.02282532397981263
2744.0,0.022688026603074007
2743.0,0.02255077261765881
2742.0,0.022413561996148967
2741.0,0.022322112326006227
2740.0,0.022322112326006227
2739.0,0.022322112326006227
2738.0,0.022367834754000393
2737.0,0.022413561996148967
2736.0,0.022367834754000393
2735.0,0.022230681908425698
2734.0,0.02204787879853809
2733.0,0.021910826943857264
2732.0,0.021773818325474092
2731.0,0.021636852916117055
2730.0,0.021499930688540836
2729.0,0.021317434843055594
2728.0,0.021089422824428272
2727.0,0.020907099361673565
2726.0,0.02081596632558158
2725.0,0.020770406977844713
2724.0,0.020724852408976924
2723.0,0.02058821736556471
2722.0,0.020497151212598652
2721.0,0.02036058777709271
2720.0,0.02026956933771462
2719.0,0.020178569969774962
2718.0,0.020087589665283012
2717.0,0.019996628416253603
2716.0,0.01995115493504329
2715.0,0.019860222254245663
2714.0,0.019769308608968306
2713.0,0.019678413991243593
2712.0,0.01954210772389997
2711.0,0.019451260640229506
2710.0,0.019360432556262852
2709.0,0.019269623464054586
2708.0,0.019178833355664393
2707.0,0.0190880622231564
2706.0,0.01899731005860028
2705.0,0.018951941086827073
2704.0,0.018906576854070378
2703.0,0.018770512579999288
2702.0,0.018679826740892747
2701.0,0.018543833477873584
2700.0,0.01845319495476394
2699.0,0.018362575344230914
2698.0,0.018271974638383703
2697.0,0.018271974638383703
2696.0,0.018181392829336396
2695.0,0.01809082990920774
2694.0,0.017955020928509757
2693.0,0.017864505196230507
2692.0,0.017864505196230507
2691.0,0.017864505196230507
2690.0,0.017864505196230507
2689.0,0.01781925440359733
2688.0,0.017774008325325275
2687.0,0.01768353030793479
2686.0,0.017638298366853045
2685.0,0.017547848615010242
2684.0,0.017457417697056554
2683.0,0.017412209298337533
2682.0,0.017412209298337533
2681.0,0.017412209298337533
2680.0,0.017457417697056554
2679.0,0.017457417697056554
2678.0,0.017502630802287644
2677.0,0.017547848615010242
2676.0,0.017638298366853045
2675.0,0.017638298366853045
2674.0,0.017638298366853045
2673.0,0.017638298366853045
2672.0,0.017638298366853045
2671.0,0.017638298366853045
2670.0,0.017638298366853045
2669.0,0.01768353030793479
2668.0,0.01768353030793479
2667.0,0.017728766960431575
2666.0,0.017774008325325275
2665.0,0.017774008325325275
2664.0,0.01781925440359733
2663.0,0.01781925440359733
2662.0,0.01781925440359733
2661.0,0.01781925440359733
2660.0,0.017909760704207134
2659.0,0.017909760704207134
2658.0,0.017864505196230507
2657.0,0.017728766960431575
2656.0,0.017638298366853045
2655.0,0.017547848615010242
2654.0,0.017457417697056554
2653.0,0.017412209298337533
2652.0,0.017367005605150476
2651.0,0.017367005605150476
2650.0,0.017321806616515723
2649.0,0.017321806616515723
2648.0,0.017321806616515723
2647.0,0.017321806616515723
2646.0,0.01727661233145472
2645.0,0.017231422748988034
2644.0,0.017231422748988034
2643.0,0.01727661233145472
2642.0,0.01727661233145472
2641.0,0.017321806616515723
2640.0,0.017367005605150476
2639.0,0.017457417697056554
2638.0,0.017502630802287644
2637.0,0.017547848615010242
2636.0,0.017502630802287644
2635.0,0.017412209298337533
2634.0,0.017367005605150476
2633.0,0.01727661233145472
2632.0,0.017186237868137555
2631.0,0.017050711425501408
2630.0,0.017005545341335804
2629.0,0.016915227262211507
2628.0,0.016870075265299933
2627.0,0.016734647433454652
2626.0,0.016554142658660398
2625.0,0.01646391839700767
2624.0,0.016418813294209356
2623.0,0.016373712875465518
2622.0,0.01632861713980338
2621.0,0.01628352608625061
2620.0,0.016193358021584725
2619.0,0.016103208673694303
2618.0,0.016013078034810446
2617.0,0.015877917138889863
2616.0,0.015742798294583915
2615.0,0.015562705203923999
2614.0,0.01547268665620738
2613.0,0.015427684378367834
2612.0,0.01538268676325183
2611.0,0.015337693809893471
2610.0,0.015247721884586563
2609.0,0.015157768594724175
2608.0,0.015067833932588037
2607.0,0.015022873584506602
2606.0,0.014977917890464765
2605.0,0.014932966849499074
2604.0,0.014888020460646079
2603.0,0.014843078722943437
2602.0,0.014798141635428141
2601.0,0.014753209197138295
2600.0,0.014753209197138295
2599.0,0.014708281407112
2598.0,0.014663358264387139
2597.0,0.014573525916998342
2596.0,0.0144837121472845
2595.0,0.014438812226654996
2594.0,0.014438812226654996
2593.0,0.014438812226654996
2592.0,0.014393916947563534
2591.0,0.014349026309051105
2590.0,0.014304140310157809
2589.0,0.014304140310157809
2588.0,0.014259258949925524
2587.0,0.014169510141607944
2586.0,0.014124642691606404
2585.0,0.014079779876432497
2584.0,0.01403492169512921
2583.0,0.013990068146738865
2582.0,0.013945219230304673
2581.0,0.013900374944870508
2580.0,0.01385553528947936
2579.0,0.01381070026317599
2578.0,0.01372104409400876
2577.0,0.013676222949234651
2576.0,0.013676222949234651
2575.0,0.013676222949234651
2574.0,0.013586594534531482
2573.0,0.013496984613259544
2572.0,0.013362604389846044
2571.0,0.013273040668781544
2570.0,0.01322826573375524
2569.0,0.013273040668781544
2568.0,0.013317820220494436
2567.0,0.013317820220494436
2566.0,0.013362604389846044
2565.0,0.013317820220494436
2564.0,0.01322826573375524
2563.0,0.013138729709955221
2562.0,0.013093968619278806
2561.0,0.013049212141483357
2560.0,0.013049212141483357
2559.0,0.013004460275618523
2558.0,0.012959713020733288
2557.0,0.012914970375878188
2556.0,0.012870232340102872
2555.0,0.012870232340102872
2554.0,0.012825498912458322
2553.0,0.012825498912458322
2552.0,0.012825498912458322
2551.0,0.012825498912458322
2550.0,0.012780770091995297
2549.0,0.012736045877764557
2548.0,0.01260190086298274
2547.0,0.012467797270160563
2546.0,0.012378417874516323
2545.0,0.012333735073725371
2544.0,0.012333735073725371
2543.0,0.012333735073725371
2542.0,0.012333735073725371
2541.0,0.012289056869694281
2540.0,0.012244383261476699
2539.0,0.012199714248127602
2538.0,0.01215504982870197
2537.0,0.012110390002254778
2536.0,0.012065734767841452
2535.0,0.012021084124518078
2534.0,0.0119764380713403
2533.0,0.011931796607364653
2532.0,0.011931796607364653
2531.0,0.011931796607364653
2530.0,0.011931796607364653
2529.0,0.011931796607364653
2528.0,0.011931796607364653
2527.0,0.011931796607364653
2526.0,0.0119764380713403
2525.0,0.0119764380713403
2524.0,0.011931796607364653
2523.0,0.011931796607364653
2522.0,0.011887159731648111
2521.0,0.011842527443247208
2520.0,0.011753276624621556
2519.0,0.011664044143949504
2518.0,0.011619434777991433
2517.0,0.011619434777991433
2516.0,0.011664044143949504
2515.0,0.011708658092512314
2514.0,0.011708658092512314
2513.0,0.011664044143949504
2512.0,0.011664044143949504
2511.0,0.011619434777991433
2510.0,0.011574829993696856
2509.0,0.011530229790124524
2508.0,0.011441043121384498
2507.0,0.011351874764248926
2506.0,0.011307297450183107
2505.0,0.011307297450183107
2504.0,0.011351874764248926
2503.0,0.011396456654336085
2502.0,0.011441043121384498
2501.0,0.011441043121384498
2500.0,0.011441043121384498
2499.0,0.011351874764248926
2498.0,0.011262724711199823
2497.0,0.01117359295472431
2496.0,0.01117359295472431
2495.0,0.011218156546359825
2494.0,0.011262724711199823
2493.0,0.011307297450183107
2492.0,0.011262724711199823
2491.0,0.011262724711199823
2490.0,0.011307297450183107
2489.0,0.011307297450183107
2488.0,0.011262724711199823
2487.0,0.011218156546359825
2486.0,0.01117359295472431
2485.0,0.011084479487313281
2484.0,0.011039929609661936
2483.0,0.011039929609661936
2482.0,0.011039929609661936
2481.0,0.011039929609661936
2480.0,0.011039929609661936
2479.0,0.010995384301463185
2478.0,0.010950843561779777
2477.0,0.010906307389674463
2476.0,0.010950843561779777
2475.0,0.010995384301463185
2474.0,0.011039929609661936
2473.0,0.011084479487313281
2472.0,0.011084479487313281
2471.0,0.010995384301463185
2470.0,0.010906307389674463
2469.0,0.01086177578421088
2468.0,0.01077272626946324
2467.0,0.01077272626946324
2466.0,0.01077272626946324
2465.0,0.010728208358306901
2464.0,0.010728208358306901
2463.0,0.010728208358306901
2462.0,0.010728208358306901
2461.0,0.010728208358306901
2460.0,0.010728208358306901
2459.0,0.010683695010048622
2458.0,0.010594681998483901
2457.0,0.010550182333308289
2456.0,0.010550182333308289
2455.0,0.010550182333308289
2454.0,0.010550182333308289
2453.0,0.010594681998483901
2452.0,0.010594681998483901
2451.0,0.010594681998483901
2450.0,0.010594681998483901
2449.0,0.010639186223752484
2448.0,0.010683695010048622
2447.0,0.010728208358306901
2446.0,0.010683695010048622
2445.0,0.010594681998483901
2444.0,0.01046119667949763
2443.0,0.010416710688994968
2442.0,0.01037222925484893
2441.0,0.01037222925484893
2440.0,0.010327752376126709
2439.0,0.010283280051895272
2438.0,0.01023881228122181
2437.0,0.010283280051895272
2436.0,0.010327752376126709
2435.0,0.010416710688994968
2434.0,0.010416710688994968
2433.0,0.010416710688994968
2432.0,0.01037222925484893
2431.0,0.010327752376126709
2430.0,0.01023881228122181
2429.0,0.01023881228122181
2428.0,0.01023881228122181
2427.0,0.010283280051895272
2426.0,0.010327752376126709
2425.0,0.01037222925484893
2424.0,0.01037222925484893
2423.0,0.010416710688994968
2422.0,0.01046119667949763
2421.0,0.01046119667949763
2420.0,0.01046119667949763
2419.0,0.010505687227290839
2418.0,0.010505687227290839
2417.0,0.010505687227290839
2416.0,0.01046119667949763
2415.0,0.010416710688994968
2414.0,0.010416710688994968
2413.0,0.01046119667949763
2412.0,0.010505687227290839
2411.0,0.010505687227290839
2410.0,0.010416710688994968
2409.0,0.010283280051895272
2408.0,0.010194349063173958
2407.0,0.010105436281226954
2406.0,0.010105436281226954
2405.0,0.010105436281226954
2404.0,0.010105436281226954
2403.0,0.010105436281226954
2402.0,0.010105436281226954
2401.0,0.010149890396819572
2400.0,0.010194349063173958
2399.0,0.010194349063173958
2398.0,0.01023881228122181
2397.0,0.010194349063173958
2396.0,0.010194349063173958
2395.0,0.010194349063173958
2394.0,0.01023881228122181
2393.0,0.01023881228122181
2392.0,0.010194349063173958
2391.0,0.010105436281226954
2390.0,0.010060986715464404
2389.0,0.010149890396819572
2388.0,0.010327752376126709
2387.0,0.010550182333308289
2386.0,0.01086177578421088
2385.0,0.011084479487313281
2384.0,0.011262724711199823
2383.0,0.011307297450183107
2382.0,0.011262724711199823
2381.0,0.011129033935354915
2380.0,0.010950843561779777
2379.0,0.010728208358306901
2378.0,0.010550182333308289
2377.0,0.010550182333308289
2376.0,0.010817248744452446
2375.0,0.011262724711199823
2374.0,0.011842527443247208
2373.0,0.012333735073725371
2372.0,0.012691326268817527
2371.0,0.012914970375878188
2370.0,0.012914970375878188
2369.0,0.012691326268817527
2368.0,0.012333735073725371
2367.0,0.0119764380713403
2366.0,0.011708658092512314
2365.0,0.011530229790124524
2364.0,0.011396456654336085
2363.0,0.01117359295472431
2362.0,0.01077272626946324
2361.0,0.010105436281226954
2360.0,0.00966114521239847
2359.0,0.00974996707218323
2358.0,0.01037222925484893
2357.0,0.010950843561779777
2356.0,0.011129033935354915
2355.0,0.011218156546359825
2354.0,0.011307297450183107
2353.0,0.011351874764248926
2352.0,0.011396456654336085
2351.0,0.011441043121384498
2350.0,0.011530229790124524
2349.0,0.011485634166333858
2348.0,0.011307297450183107
2347.0,0.01117359295472431
2346.0,0.011441043121384498
2345.0,0.012065734767841452
2344.0,0.012512493866907004
2343.0,0.012423105273012602
2342.0,0.011931796607364653
2341.0,0.011351874764248926
2340.0,0.011084479487313281
2339.0,0.011307297450183107
2338.0,0.011708658092512314
2337.0,0.011931796607364653
2336.0,0.011753276624621556
2335.0,0.011441043121384498
2334.0,0.011129033935354915
2333.0,0.011039929609661936
2332.0,0.01117359295472431
2331.0,0.011485634166333858
2330.0,0.011931796607364653
2329.0,0.012333735073725371
2328.0,0.01264661126420652
2327.0,0.012870232340102872
2326.0,0.012959713020733288
2325.0,0.012870232340102872
2324.0,0.01264661126420652
2323.0,0.012333735073725371
2322.0,0.012065734767841452
2321.0,0.011931796607364653
2320.0,0.0119764380713403
2319.0,0.012199714248127602
2318.0,0.012512493866907004
2317.0,0.01260190086298274
2316.0,0.012467797270160563
2315.0,0.012199714248127602
2314.0,0.012021084124518078
2313.0,0.012065734767841452
2312.0,0.012199714248127602
2311.0,0.012333735073725371
2310.0,0.012378417874516323
2309.0,0.012378417874516323
2308.0,0.012244383261476699
2307.0,0.012065734767841452
2306.0,0.011842527443247208
2305.0,0.011619434777991433
2304.0,0.011530229790124524
2303.0,0.011574829993696856
2302.0,0.011664044143949504
2301.0,0.011708658092512314
2300.0,0.011664044143949504
2299.0,0.011574829993696856
2298.0,0.011574829993696856
2297.0,0.011574829993696856
2296.0,0.011574829993696856
2295.0,0.011485634166333858
2294.0,0.011351874764248926
2293.0,0.011129033935354915
2292.0,0.010950843561779777
2291.0,0.010728208358306901
2290.0,0.010594681998483901
2289.0,0.01046119667949763
2288.0,0.010416710688994968
2287.0,0.010327752376126709
2286.0,0.010283280051895272
2285.0,0.01023881228122181
2284.0,0.01023881228122181
2283.0,0.010194349063173958
2282.0,0.010194349063173958
2281.0,0.01023881228122181
2280.0,0.010283280051895272
2279.0,0.010283280051895272
2278.0,0.01023881228122181
2277.0,0.010194349063173958
2276.0,0.010194349063173958
2275.0,0.010149890396819572
2274.0,0.010105436281226954
2273.0,0.010060986715464404
2272.0,0.01001654169860089
2271.0,0.01001654169860089
2270.0,0.009972101229705377
2269.0,0.009927665307847056
2268.0,0.009838807101520963
2267.0,0.009794384815193347
2266.0,0.009705553871561357
2265.0,0.009705553871561357
2264.0,0.009705553871561357
2263.0,0.009705553871561357
2262.0,0.009705553871561357
2261.0,0.00966114521239847
2260.0,0.009616741093766423
2259.0,0.009572341514736404
2258.0,0.009572341514736404
2257.0,0.009572341514736404
2256.0,0.009572341514736404
2255.0,0.009527946474380489
2254.0,0.009527946474380489
2253.0,0.009527946474380489
2252.0,0.009527946474380489
2251.0,0.009527946474380489
2250.0,0.009527946474380489
2249.0,0.009527946474380489
2248.0,0.009527946474380489
2247.0,0.009483555971770974
2246.0,0.009483555971770974
2245.0,0.009483555971770974
2244.0,0.009483555971770974
2243.0,0.009527946474380489
2242.0,0.009527946474380489
2241.0,0.009527946474380489
2240.0,0.009483555971770974
2239.0,0.00939478857608056
2238.0,0.009350411681145587
2237.0,0.009261671492462709
2236.0,0.009217308196862062
2235.0,0.009217308196862062
2234.0,0.009217308196862062
2233.0,0.009217308196862062
2232.0,0.009217308196862062
2231.0,0.009217308196862062
2230.0,0.009261671492462709
2229.0,0.009217308196862062
2228.0,0.009128595198514056
2227.0,0.00908424549391551
2226.0,0.00908424549391551
2225.0,0.009128595198514056
2224.0,0.009217308196862062
2223.0,0.009261671492462709
2222.0,0.009261671492462709
2221.0,0.009261671492462709
2220.0,0.009261671492462709
2219.0,0.009261671492462709
2218.0,0.009217308196862062
2217.0,0.009128595198514056
2216.0,0.00908424549391551
2215.0,0.008995559669244813
2214.0,0.008951223547323472
2213.0,0.008951223547323472
2212.0,0.008951223547323472
2211.0,0.008951223547323472
2210.0,0.008995559669244813
2209.0,0.009039900317800775
2208.0,0.009039900317800775
2207.0,0.008995559669244813
2206.0,0.008995559669244813
2205.0,0.008995559669244813
2204.0,0.008995559669244813
2203.0,0.008951223547323472
2202.0,0.008951223547323472
2201.0,0.008995559669244813
2200.0,0.009039900317800775
2199.0,0.009039900317800775
2198.0,0.008995559669244813
2197.0,0.008951223547323472
2196.0,0.008906891951112605
2195.0,0.008906891951112605
2194.0,0.008906891951112605
2193.0,0.008951223547323472
2192.0,0.009039900317800775
2191.0,0.009128595198514056
2190.0,0.009172949432521227
2189.0,0.009217308196862062
2188.0,0.009172949432521227
2187.0,0.009172949432521227
2186.0,0.009172949432521227
2185.0,0.009128595198514056
2184.0,0.009128595198514056
2183.0,0.00908424549391551
2182.0,0.009039900317800775
2181.0,0.00908424549391551
2180.0,0.00908424549391551
2179.0,0.00908424549391551
2178.0,0.009039900317800775
2177.0,0.008995559669244813
2176.0,0.008951223547323472
2175.0,0.008951223547323472
2174.0,0.008995559669244813
2173.0,0.009039900317800775
2172.0,0.009039900317800775
2171.0,0.009039900317800775
2170.0,0.009039900317800775
2169.0,0.008995559669244813
2168.0,0.008995559669244813
2167.0,0.008995559669244813
2166.0,0.008995559669244813
2165.0,0.008995559669244813
2164.0,0.008951223547323472
2163.0,0.008906891951112605
2162.0,0.008906891951112605
2161.0,0.008951223547323472
2160.0,0.009039900317800775
2159.0,0.009128595198514056
2158.0,0.009172949432521227
2157.0,0.009217308196862062
2156.0,0.009217308196862062
2155.0,0.009217308196862062
2154.0,0.009172949432521227
2153.0,0.00908424549391551
2152.0,0.009039900317800775
2151.0,0.009039900317800775
2150.0,0.00908424549391551
2149.0,0.009128595198514056
2148.0,0.009128595198514056
2147.0,0.00908424549391551
2146.0,0.008995559669244813
2145.0,0.008951223547323472
2144.0,0.008951223547323472
2143.0,0.008951223547323472
2142.0,0.008995559669244813
2141.0,0.008995559669244813
2140.0,0.008995559669244813
2139.0,0.008995559669244813
2138.0,0.008995559669244813
2137.0,0.008951223547323472
2136.0,0.008951223547323472
2135.0,0.008951223547323472
2134.0,0.008906891951112605
2133.0,0.008862564879688284
2132.0,0.008818242332126802
2131.0,0.008818242332126802
2130.0,0.008818242332126802
2129.0,0.008818242332126802
2128.0,0.008818242332126802
2127.0,0.008818242332126802
2126.0,0.008773924307505121
2125.0,0.008773924307505121
2124.0,0.0087296108049002
2123.0,0.008640997362049818
2122.0,0.008596697419959609
2121.0,0.008552401996197112
2120.0,0.008552401996197112
2119.0,0.008552401996197112
2118.0,0.008596697419959609
2117.0,0.008640997362049818
2116.0,0.008685301823389224
2115.0,0.008685301823389224
2114.0,0.0087296108049002
2113.0,0.008773924307505121
2112.0,0.008773924307505121
2111.0,0.0087296108049002
2110.0,0.0087296108049002
2109.0,0.008773924307505121
2108.0,0.008773924307505121
2107.0,0.008818242332126802
2106.0,0.008818242332126802
2105.0,0.008818242332126802
2104.0,0.008818242332126802
2103.0,0.008818242332126802
2102.0,0.008773924307505121
2101.0,0.008773924307505121
2100.0,0.008773924307505121
2099.0,0.008773924307505121
2098.0,0.008818242332126802
2097.0,0.008773924307505121
2096.0,0.008773924307505121
2095.0,0.008685301823389224
2094.0,0.008640997362049818
2093.0,0.008596697419959609
2092.0,0.008552401996197112
2091.0,0.008552401996197112
2090.0,0.008552401996197112
2089.0,0.008552401996197112
2088.0,0.00850811108984062
2087.0,0.00850811108984062
2086.0,0.00850811108984062
2085.0,0.00850811108984062
2084.0,0.008552401996197112
2083.0,0.008596697419959609
2082.0,0.008596697419959609
2081.0,0.008640997362049818
2080.0,0.008640997362049818
2079.0,0.008685301823389224
2078.0,0.0087296108049002
2077.0,0.008773924307505121
2076.0,0.008818242332126802
2075.0,0.008773924307505121
2074.0,0.008685301823389224
2073.0,0.008685301823389224
2072.0,0.008685301823389224
2071.0,0.008685301823389224
2070.0,0.008685301823389224
2069.0,0.008640997362049818
2068.0,0.008640997362049818
2067.0,0.008596697419959609
2066.0,0.008596697419959609
2065.0,0.008596697419959609
2064.0,0.008596697419959609
2063.0,0.008640997362049818
2062.0,0.008685301823389224
2061.0,0.0087296108049002
2060.0,0.0087296108049002
2059.0,0.008685301823389224
2058.0,0.008685301823389224
2057.0,0.0087296108049002
2056.0,0.008773924307505121
2055.0,0.008818242332126802
2054.0,0.008862564879688284
2053.0,0.008818242332126802
2052.0,0.0087296108049002
2051.0,0.008685301823389224
2050.0,0.008685301823389224
2049.0,0.008685301823389224
2048.0,0.0087296108049002
2047.0,0.008773924307505121
2046.0,0.008818242332126802
2045.0,0.008862564879688284
2044.0,0.008862564879688284
2043.0,0.008818242332126802
2042.0,0.008818242332126802
2041.0,0.0087296108049002
2040.0,0.0087296108049002
2039.0,0.008685301823389224
2038.0,0.0087296108049002
2037.0,0.008773924307505121
2036.0,0.008773924307505121
2035.0,0.008773924307505121
2034.0,0.008818242332126802
2033.0,0.008906891951112605
2032.0,0.008951223547323472
2031.0,0.008951223547323472
2030.0,0.008951223547323472
2029.0,0.008951223547323472
2028.0,0.008906891951112605
2027.0,0.008906891951112605
2026.0,0.008862564879688284
2025.0,0.008906891951112605
2024.0,0.008906891951112605
2023.0,0.008951223547323472
2022.0,0.008995559669244813
2021.0,0.009039900317800775
2020.0,0.00908424549391551
2019.0,0.009039900317800775
2018.0,0.008995559669244813
2017.0,0.008951223547323472
2016.0,0.008951223547323472
2015.0,0.008951223547323472
2014.0,0.008995559669244813
2013.0,0.008995559669244813
2012.0,0.008951223547323472
2011.0,0.008862564879688284
2010.0,0.008773924307505121
2009.0,0.008685301823389224
2008.0,0.008596697419959609
2007.0,0.008552401996197112
2006.0,0.00850811108984062
2005.0,0.00850811108984062
2004.0,0.008552401996197112
2003.0,0.008552401996197112
2002.0,0.008552401996197112
2001.0,0.00850811108984062
2000.0,0.008463824699968647
1999.0,0.008463824699968647
1998.0,0.008463824699968647
1997.0,0.00850811108984062
1996.0,0.00850811108984062
1995.0,0.008552401996197112
1994.0,0.008596697419959609
1993.0,0.008596697419959609
1992.0,0.008596697419959609
1991.0,0.008552401996197112
1990.0,0.00850811108984062
1989.0,0.00850811108984062
1988.0,0.008552401996197112
1987.0,0.00850811108984062
1986.0,0.00850811108984062
1985.0,0.008552401996197112
1984.0,0.008552401996197112
1983.0,0.00850811108984062
1982.0,0.008419542825660153
1981.0,0.008419542825660153
1980.0,0.008375265465994541
1979.0,0.008375265465994541
1978.0,0.008375265465994541
1977.0,0.008330992620051436
1976.0,0.008286724286910463
1975.0,0.008242460465651913
1974.0,0.008198201155356077
1973.0,0.008198201155356077
1972.0,0.008242460465651913
1971.0,0.008286724286910463
1970.0,0.008330992620051436
1969.0,0.008286724286910463
1968.0,0.008242460465651913
1967.0,0.008153946355103248
1966.0,0.008109696063975047
1965.0,0.008153946355103248
1964.0,0.008242460465651913
1963.0,0.008330992620051436
1962.0,0.008330992620051436
1961.0,0.008375265465994541
1960.0,0.008375265465994541
1959.0,0.008375265465994541
1958.0,0.008375265465994541
1957.0,0.008419542825660153
1956.0,0.008419542825660153
1955.0,0.008419542825660153
1954.0,0.008375265465994541
1953.0,0.008330992620051436
1952.0,0.008330992620051436
1951.0,0.008330992620051436
1950.0,0.008330992620051436
1949.0,0.008375265465994541
1948.0,0.008375265465994541
1947.0,0.008330992620051436
1946.0,0.008286724286910463
1945.0,0.008286724286910463
1944.0,0.008242460465651913
1943.0,0.008198201155356077
1942.0,0.008153946355103248
1941.0,0.008109696063975047
1940.0,0.008109696063975047
1939.0,0.008109696063975047
1938.0,0.008153946355103248
1937.0,0.008198201155356077
1936.0,0.008198201155356077
1935.0,0.008242460465651913
1934.0,0.008286724286910463
1933.0,0.008375265465994541
1932.0,0.008375265465994541
1931.0,0.008375265465994541
1930.0,0.008375265465994541
1929.0,0.008375265465994541
1928.0,0.008375265465994541
1927.0,0.008375265465994541
1926.0,0.008330992620051436
1925.0,0.008286724286910463
1924.0,0.008242460465651913
1923.0,0.008198201155356077
1922.0,0.008153946355103248
1921.0,0.008153946355103248
1920.0,0.008153946355103248
1919.0,0.008153946355103248
1918.0,0.008198201155356077
1917.0,0.008153946355103248
1916.0,0.008153946355103248
1915.0,0.008153946355103248
1914.0,0.008153946355103248
1913.0,0.008198201155356077
1912.0,0.008242460465651913
1911.0,0.008242460465651913
1910.0,0.008286724286910463
1909.0,0.008330992620051436
1908.0,0.008375265465994541
1907.0,0.008463824699968647
1906.0,0.00850811108984062
1905.0,0.00850811108984062
1904.0,0.008552401996197112
1903.0,0.008596697419959609
1902.0,0.008596697419959609
1901.0,0.008640997362049818
1900.0,0.008685301823389224
1899.0,0.0087296108049002
1898.0,0.008818242332126802
1897.0,0.008862564879688284
1896.0,0.008862564879688284
1895.0,0.008862564879688284
1894.0,0.008862564879688284
1893.0,0.008818242332126802
1892.0,0.008773924307505121
1891.0,0.008640997362049818
1890.0,0.00850811108984062
1889.0,0.008375265465994541
1888.0,0.008375265465994541
1887.0,0.008375265465994541
1886.0,0.008330992620051436
1885.0,0.008330992620051436
1884.0,0.008242460465651913
1883.0,0.008198201155356077
1882.0,0.008153946355103248
1881.0,0.008109696063975047
1880.0,0.008109696063975047
1879.0,0.008065450281052211
1878.0,0.008065450281052211
1877.0,0.008021209005416363
1876.0,0.007976972236149349
1875.0,0.007932739972333236
1874.0,0.007844288957383316
1873.0,0.007800070204414977
1872.0,0.007800070204414977
1871.0,0.007800070204414977
1870.0,0.007844288957383316
1869.0,0.007932739972333236
1868.0,0.007932739972333236
1867.0,0.007888512213050314
1866.0,0.007844288957383316
1865.0,0.007844288957383316
1864.0,0.007800070204414977
1863.0,0.007800070204414977
1862.0,0.007755855953228474
1861.0,0.007711646202907652
1860.0,0.007667440952535687
1859.0,0.007667440952535687
1858.0,0.007711646202907652
1857.0,0.007800070204414977
1856.0,0.007844288957383316
1855.0,0.007844288957383316
1854.0,0.007844288957383316
1853.0,0.007800070204414977
1852.0,0.007800070204414977
1851.0,0.007844288957383316
1850.0,0.007844288957383316
1849.0,0.007844288957383316
1848.0,0.007800070204414977
1847.0,0.007755855953228474
1846.0,0.007711646202907652
1845.0,0.007755855953228474
1844.0,0.007844288957383316
1843.0,0.007888512213050314
1842.0,0.007932739972333236
1841.0,0.007976972236149349
1840.0,0.007932739972333236
1839.0,0.007888512213050314
1838.0,0.007844288957383316
1837.0,0.007800070204414977
1836.0,0.007755855953228474
1835.0,0.007711646202907652
1834.0,0.007667440952535687
1833.0,0.007667440952535687
1832.0,0.007667440952535687
1831.0,0.00762324020119709
1830.0,0.00762324020119709
1829.0,0.00762324020119709
1828.0,0.007667440952535687
1827.0,0.007667440952535687
1826.0,0.00762324020119709
1825.0,0.0075790439479759275
1824.0,0.007534852191956709
1823.0,0.007534852191956709
1822.0,0.007534852191956709
1821.0,0.0075790439479759275
1820.0,0.0075790439479759275
1819.0,0.0075790439479759275
1818.0,0.0075790439479759275
1817.0,0.0075790439479759275
1816.0,0.0075790439479759275
1815.0,0.007534852191956709
1814.0,0.007534852191956709
1813.0,0.007534852191956709
1812.0,0.007534852191956709
1811.0,0.007490664932224611
1810.0,0.007490664932224611
1809.0,0.0074464821678643656
1808.0,0.0074464821678643656
1807.0,0.007402303897961815
1806.0,0.007358130121602358
1805.0,0.007313960837872058
1804.0,0.007313960837872058
1803.0,0.007313960837872058
1802.0,0.007313960837872058
1801.0,0.007313960837872058
1800.0,0.007358130121602358
1799.0,0.007358130121602358
1798.0,0.0074464821678643656
1797.0,0.007490664932224611
1796.0,0.007534852191956709
1795.0,0.007490664932224611
1794.0,0.0074464821678643656
1793.0,0.007490664932224611
1792.0,0.007534852191956709
1791.0,0.007534852191956709
1790.0,0.007534852191956709
1789.0,0.007534852191956709
1788.0,0.007534852191956709
1787.0,0.007534852191956709
1786.0,0.007534852191956709
1785.0,0.007534852191956709
1784.0,0.007534852191956709
1783.0,0.007490664932224611
1782.0,0.0074464821678643656
1781.0,0.007490664932224611
1780.0,0.007534852191956709
1779.0,0.0075790439479759275
1778.0,0.0075790439479759275
1777.0,0.00762324020119709
1776.0,0.00762324020119709
1775.0,0.0075790439479759275
1774.0,0.007534852191956709
1773.0,0.007534852191956709
1772.0,0.0075790439479759275
1771.0,0.0075790439479759275
1770.0,0.0075790439479759275
1769.0,0.0075790439479759275
1768.0,0.0075790439479759275
1767.0,0.007534852191956709
1766.0,0.0075790439479759275
1765.0,0.007667440952535687
1764.0,0.007711646202907652
1763.0,0.007711646202907652
1762.0,0.007711646202907652
1761.0,0.007800070204414977
1760.0,0.007932739972333236
1759.0,0.008065450281052211
1758.0,0.008198201155356077
1757.0,0.008419542825660153
1756.0,0.008596697419959609
1755.0,0.0087296108049002
1754.0,0.008818242332126802
1753.0,0.008906891951112605
1752.0,0.008995559669244813
1751.0,0.009128595198514056
1750.0,0.009306039320248427
1749.0,0.009572341514736404
1748.0,0.00974996707218323
1747.0,0.009883233932095559
1746.0,0.009927665307847056
1745.0,0.009927665307847056
1744.0,0.009927665307847056
1743.0,0.009883233932095559
1742.0,0.009838807101520963
1741.0,0.009838807101520963
1740.0,0.009883233932095559
1739.0,0.009838807101520963
1738.0,0.009838807101520963
1737.0,0.009883233932095559
1736.0,0.009883233932095559
1735.0,0.009838807101520963
1734.0,0.009616741093766423
1733.0,0.009306039320248427
1732.0,0.00908424549391551
1731.0,0.008951223547323472
1730.0,0.008818242332126802
1729.0,0.0087296108049002
1728.0,0.0087296108049002
1727.0,0.008773924307505121
1726.0,0.008818242332126802
1725.0,0.008818242332126802
1724.0,0.008773924307505121
1723.0,0.0087296108049002
1722.0,0.008685301823389224
1721.0,0.008685301823389224
1720.0,0.0087296108049002
1719.0,0.008773924307505121
1718.0,0.008862564879688284
1717.0,0.008906891951112605
1716.0,0.008906891951112605
1715.0,0.008862564879688284
1714.0,0.008818242332126802
1713.0,0.008818242332126802
1712.0,0.008818242332126802
1711.0,0.0087296108049002
1710.0,0.008685301823389224
1709.0,0.008640997362049818
1708.0,0.008596697419959609
1707.0,0.008552401996197112
1706.0,0.008419542825660153
1705.0,0.008375265465994541
1704.0,0.008419542825660153
1703.0,0.008463824699968647
1702.0,0.00850811108984062
1701.0,0.008640997362049818
1700.0,0.0087296108049002
1699.0,0.0087296108049002
1698.0,0.0087296108049002
1697.0,0.0087296108049002
1696.0,0.008640997362049818
1695.0,0.008552401996197112
1694.0,0.008596697419959609
1693.0,0.008685301823389224
1692.0,0.008685301823389224
1691.0,0.008640997362049818
1690.0,0.008596697419959609
1689.0,0.008596697419959609
1688.0,0.008640997362049818
1687.0,0.008640997362049818
1686.0,0.008640997362049818
1685.0,0.0087296108049002
1684.0,0.008773924307505121
1683.0,0.0087296108049002
1682.0,0.008773924307505121
1681.0,0.008818242332126802
1680.0,0.008818242332126802
1679.0,0.008818242332126802
1678.0,0.008951223547323472
1677.0,0.00908424549391551
1676.0,0.009217308196862062
1675.0,0.009306039320248427
1674.0,0.009261671492462709
1673.0,0.009261671492462709
1672.0,0.009217308196862062
1671.0,0.009172949432521227
1670.0,0.009172949432521227
1669.0,0.009172949432521227
1668.0,0.009172949432521227
1667.0,0.009217308196862062
1666.0,0.009261671492462709
1665.0,0.009306039320248427
1664.0,0.009350411681145587
1663.0,0.00939478857608056
1662.0,0.00939478857608056
1661.0,0.009350411681145587
1660.0,0.009306039320248427
1659.0,0.009217308196862062
1658.0,0.009128595198514056
1657.0,0.009039900317800775
1656.0,0.008951223547323472
1655.0,0.008818242332126802
1654.0,0.008906891951112605
1653.0,0.00908424549391551
1652.0,0.008995559669244813
1651.0,0.008995559669244813
1650.0,0.008995559669244813
1649.0,0.008951223547323472
1648.0,0.008995559669244813
1647.0,0.00908424549391551
1646.0,0.009128595198514056
1645.0,0.009128595198514056
1644.0,0.009128595198514056
1643.0,0.00908424549391551
1642.0,0.008995559669244813
1641.0,0.008862564879688284
1640.0,0.008818242332126802
1639.0,0.008818242332126802
1638.0,0.008773924307505121
1637.0,0.008773924307505121
1636.0,0.008773924307505121
1635.0,0.008685301823389224
1634.0,0.008640997362049818
1633.0,0.0087296108049002
1632.0,0.008685301823389224
1631.0,0.008596697419959609
1630.0,0.008419542825660153
1629.0,0.008286724286910463
1628.0,0.008242460465651913
1627.0,0.008330992620051436
1626.0,0.008419542825660153
1625.0,0.008596697419959609
1624.0,0.008685301823389224
1623.0,0.008596697419959609
1622.0,0.008419542825660153
1621.0,0.008286724286910463
1620.0,0.008242460465651913
1619.0,0.008198201155356077
1618.0,0.008153946355103248
1617.0,0.008198201155356077
1616.0,0.008198201155356077
1615.0,0.008153946355103248
1614.0,0.008198201155356077
1613.0,0.008153946355103248
1612.0,0.008153946355103248
1611.0,0.008109696063975047
1610.0,0.008065450281052211
1609.0,0.008021209005416363
1608.0,0.007976972236149349
1607.0,0.007932739972333236
1606.0,0.007976972236149349
1605.0,0.008021209005416363
1604.0,0.008065450281052211
1603.0,0.008065450281052211
1602.0,0.008021209005416363
1601.0,0.007932739972333236
1600.0,0.007888512213050314
1599.0,0.007800070204414977
1598.0,0.007800070204414977
1597.0,0.007755855953228474
1596.0,0.007755855953228474
1595.0,0.007755855953228474
1594.0,0.007755855953228474
1593.0,0.007711646202907652
1592.0,0.007711646202907652
1591.0,0.007667440952535687
1590.0,0.00762324020119709
1589.0,0.0075790439479759275
1588.0,0.00762324020119709
1587.0,0.00762324020119709
1586.0,0.00762324020119709
1585.0,0.00762324020119709
1584.0,0.0075790439479759275
1583.0,0.0075790439479759275
1582.0,0.007534852191956709
1581.0,0.007534852191956709
1580.0,0.007534852191956709
1579.0,0.007490664932224611
1578.0,0.0074464821678643656
1577.0,0.007402303897961815
1576.0,0.007402303897961815
1575.0,0.007313960837872058
1574.0,0.007313960837872058
1573.0,0.007358130121602358
1572.0,0.007313960837872058
1571.0,0.007313960837872058
1570.0,0.007313960837872058
1569.0,0.007358130121602358
1568.0,0.007402303897961815
1567.0,0.007402303897961815
1566.0,0.007402303897961815
1565.0,0.007358130121602358
1564.0,0.007402303897961815
1563.0,0.007402303897961815
1562.0,0.007358130121602358
1561.0,0.007269796045857202
1560.0,0.0074464821678643656
1559.0,0.007711646202907652
1558.0,0.0075790439479759275
1557.0,0.00762324020119709
1556.0,0.007755855953228474
1555.0,0.007711646202907652
1554.0,0.0075790439479759275
1553.0,0.007534852191956709
1552.0,0.007534852191956709
1551.0,0.007490664932224611
1550.0,0.007490664932224611
1549.0,0.0075790439479759275
1548.0,0.007711646202907652
1547.0,0.007711646202907652
1546.0,0.007667440952535687
1545.0,0.00762324020119709
1544.0,0.00762324020119709
1543.0,0.00762324020119709
1542.0,0.0075790439479759275
1541.0,0.00762324020119709
1540.0,0.0075790439479759275
1539.0,0.007313960837872058
1538.0,0.007269796045857202
1537.0,0.007358130121602358
1536.0,0.0074464821678643656
1535.0,0.007358130121602358
1534.0,0.007181479933320523
1533.0,0.007049039429553483
1532.0,0.00696076819309055
1531.0,0.006916639301937977
1530.0,0.006916639301937977
1529.0,0.00696076819309055
1528.0,0.007049039429553483
1527.0,0.007004901568658406
1526.0,0.006872514894289861
1525.0,0.006784279525863024
1524.0,0.006740168563263094
1523.0,0.006607862550997545
1522.0,0.006431517210272464
1521.0,0.006299305179649828
1520.0,0.00621118618129457
1519.0,0.006167133386013823
1518.0,0.00612308505878878
1517.0,0.00621118618129457
1516.0,0.006299305179649828
1515.0,0.006299305179649828
1514.0,0.00625524344553785
1513.0,0.006299305179649828
1512.0,0.006387442061109638
1511.0,0.006343371384537999
1510.0,0.00625524344553785
1509.0,0.00625524344553785
1508.0,0.006519680930003435
1507.0,0.006475596832934416
1506.0,0.00625524344553785
1505.0,0.006387442061109638
1504.0,0.006607862550997545
1503.0,0.006607862550997545
1502.0,0.00656376950238835
1501.0,0.00656376950238835
1500.0,0.006651960076740071
1499.0,0.006651960076740071
1498.0,0.006475596832934416
1497.0,0.006387442061109638
1496.0,0.006387442061109638
1495.0,0.006343371384537999
1494.0,0.006299305179649828
1493.0,0.006431517210272464
1492.0,0.00656376950238835
1491.0,0.006519680930003435
1490.0,0.006431517210272464
1489.0,0.006431517210272464
1488.0,0.006519680930003435
1487.0,0.006475596832934416
1486.0,0.006431517210272464
1485.0,0.006696062080525422
1484.0,0.007049039429553483
1483.0,0.007358130121602358
1482.0,0.007888512213050314
1481.0,0.008906891951112605
1480.0,0.010416710688994968
1479.0,0.01264661126420652
1478.0,0.017005545341335804
1477.0,0.025350165561278004
1476.0,0.03862637240519895
1475.0,0.05586292684190197
1474.0,0.07530729697981409
1473.0,0.0908185240221473
1472.0,0.09425807260839858
1471.0,0.08825662214406838
1470.0,0.08086958613938555
1469.0,0.07525564752005143
1468.0,0.07155293679081787
1467.0,0.07047889936889606
1466.0,0.07448164182257
1465.0,0.08496970974083906
1464.0,0.09718153191774648
1463.0,0.10363915453068362
1462.0,0.1017686154869033
1461.0,0.09307265269104414
1460.0,0.08034671768963575
1459.0,0.06656333217371957
1458.0,0.054728418492290265
1457.0,0.04682039893436585
1456.0,0.04229695845116854
1455.0,0.03938654235209116
1454.0,0.03692083935817303
1453.0,0.03437503289075727
1452.0,0.031984286006358165
1451.0,0.030071810571884017
1450.0,0.028677754757187035
1449.0,0.02751945012352408
1448.0,0.026410376572743033
1447.0,0.02562649291857677
1446.0,0.025028005701930978
1445.0,0.024476287039668643
1444.0,0.023879381700184332
1443.0,0.023374947949272418
1442.0,0.02296266477531872
1441.0,0.02255077261765881
1440.0,0.022093572362881675
1439.0,0.02168250325324883
1438.0,0.021317434843055594
1437.0,0.020952673052035298
1436.0,0.02045162529590483
1435.0,0.01995115493504329
1434.0,0.019451260640229506
1433.0,0.018815862601645694
1432.0,0.01809082990920774
1431.0,0.017457417697056554
1430.0,0.016870075265299933
1429.0,0.016193358021584725
1428.0,0.015562705203923999
1427.0,0.015022873584506602
1426.0,0.01452861671041239
1425.0,0.01403492169512921
1424.0,0.013631406429727155
1423.0,0.013317820220494436
1422.0,0.013093968619278806
1421.0,0.012825498912458322
1420.0,0.012557195064198723
1419.0,0.012333735073725371
1418.0,0.01215504982870197
1417.0,0.011887159731648111
1416.0,0.011664044143949504
1415.0,0.011530229790124524
1414.0,0.011441043121384498
1413.0,0.011307297450183107
1412.0,0.01117359295472431
1411.0,0.011039929609661936
1410.0,0.01086177578421088
1409.0,0.010728208358306901
1408.0,0.010550182333308289
1407.0,0.010416710688994968
1406.0,0.01037222925484893
1405.0,0.01023881228122181
1404.0,0.010194349063173958
1403.0,0.010149890396819572
1402.0,0.010105436281226954
1401.0,0.009972101229705377
1400.0,0.009838807101520963
1399.0,0.009794384815193347
1398.0,0.009883233932095559
1397.0,0.009883233932095559
1396.0,0.009883233932095559
1395.0,0.009927665307847056
1394.0,0.009927665307847056
1393.0,0.009883233932095559
1392.0,0.009838807101520963
1391.0,0.009883233932095559
1390.0,0.009883233932095559
1389.0,0.009883233932095559
1388.0,0.009927665307847056
1387.0,0.010060986715464404
1386.0,0.01023881228122181
1385.0,0.01037222925484893
1384.0,0.010505687227290839
1383.0,0.01077272626946324
1382.0,0.011129033935354915
1381.0,0.011530229790124524
1380.0,0.011887159731648111
1379.0,0.012199714248127602
1378.0,0.012423105273012602
1377.0,0.012423105273012602
1376.0,0.012333735073725371
1375.0,0.012333735073725371
1374.0,0.012467797270160563
1373.0,0.01260190086298274
1372.0,0.012825498912458322
1371.0,0.013093968619278806
1370.0,0.013273040668781544
1369.0,0.013407393177789162
1368.0,0.013362604389846044
1367.0,0.013273040668781544
1366.0,0.013138729709955221
1365.0,0.012870232340102872
1364.0,0.01260190086298274
1363.0,0.012333735073725371
1362.0,0.012110390002254778
1361.0,0.011887159731648111
1360.0,0.011753276624621556
1359.0,0.011708658092512314
1358.0,0.011664044143949504
1357.0,0.011664044143949504
1356.0,0.011708658092512314
1355.0,0.011753276624621556
1354.0,0.011753276624621556
1353.0,0.011753276624621556
1352.0,0.011664044143949504
1351.0,0.011619434777991433
1350.0,0.011530229790124524
1349.0,0.011396456654336085
1348.0,0.01117359295472431
1347.0,0.010995384301463185
1346.0,0.010817248744452446
1345.0,0.010594681998483901
1344.0,0.010416710688994968
1343.0,0.010283280051895272
1342.0,0.010105436281226954
1341.0,0.009883233932095559
1340.0,0.009705553871561357
1339.0,0.009572341514736404
1338.0,0.009483555971770974
1337.0,0.009439170005980158
1336.0,0.00939478857608056
1335.0,0.00939478857608056
1334.0,0.009350411681145587
1333.0,0.009306039320248427
1332.0,0.009261671492462709
1331.0,0.009261671492462709
1330.0,0.009261671492462709
1329.0,0.009261671492462709
1328.0,0.009306039320248427
1327.0,0.00939478857608056
1326.0,0.009483555971770974
1325.0,0.009527946474380489
1324.0,0.009572341514736404
1323.0,0.009616741093766423
1322.0,0.009705553871561357
1321.0,0.009838807101520963
1320.0,0.009972101229705377
1319.0,0.010105436281226954
1318.0,0.01023881228122181
1317.0,0.010283280051895272
1316.0,0.010283280051895272
1315.0,0.010327752376126709
1314.0,0.010416710688994968
1313.0,0.010505687227290839
1312.0,0.010639186223752484
1311.0,0.01077272626946324
1310.0,0.01086177578421088
1309.0,0.010906307389674463
1308.0,0.010906307389674463
1307.0,0.010906307389674463
1306.0,0.010906307389674463
1305.0,0.010950843561779777
1304.0,0.010950843561779777
1303.0,0.010906307389674463
1302.0,0.01086177578421088
1301.0,0.010817248744452446
1300.0,0.01077272626946324
1299.0,0.010728208358306901
1298.0,0.010683695010048622
1297.0,0.010594681998483901
1296.0,0.01046119667949763
1295.0,0.010327752376126709
1294.0,0.01023881228122181
1293.0,0.010105436281226954
1292.0,0.009972101229705377
1291.0,0.009883233932095559
1290.0,0.009794384815193347
1289.0,0.009705553871561357
1288.0,0.00966114521239847
1287.0,0.009572341514736404
1286.0,0.009527946474380489
1285.0,0.009439170005980158
1284.0,0.00939478857608056
1283.0,0.009350411681145587
1282.0,0.009350411681145587
1281.0,0.009350411681145587
1280.0,0.009350411681145587
1279.0,0.009350411681145587
1278.0,0.00939478857608056
1277.0,0.00939478857608056
1276.0,0.00939478857608056
1275.0,0.009350411681145587
1274.0,0.009306039320248427
1273.0,0.009261671492462709
1272.0,0.009261671492462709
1271.0,0.009350411681145587
1270.0,0.009439170005980158
1269.0,0.009483555971770974
1268.0,0.009527946474380489
1267.0,0.009527946474380489
1266.0,0.009572341514736404
1265.0,0.009572341514736404
1264.0,0.009616741093766423
1263.0,0.009616741093766423
1262.0,0.009616741093766423
1261.0,0.009572341514736404
1260.0,0.009527946474380489
1259.0,0.009483555971770974
1258.0,0.00939478857608056
1257.0,0.009306039320248427
1256.0,0.009217308196862062
1255.0,0.009172949432521227
1254.0,0.009172949432521227
1253.0,0.009128595198514056
1252.0,0.00908424549391551
1251.0,0.00908424549391551
1250.0,0.00908424549391551
1249.0,0.009039900317800775
1248.0,0.008995559669244813
1247.0,0.008995559669244813
1246.0,0.008995559669244813
1245.0,0.008995559669244813
1244.0,0.008906891951112605
1243.0,0.008862564879688284
1242.0,0.008818242332126802
1241.0,0.008773924307505121
1240.0,0.0087296108049002
1239.0,0.0087296108049002
1238.0,0.0087296108049002
1237.0,0.0087296108049002
1236.0,0.008685301823389224
1235.0,0.008685301823389224
1234.0,0.008685301823389224
1233.0,0.008596697419959609
1232.0,0.008552401996197112
1231.0,0.00850811108984062
1230.0,0.00850811108984062
1229.0,0.008552401996197112
1228.0,0.00850811108984062
1227.0,0.008463824699968647
1226.0,0.008463824699968647
1225.0,0.008419542825660153
1224.0,0.008419542825660153
1223.0,0.008463824699968647
1222.0,0.00850811108984062
1221.0,0.00850811108984062
1220.0,0.008419542825660153
1219.0,0.008330992620051436
1218.0,0.008286724286910463
1217.0,0.008242460465651913
1216.0,0.008242460465651913
1215.0,0.008330992620051436
1214.0,0.008419542825660153
1213.0,0.008419542825660153
1212.0,0.008419542825660153
1211.0,0.008375265465994541
1210.0,0.008375265465994541
1209.0,0.008375265465994541
1208.0,0.008375265465994541
1207.0,0.008375265465994541
1206.0,0.008375265465994541
1205.0,0.008375265465994541
1204.0,0.008286724286910463
1203.0,0.008242460465651913
1202.0,0.008198201155356077
1201.0,0.008153946355103248
1200.0,0.008153946355103248
1199.0,0.008109696063975047
1198.0,0.008065450281052211
1197.0,0.007976972236149349
1196.0,0.007844288957383316
1195.0,0.007800070204414977
1194.0,0.007800070204414977
1193.0,0.007800070204414977
1192.0,0.007755855953228474
1191.0,0.007755855953228474
1190.0,0.007755855953228474
1189.0,0.007711646202907652
1188.0,0.007711646202907652
1187.0,0.007755855953228474
1186.0,0.007844288957383316
1185.0,0.007888512213050314
1184.0,0.007932739972333236
1183.0,0.007932739972333236
1182.0,0.007976972236149349
1181.0,0.008021209005416363
1180.0,0.008065450281052211
1179.0,0.008242460465651913
1178.0,0.008375265465994541
1177.0,0.00850811108984062
1176.0,0.008596697419959609
1175.0,0.008640997362049818
1174.0,0.0087296108049002
1173.0,0.008818242332126802
1172.0,0.008906891951112605
1171.0,0.008995559669244813
1170.0,0.00908424549391551
1169.0,0.009128595198514056
1168.0,0.009128595198514056
1167.0,0.009128595198514056
1166.0,0.009172949432521227
1165.0,0.009172949432521227
1164.0,0.009128595198514056
1163.0,0.009128595198514056
1162.0,0.009128595198514056
1161.0,0.009172949432521227
1160.0,0.009172949432521227
1159.0,0.009172949432521227
1158.0,0.009128595198514056
1157.0,0.00908424549391551
1156.0,0.008995559669244813
1155.0,0.008862564879688284
1154.0,0.008818242332126802
1153.0,0.0087296108049002
1152.0,0.008685301823389224
1151.0,0.008685301823389224
1150.0,0.008640997362049818
1149.0,0.008596697419959609
1148.0,0.00850811108984062
1147.0,0.008419542825660153
1146.0,0.008330992620051436
1145.0,0.008242460465651913
1144.0,0.008153946355103248
1143.0,0.008109696063975047
1142.0,0.008065450281052211
1141.0,0.007976972236149349
1140.0,0.007844288957383316
1139.0,0.007711646202907652
1138.0,0.0075790439479759275
1137.0,0.0074464821678643656
1136.0,0.007358130121602358
1135.0,0.007225635744644521
1134.0,0.007093181776687496
1133.0,0.00696076819309055
1132.0,0.006916639301937977
1131.0,0.007004901568658406
1130.0,0.007093181776687496
1129.0,0.007181479933320523
1128.0,0.007137328610972382
1127.0,0.007137328610972382
1126.0,0.007137328610972382
1125.0,0.007181479933320523
1124.0,0.007225635744644521
1123.0,0.007313960837872058
1122.0,0.007402303897961815
1121.0,0.007490664932224611
1120.0,0.0075790439479759275
1119.0,0.007667440952535687
1118.0,0.007711646202907652
1117.0,0.007711646202907652
1116.0,0.007667440952535687
1115.0,0.00762324020119709
1114.0,0.007667440952535687
1113.0,0.007711646202907652
1112.0,0.007755855953228474
1111.0,0.007844288957383316
1110.0,0.007976972236149349
1109.0,0.008021209005416363
1108.0,0.008021209005416363
1107.0,0.007932739972333236
1106.0,0.007844288957383316
1105.0,0.007844288957383316
1104.0,0.007932739972333236
1103.0,0.008109696063975047
1102.0,0.008286724286910463
1101.0,0.008419542825660153
1100.0,0.00850811108984062
1099.0,0.008552401996197112
1098.0,0.008552401996197112
1097.0,0.00850811108984062
1096.0,0.008463824699968647
1095.0,0.008463824699968647
1094.0,0.00850811108984062
1093.0,0.008552401996197112
1092.0,0.00850811108984062
1091.0,0.008419542825660153
1090.0,0.008419542825660153
1089.0,0.008419542825660153
1088.0,0.00850811108984062
1087.0,0.008596697419959609
1086.0,0.008552401996197112
1085.0,0.008419542825660153
1084.0,0.008242460465651913
1083.0,0.008109696063975047
1082.0,0.008153946355103248
1081.0,0.008198201155356077
1080.0,0.008242460465651913
1079.0,0.008286724286910463
1078.0,0.008242460465651913
1077.0,0.008109696063975047
1076.0,0.008021209005416363
1075.0,0.007932739972333236
1074.0,0.007844288957383316
1073.0,0.007711646202907652
1072.0,0.0075790439479759275
1071.0,0.0075790439479759275
1070.0,0.0075790439479759275
1069.0,0.00762324020119709
1068.0,0.00762324020119709
1067.0,0.00762324020119709
1066.0,0.007667440952535687
1065.0,0.007711646202907652
1064.0,0.007711646202907652
1063.0,0.007667440952535687
1062.0,0.00762324020119709
1061.0,0.007534852191956709
1060.0,0.0074464821678643656
1059.0,0.007402303897961815
1058.0,0.007358130121602358
1057.0,0.007358130121602358
1056.0,0.0074464821678643656
1055.0,0.007534852191956709
1054.0,0.00762324020119709
1053.0,0.007711646202907652
1052.0,0.007755855953228474
1051.0,0.007800070204414977
1050.0,0.007844288957383316
1049.0,0.007800070204414977
1048.0,0.007755855953228474
1047.0,0.007711646202907652
1046.0,0.007711646202907652
1045.0,0.007667440952535687
1044.0,0.007490664932224611
1043.0,0.007358130121602358
1042.0,0.007269796045857202
1041.0,0.007269796045857202
1040.0,0.007269796045857202
1039.0,0.007269796045857202
1038.0,0.007269796045857202
1037.0,0.007181479933320523
1036.0,0.007049039429553483
1035.0,0.006872514894289861
1034.0,0.006784279525863024
1033.0,0.006696062080525422
1032.0,0.006651960076740071
1031.0,0.00656376950238835
1030.0,0.006475596832934416
1029.0,0.006431517210272464
1028.0,0.006475596832934416
1027.0,0.00656376950238835
1026.0,0.006651960076740071
1025.0,0.006740168563263094
1024.0,0.006740168563263094
1023.0,0.006651960076740071
1022.0,0.00656376950238835
1021.0,0.006431517210272464
1020.0,0.006431517210272464
1019.0,0.006431517210272464
1018.0,0.006475596832934416
1017.0,0.006387442061109638
1016.0,0.00625524344553785
1015.0,0.006079041198713275
1014.0,0.005990966876386672
1013.0,0.00590291041179003
1012.0,0.00590291041179003
1011.0,0.00590291041179003
1010.0,0.00590291041179003
1009.0,0.005814871797682919
1008.0,0.005682847330363394
1007.0,0.005550862985963967
1006.0,0.005462895701502157
1005.0,0.00541891874010525
1004.0,0.00541891874010525
1003.0,0.005462895701502157
1002.0,0.005550862985963967
1001.0,0.005550862985963967
1000.0,0.005506877116487674
999.0,0.005506877116487674
998.0,0.005550862985963967
997.0,0.005550862985963967
996.0,0.005506877116487674
995.0,0.005506877116487674
994.0,0.005506877116487674
993.0,0.005638848091999105
992.0,0.005726851026829571
991.0,0.00577085918230158
990.0,0.00577085918230158
989.0,0.00577085918230158
988.0,0.005726851026829571
987.0,0.005726851026829571
986.0,0.005726851026829571
985.0,0.005814871797682919
984.0,0.005858888873877532
983.0,0.005946936412324799
982.0,0.006035001804881146
981.0,0.006079041198713275
980.0,0.006167133386013823
979.0,0.00625524344553785
978.0,0.006299305179649828
977.0,0.006343371384537999
976.0,0.006299305179649828
975.0,0.006299305179649828
974.0,0.006299305179649828
973.0,0.006343371384537999
972.0,0.006343371384537999
971.0,0.006343371384537999
970.0,0.006343371384537999
969.0,0.00621118618129457
968.0,0.006035001804881146
967.0,0.00590291041179003
966.0,0.005858888873877532
965.0,0.005814871797682919
964.0,0.005726851026829571
963.0,0.005594853310833647
962.0,0.005506877116487674
961.0,0.00541891874010525
960.0,0.00537494623139545
959.0,0.005330978174470591
958.0,0.0052870145684298375
957.0,0.005243055412371911
956.0,0.005199100705396198
955.0,0.005111204635089406
954.0,0.005067263269958211
953.0,0.004979393875242044
952.0,0.00484762310854614
951.0,0.004759798137184523
950.0,0.004715892310740433
949.0,0.004671990922590297
948.0,0.00458420145758498
947.0,0.004540313378935901
946.0,0.004540313378935901
945.0,0.004628093971837721
944.0,0.004759798137184523
943.0,0.00484762310854614
942.0,0.004935465843858511
941.0,0.004979393875242044
940.0,0.004979393875242044
939.0,0.004979393875242044
938.0,0.004979393875242044
937.0,0.005067263269958211
936.0,0.005199100705396198
935.0,0.00537494623139545
934.0,0.005550862985963967
933.0,0.005638848091999105
932.0,0.005638848091999105
931.0,0.005594853310833647
930.0,0.005550862985963967
929.0,0.005594853310833647
928.0,0.005638848091999105
927.0,0.005726851026829571
926.0,0.005726851026829571
925.0,0.005726851026829571
924.0,0.005682847330363394
923.0,0.005682847330363394
922.0,0.005726851026829571
921.0,0.00577085918230158
920.0,0.005814871797682919
919.0,0.00577085918230158
918.0,0.005726851026829571
917.0,0.005726851026829571
916.0,0.005682847330363394
915.0,0.005682847330363394
914.0,0.005638848091999105
913.0,0.005594853310833647
912.0,0.005462895701502157
911.0,0.00541891874010525
910.0,0.00537494623139545
909.0,0.00537494623139545
908.0,0.005330978174470591
907.0,0.005243055412371911
906.0,0.005067263269958211
905.0,0.00484762310854614
904.0,0.004671990922590297
903.0,0.004540313378935901
902.0,0.004452550524862486
901.0,0.0044964297349936455
900.0,0.004540313378935901
899.0,0.00458420145758498
898.0,0.004540313378935901
897.0,0.004408675747646695
896.0,0.004233220950025984
895.0,0.0040578370074493275
894.0,0.0040578370074493275
893.0,0.004145520125434121
892.0,0.004233220950025984
891.0,0.004320939488377862
890.0,0.004320939488377862
889.0,0.004320939488377862
888.0,0.004320939488377862
887.0,0.0043648054024501
886.0,0.0043648054024501
885.0,0.004320939488377862
884.0,0.004320939488377862
883.0,0.004320939488377862
882.0,0.004320939488377862
881.0,0.004320939488377862
880.0,0.004320939488377862
879.0,0.0044964297349936455
878.0,0.004715892310740433
877.0,0.00489154225525934
876.0,0.004979393875242044
875.0,0.005023326350308999
874.0,0.005067263269958211
873.0,0.005067263269958211
872.0,0.005067263269958211
871.0,0.004979393875242044
870.0,0.004979393875242044
869.0,0.004979393875242044
868.0,0.005067263269958211
867.0,0.005155150446602086
866.0,0.0052870145684298375
865.0,0.00537494623139545
864.0,0.005506877116487674
863.0,0.005638848091999105
862.0,0.00577085918230158
861.0,0.005858888873877532
860.0,0.00590291041179003
859.0,0.005858888873877532
858.0,0.005858888873877532
857.0,0.005814871797682919
856.0,0.005814871797682919
855.0,0.005946936412324799
854.0,0.006035001804881146
853.0,0.005990966876386672
852.0,0.005814871797682919
851.0,0.005550862985963967
850.0,0.005330978174470591
849.0,0.005199100705396198
848.0,0.005067263269958211
847.0,0.005023326350308999
846.0,0.005023326350308999
845.0,0.004935465843858511
844.0,0.004759798137184523
843.0,0.00458420145758498
842.0,0.004452550524862486
841.0,0.0043648054024501
840.0,0.004233220950025984
839.0,0.004189368323957332
838.0,0.004189368323957332
837.0,0.004189368323957332
836.0,0.0040578370074493275
835.0,0.0038825238627120395
834.0,0.0035758960449088217
833.0,0.0033132443998284966
832.0,0.0030944893043338695
831.0,0.0030944893043338695
830.0,0.0032257291386954545
829.0,0.0033132443998284966
828.0,0.0033132443998284966
827.0,0.0032694845648473247
826.0,0.0032694845648473247
825.0,0.0034007772998332353
824.0,0.0035758960449088217
823.0,0.003707281458678491
822.0,0.0037510854308679953
821.0,0.0037510854308679953
820.0,0.003619686766589858
819.0,0.0035321097382827737
818.0,0.003488327845821315
817.0,0.0035321097382827737
816.0,0.0036634819042162814
815.0,0.0038825238627120395
814.0,0.0040578370074493275
813.0,0.004189368323957332
812.0,0.004277078004534696
811.0,0.0043648054024501
810.0,0.004452550524862486
809.0,0.0044964297349936455
808.0,0.0044964297349936455
807.0,0.004540313378935901
806.0,0.00458420145758498
805.0,0.004628093971837721
804.0,0.004628093971837721
803.0,0.00458420145758498
802.0,0.00458420145758498
801.0,0.00458420145758498
800.0,0.00458420145758498
799.0,0.00458420145758498
798.0,0.004671990922590297
797.0,0.004759798137184523
796.0,0.00484762310854614
795.0,0.004935465843858511
794.0,0.004935465843858511
793.0,0.004803708402820517
792.0,0.00458420145758498
791.0,0.0044964297349936455
790.0,0.004540313378935901
789.0,0.004628093971837721
788.0,0.004628093971837721
787.0,0.004540313378935901
786.0,0.0043648054024501
785.0,0.004101676353562844
784.0,0.0038387066319929275
783.0,0.003707281458678491
782.0,0.0037510854308679953
781.0,0.0038387066319929275
780.0,0.003926345514724705
779.0,0.003926345514724705
778.0,0.003794893821675638
777.0,0.0035321097382827737
776.0,0.0032694845648473247
775.0,0.003050751504618754
774.0,0.003050751504618754
773.0,0.0030944893043338695
772.0,0.0032257291386954545
771.0,0.0033132443998284966
770.0,0.0033132443998284966
769.0,0.0032257291386954545
768.0,0.0030070181092942683
767.0,0.0027884171674950053
766.0,0.002613615602686581
765.0,0.002482560585275184
764.0,0.0024388843664115978
763.0,0.0025262411970197185
762.0,0.002701007590486082
761.0,0.0027884171674950053
760.0,0.0027884171674950053
759.0,0.0028758443407954637
758.0,0.003050751504618754
757.0,0.0032694845648473247
756.0,0.0034007772998332353
755.0,0.0035321097382827737
754.0,0.0036634819042162814
753.0,0.003794893821675638
752.0,0.003794893821675638
751.0,0.003707281458678491
750.0,0.003619686766589858
749.0,0.0036634819042162814
748.0,0.0037510854308679953
747.0,0.0038825238627120395
746.0,0.00401400208620073
745.0,0.004145520125434121
744.0,0.004320939488377862
743.0,0.004628093971837721
742.0,0.004979393875242044
741.0,0.00541891874010525
740.0,0.005814871797682919
739.0,0.006519680930003435
738.0,0.007844288957383316
737.0,0.010105436281226954
736.0,0.01385553528947936
735.0,0.020406104151069693
734.0,0.03161045815293173
733.0,0.047885915093007325
732.0,0.06656333217371957
731.0,0.08186477383364066
730.0,0.0881502035005799
729.0,0.08438913733853282
728.0,0.0748426728241014
727.0,0.06499684854634524
726.0,0.0582898510583536
725.0,0.05566540802921782
724.0,0.05729763111133224
723.0,0.06408986356949264
722.0,0.07711890879170658
721.0,0.09496007192378841
720.0,0.11142740314240007
719.0,0.11855827805860697
718.0,0.11339648571328764
717.0,0.09963287134352972
716.0,0.08301995267961781
715.0,0.06742477650170953
714.0,0.05453141486818014
713.0,0.04455278942230456
712.0,0.0371100126082089
711.0,0.03170388495374454
710.0,0.027797161620935595
709.0,0.02484402159331056
708.0,0.02259651912656535
707.0,0.020952673052035298
706.0,0.019632973815224997
705.0,0.01840788278591865
704.0,0.01727661233145472
703.0,0.016193358021584725
702.0,0.015202742910707112
701.0,0.014349026309051105
700.0,0.013900374944870508
699.0,0.013765869865004277
698.0,0.013765869865004277
697.0,0.013541787262693505
696.0,0.013093968619278806
695.0,0.012736045877764557
694.0,0.012557195064198723
693.0,0.012423105273012602
692.0,0.012199714248127602
691.0,0.011753276624621556
690.0,0.011307297450183107
689.0,0.010995384301463185
688.0,0.010995384301463185
687.0,0.011262724711199823
686.0,0.011530229790124524
685.0,0.011574829993696856
684.0,0.011441043121384498
683.0,0.011351874764248926
682.0,0.01117359295472431
681.0,0.01077272626946324
680.0,0.010149890396819572
679.0,0.009705553871561357
678.0,0.009483555971770974
677.0,0.009261671492462709
676.0,0.008995559669244813
675.0,0.008951223547323472
674.0,0.009128595198514056
673.0,0.009172949432521227
672.0,0.008552401996197112
671.0,0.006872514894289861
670.0,0.004277078004534696
669.0,0.0009565003968372565
668.0,-0.0011277002770349043
667.0,0.0003475746339209884
666.0,0.0031382315093266833
665.0,0.00489154225525934
664.0,0.00577085918230158
663.0,0.00621118618129457
662.0,0.006299305179649828
661.0,0.005990966876386672
660.0,0.005330978174470591
659.0,0.004408675747646695
658.0,0.0034007772998332353
657.0,0.002569926202528716
656.0,0.002351545103793873
655.0,0.0027447101798967477
654.0,0.0035321097382827737
653.0,0.004320939488377862
652.0,0.00489154225525934
651.0,0.005243055412371911
650.0,0.005155150446602086
649.0,0.004803708402820517
648.0,0.004628093971837721
647.0,0.004979393875242044
646.0,0.005506877116487674
645.0,0.005594853310833647
644.0,0.005199100705396198
643.0,0.004715892310740433
642.0,0.00458420145758498
641.0,0.00484762310854614
640.0,0.0052870145684298375
639.0,0.005858888873877532
638.0,0.006431517210272464
637.0,0.007093181776687496
636.0,0.007888512213050314
635.0,0.008818242332126802
634.0,0.009616741093766423
633.0,0.009927665307847056
632.0,0.009972101229705377
631.0,0.009838807101520963
630.0,0.009306039320248427
629.0,0.008463824699968647
628.0,0.007844288957383316
627.0,0.007755855953228474
626.0,0.007932739972333236
625.0,0.008021209005416363
624.0,0.008198201155356077
623.0,0.008818242332126802
622.0,0.00974996707218323
621.0,0.01001654169860089
620.0,0.009217308196862062
619.0,0.0075790439479759275
618.0,0.006035001804881146
617.0,0.005243055412371911
616.0,0.0052870145684298375
615.0,0.00577085918230158
614.0,0.00612308505878878
613.0,0.005990966876386672
612.0,0.005726851026829571
611.0,0.005946936412324799
610.0,0.006475596832934416
609.0,0.006828394969235152
608.0,0.007004901568658406
607.0,0.007534852191956709
606.0,0.008242460465651913
605.0,0.008330992620051436
604.0,0.007358130121602358
603.0,0.005726851026829571
602.0,0.003970171588923321
601.0,0.0023078820582733695
600.0,0.0010870956412141197
