cm-1,A
4000.0,0.008330992620051436
3999.0,0.008330992620051436
3998.0,0.008330992620051436
3997.0,0.008286724286910463
3996.0,0.008286724286910463
3995.0,0.008286724286910463
3994.0,0.008375265465994541
3993.0,0.008375265465994541
3992.0,0.008330992620051436
3991.0,0.008242460465651913
3990.0,0.008109696063975047
3989.0,0.008065450281052211
3988.0,0.008021209005416363
3987.0,0.008109696063975047
3986.0,0.008198201155356077
3985.0,0.008330992620051436
3984.0,0.008463824699968647
3983.0,0.008596697419959609
3982.0,0.008685301823389224
3981.0,0.008685301823389224
3980.0,0.008640997362049818
3979.0,0.008596697419959609
3978.0,0.00850811108984062
3977.0,0.008419542825660153
3976.0,0.008375265465994541
3975.0,0.008375265465994541
3974.0,0.008419542825660153
3973.0,0.008419542825660153
3972.0,0.008419542825660153
3971.0,0.008375265465994541
3970.0,0.008286724286910463
3969.0,0.008286724286910463
3968.0,0.008330992620051436
3967.0,0.008419542825660153
3966.0,0.008463824699968647
3965.0,0.008419542825660153
3964.0,0.008286724286910463
3963.0,0.008153946355103248
3962.0,0.008065450281052211
3961.0,0.008021209005416363
3960.0,0.008065450281052211
3959.0,0.008153946355103248
3958.0,0.008242460465651913
3957.0,0.008330992620051436
3956.0,0.008375265465994541
3955.0,0.008419542825660153
3954.0,0.008463824699968647
3953.0,0.00850811108984062
3952.0,0.008552401996197112
3951.0,0.008552401996197112
3950.0,0.00850811108984062
3949.0,0.008463824699968647
3948.0,0.008419542825660153
3947.0,0.008463824699968647
3946.0,0.00850811108984062
3945.0,0.008596697419959609
3944.0,0.008596697419959609
3943.0,0.008552401996197112
3942.0,0.008419542825660153
3941.0,0.008375265465994541
3940.0,0.008419542825660153
3939.0,0.008463824699968647
3938.0,0.00850811108984062
3937.0,0.008552401996197112
3936.0,0.008552401996197112
3935.0,0.008552401996197112
3934.0,0.008463824699968647
3933.0,0.008419542825660153
3932.0,0.008375265465994541
3931.0,0.008375265465994541
3930.0,0.008375265465994541
3929.0,0.008375265465994541
3928.0,0.008375265465994541
3927.0,0.008375265465994541
3926.0,0.008286724286910463
3925.0,0.008242460465651913
3924.0,0.008286724286910463
3923.0,0.008419542825660153
3922.0,0.00850811108984062
3921.0,0.00850811108984062
3920.0,0.008552401996197112
3919.0,0.008640997362049818
3918.0,0.008685301823389224
3917.0,0.008685301823389224
3916.0,0.008685301823389224
3915.0,0.0087296108049002
3914.0,0.008818242332126802
3913.0,0.008862564879688284
3912.0,0.008818242332126802
3911.0,0.0087296108049002
3910.0,0.008596697419959609
3909.0,0.00850811108984062
3908.0,0.008463824699968647
3907.0,0.008552401996197112
3906.0,0.008596697419959609
3905.0,0.008552401996197112
3904.0,0.008463824699968647
3903.0,0.00850811108984062
3902.0,0.008596697419959609
3901.0,0.008685301823389224
3900.0,0.008685301823389224
3899.0,0.008596697419959609
3898.0,0.008552401996197112
3897.0,0.00850811108984062
3896.0,0.00850811108984062
3895.0,0.008596697419959609
3894.0,0.008685301823389224
3893.0,0.0087296108049002
3892.0,0.008685301823389224
3891.0,0.008463824699968647
3890.0,0.008375265465994541
3889.0,0.00850811108984062
3888.0,0.008685301823389224
3887.0,0.008640997362049818
3886.0,0.008463824699968647
3885.0,0.008419542825660153
3884.0,0.008596697419959609
3883.0,0.008773924307505121
3882.0,0.0087296108049002
3881.0,0.00850811108984062
3880.0,0.008286724286910463
3879.0,0.008242460465651913
3878.0,0.008330992620051436
3877.0,0.00850811108984062
3876.0,0.008463824699968647
3875.0,0.008330992620051436
3874.0,0.008242460465651913
3873.0,0.008419542825660153
3872.0,0.008640997362049818
3871.0,0.008640997362049818
3870.0,0.008463824699968647
3869.0,0.008375265465994541
3868.0,0.00850811108984062
3867.0,0.008552401996197112
3866.0,0.008419542825660153
3865.0,0.008242460465651913
3864.0,0.008330992620051436
3863.0,0.00850811108984062
3862.0,0.00850811108984062
3861.0,0.008330992620051436
3860.0,0.008065450281052211
3859.0,0.007888512213050314
3858.0,0.007844288957383316
3857.0,0.007976972236149349
3856.0,0.008109696063975047
3855.0,0.008021209005416363
3854.0,0.007976972236149349
3853.0,0.008109696063975047
3852.0,0.008375265465994541
3851.0,0.008640997362049818
3850.0,0.008773924307505121
3849.0,0.0087296108049002
3848.0,0.008640997362049818
3847.0,0.008552401996197112
3846.0,0.008463824699968647
3845.0,0.008375265465994541
3844.0,0.008242460465651913
3843.0,0.008153946355103248
3842.0,0.008153946355103248
3841.0,0.008198201155356077
3840.0,0.008198201155356077
3839.0,0.008198201155356077
3838.0,0.008242460465651913
3837.0,0.008330992620051436
3836.0,0.008419542825660153
3835.0,0.008552401996197112
3834.0,0.008640997362049818
3833.0,0.008685301823389224
3832.0,0.008640997362049818
3831.0,0.008640997362049818
3830.0,0.0087296108049002
3829.0,0.008773924307505121
3828.0,0.008685301823389224
3827.0,0.008463824699968647
3826.0,0.008286724286910463
3825.0,0.008330992620051436
3824.0,0.00850811108984062
3823.0,0.008552401996197112
3822.0,0.008286724286910463
3821.0,0.008065450281052211
3820.0,0.008065450281052211
3819.0,0.008330992620051436
3818.0,0.00850811108984062
3817.0,0.008419542825660153
3816.0,0.008286724286910463
3815.0,0.008330992620051436
3814.0,0.008463824699968647
3813.0,0.008552401996197112
3812.0,0.008463824699968647
3811.0,0.008419542825660153
3810.0,0.008463824699968647
3809.0,0.008419542825660153
3808.0,0.008198201155356077
3807.0,0.007932739972333236
3806.0,0.007844288957383316
3805.0,0.008109696063975047
3804.0,0.008375265465994541
3803.0,0.008419542825660153
3802.0,0.008330992620051436
3801.0,0.008330992620051436
3800.0,0.008463824699968647
3799.0,0.008640997362049818
3798.0,0.008640997362049818
3797.0,0.008552401996197112
3796.0,0.00850811108984062
3795.0,0.008640997362049818
3794.0,0.008773924307505121
3793.0,0.008818242332126802
3792.0,0.008818242332126802
3791.0,0.0087296108049002
3790.0,0.008685301823389224
3789.0,0.008640997362049818
3788.0,0.008596697419959609
3787.0,0.008640997362049818
3786.0,0.008685301823389224
3785.0,0.008685301823389224
3784.0,0.008685301823389224
3783.0,0.0087296108049002
3782.0,0.0087296108049002
3781.0,0.008685301823389224
3780.0,0.008596697419959609
3779.0,0.008596697419959609
3778.0,0.008685301823389224
3777.0,0.0087296108049002
3776.0,0.008685301823389224
3775.0,0.008596697419959609
3774.0,0.008552401996197112
3773.0,0.008640997362049818
3772.0,0.008685301823389224
3771.0,0.008685301823389224
3770.0,0.008640997362049818
3769.0,0.008640997362049818
3768.0,0.0087296108049002
3767.0,0.0087296108049002
3766.0,0.008640997362049818
3765.0,0.008596697419959609
3764.0,0.008596697419959609
3763.0,0.008685301823389224
3762.0,0.008685301823389224
3761.0,0.008596697419959609
3760.0,0.008596697419959609
3759.0,0.008640997362049818
3758.0,0.008640997362049818
3757.0,0.008463824699968647
3756.0,0.008330992620051436
3755.0,0.008153946355103248
3754.0,0.007888512213050314
3753.0,0.007534852191956709
3752.0,0.0074464821678643656
3751.0,0.00762324020119709
3750.0,0.007711646202907652
3749.0,0.007667440952535687
3748.0,0.007800070204414977
3747.0,0.008065450281052211
3746.0,0.008021209005416363
3745.0,0.007711646202907652
3744.0,0.00762324020119709
3743.0,0.007888512213050314
3742.0,0.008198201155356077
3741.0,0.008330992620051436
3740.0,0.008242460465651913
3739.0,0.008109696063975047
3738.0,0.007976972236149349
3737.0,0.007844288957383316
3736.0,0.007932739972333236
3735.0,0.008242460465651913
3734.0,0.008596697419959609
3733.0,0.008596697419959609
3732.0,0.008375265465994541
3731.0,0.008198201155356077
3730.0,0.008198201155356077
3729.0,0.008330992620051436
3728.0,0.008375265465994541
3727.0,0.008330992620051436
3726.0,0.008286724286910463
3725.0,0.008286724286910463
3724.0,0.008242460465651913
3723.0,0.008242460465651913
3722.0,0.008286724286910463
3721.0,0.008375265465994541
3720.0,0.00850811108984062
3719.0,0.008552401996197112
3718.0,0.00850811108984062
3717.0,0.008463824699968647
3716.0,0.008463824699968647
3715.0,0.00850811108984062
3714.0,0.008463824699968647
3713.0,0.008463824699968647
3712.0,0.008596697419959609
3711.0,0.008818242332126802
3710.0,0.008906891951112605
3709.0,0.008862564879688284
3708.0,0.008685301823389224
3707.0,0.008552401996197112
3706.0,0.00850811108984062
3705.0,0.008596697419959609
3704.0,0.008685301823389224
3703.0,0.0087296108049002
3702.0,0.0087296108049002
3701.0,0.008640997362049818
3700.0,0.008596697419959609
3699.0,0.00850811108984062
3698.0,0.008419542825660153
3697.0,0.008286724286910463
3696.0,0.008198201155356077
3695.0,0.008242460465651913
3694.0,0.008286724286910463
3693.0,0.008330992620051436
3692.0,0.008419542825660153
3691.0,0.00850811108984062
3690.0,0.008596697419959609
3689.0,0.008552401996197112
3688.0,0.008419542825660153
3687.0,0.008419542825660153
3686.0,0.00850811108984062
3685.0,0.008552401996197112
3684.0,0.00850811108984062
3683.0,0.008463824699968647
3682.0,0.008375265465994541
3681.0,0.008242460465651913
3680.0,0.008153946355103248
3679.0,0.008198201155356077
3678.0,0.008375265465994541
3677.0,0.008419542825660153
3676.0,0.008375265465994541
3675.0,0.008375265465994541
3674.0,0.008463824699968647
3673.0,0.008640997362049818
3672.0,0.008685301823389224
3671.0,0.008552401996197112
3670.0,0.008640997362049818
3669.0,0.008906891951112605
3668.0,0.009128595198514056
3667.0,0.009261671492462709
3666.0,0.009306039320248427
3665.0,0.009217308196862062
3664.0,0.009128595198514056
3663.0,0.008995559669244813
3662.0,0.008906891951112605
3661.0,0.008818242332126802
3660.0,0.008862564879688284
3659.0,0.008951223547323472
3658.0,0.008995559669244813
3657.0,0.008862564879688284
3656.0,0.0087296108049002
3655.0,0.008685301823389224
3654.0,0.008773924307505121
3653.0,0.008862564879688284
3652.0,0.008862564879688284
3651.0,0.008951223547323472
3650.0,0.00939478857608056
3649.0,0.009838807101520963
3648.0,0.009883233932095559
3647.0,0.00966114521239847
3646.0,0.00939478857608056
3645.0,0.009261671492462709
3644.0,0.009217308196862062
3643.0,0.009172949432521227
3642.0,0.009172949432521227
3641.0,0.009172949432521227
3640.0,0.00908424549391551
3639.0,0.008951223547323472
3638.0,0.008818242332126802
3637.0,0.008773924307505121
3636.0,0.008773924307505121
3635.0,0.008773924307505121
3634.0,0.008685301823389224
3633.0,0.0087296108049002
3632.0,0.008906891951112605
3631.0,0.008951223547323472
3630.0,0.0087296108049002
3629.0,0.008640997362049818
3628.0,0.008685301823389224
3627.0,0.008773924307505121
3626.0,0.008862564879688284
3625.0,0.008906891951112605
3624.0,0.008906891951112605
3623.0,0.008995559669244813
3622.0,0.00908424549391551
3621.0,0.009172949432521227
3620.0,0.009172949432521227
3619.0,0.009172949432521227
3618.0,0.009128595198514056
3617.0,0.00908424549391551
3616.0,0.009039900317800775
3615.0,0.008995559669244813
3614.0,0.009039900317800775
3613.0,0.009217308196862062
3612.0,0.00939478857608056
3611.0,0.009527946474380489
3610.0,0.009572341514736404
3609.0,0.009572341514736404
3608.0,0.009705553871561357
3607.0,0.009883233932095559
3606.0,0.009972101229705377
3605.0,0.009927665307847056
3604.0,0.009794384815193347
3603.0,0.00966114521239847
3602.0,0.009616741093766423
3601.0,0.00966114521239847
3600.0,0.00974996707218323
3599.0,0.00974996707218323
3598.0,0.009705553871561357
3597.0,0.009616741093766423
3596.0,0.009572341514736404
3595.0,0.009572341514736404
3594.0,0.009527946474380489
3593.0,0.009483555971770974
3592.0,0.009483555971770974
3591.0,0.009439170005980158
3590.0,0.00939478857608056
3589.0,0.009350411681145587
3588.0,0.009350411681145587
3587.0,0.00939478857608056
3586.0,0.009350411681145587
3585.0,0.009306039320248427
3584.0,0.009217308196862062
3583.0,0.009128595198514056
3582.0,0.00908424549391551
3581.0,0.009128595198514056
3580.0,0.009217308196862062
3579.0,0.00939478857608056
3578.0,0.009572341514736404
3577.0,0.009705553871561357
3576.0,0.00974996707218323
3575.0,0.009705553871561357
3574.0,0.009616741093766423
3573.0,0.009483555971770974
3572.0,0.009350411681145587
3571.0,0.009261671492462709
3570.0,0.009306039320248427
3569.0,0.009350411681145587
3568.0,0.009483555971770974
3567.0,0.009616741093766423
3566.0,0.009705553871561357
3565.0,0.00966114521239847
3564.0,0.009527946474380489
3563.0,0.009350411681145587
3562.0,0.009172949432521227
3561.0,0.009128595198514056
3560.0,0.009128595198514056
3559.0,0.009172949432521227
3558.0,0.009217308196862062
3557.0,0.009261671492462709
3556.0,0.009306039320248427
3555.0,0.009350411681145587
3554.0,0.00939478857608056
3553.0,0.009439170005980158
3552.0,0.009439170005980158
3551.0,0.009483555971770974
3550.0,0.009572341514736404
3549.0,0.00966114521239847
3548.0,0.00966114521239847
3547.0,0.00966114521239847
3546.0,0.009616741093766423
3545.0,0.009572341514736404
3544.0,0.009527946474380489
3543.0,0.009483555971770974
3542.0,0.009439170005980158
3541.0,0.00939478857608056
3540.0,0.00939478857608056
3539.0,0.00939478857608056
3538.0,0.00939478857608056
3537.0,0.00939478857608056
3536.0,0.009439170005980158
3535.0,0.009483555971770974
3534.0,0.009527946474380489
3533.0,0.009527946474380489
3532.0,0.009483555971770974
3531.0,0.00939478857608056
3530.0,0.009350411681145587
3529.0,0.009306039320248427
3528.0,0.009306039320248427
3527.0,0.009306039320248427
3526.0,0.009306039320248427
3525.0,0.009350411681145587
3524.0,0.009350411681145587
3523.0,0.00939478857608056
3522.0,0.00939478857608056
3521.0,0.009439170005980158
3520.0,0.009439170005980158
3519.0,0.009439170005980158
3518.0,0.00939478857608056
3517.0,0.00939478857608056
3516.0,0.009439170005980158
3515.0,0.009483555971770974
3514.0,0.009527946474380489
3513.0,0.009483555971770974
3512.0,0.009439170005980158
3511.0,0.00939478857608056
3510.0,0.009350411681145587
3509.0,0.00939478857608056
3508.0,0.00939478857608056
3507.0,0.00939478857608056
3506.0,0.009439170005980158
3505.0,0.009572341514736404
3504.0,0.009705553871561357
3503.0,0.009794384815193347
3502.0,0.009705553871561357
3501.0,0.009572341514736404
3500.0,0.00939478857608056
3499.0,0.009350411681145587
3498.0,0.009439170005980158
3497.0,0.009572341514736404
3496.0,0.00966114521239847
3495.0,0.009705553871561357
3494.0,0.00966114521239847
3493.0,0.009616741093766423
3492.0,0.009572341514736404
3491.0,0.009527946474380489
3490.0,0.009572341514736404
3489.0,0.00966114521239847
3488.0,0.009705553871561357
3487.0,0.009705553871561357
3486.0,0.00966114521239847
3485.0,0.009572341514736404
3484.0,0.009527946474380489
3483.0,0.009527946474380489
3482.0,0.009572341514736404
3481.0,0.009572341514736404
3480.0,0.009527946474380489
3479.0,0.009483555971770974
3478.0,0.009483555971770974
3477.0,0.009527946474380489
3476.0,0.009616741093766423
3475.0,0.009616741093766423
3474.0,0.009572341514736404
3473.0,0.009527946474380489
3472.0,0.009483555971770974
3471.0,0.009439170005980158
3470.0,0.009439170005980158
3469.0,0.009439170005980158
3468.0,0.00939478857608056
3467.0,0.00939478857608056
3466.0,0.009439170005980158
3465.0,0.009483555971770974
3464.0,0.009572341514736404
3463.0,0.00966114521239847
3462.0,0.009616741093766423
3461.0,0.009527946474380489
3460.0,0.009439170005980158
3459.0,0.00939478857608056
3458.0,0.009350411681145587
3457.0,0.00939478857608056
3456.0,0.009483555971770974
3455.0,0.009527946474380489
3454.0,0.009572341514736404
3453.0,0.009616741093766423
3452.0,0.009572341514736404
3451.0,0.009483555971770974
3450.0,0.009439170005980158
3449.0,0.009483555971770974
3448.0,0.009527946474380489
3447.0,0.009616741093766423
3446.0,0.009705553871561357
3445.0,0.00974996707218323
3444.0,0.009794384815193347
3443.0,0.00974996707218323
3442.0,0.00966114521239847
3441.0,0.009572341514736404
3440.0,0.009527946474380489
3439.0,0.009527946474380489
3438.0,0.009572341514736404
3437.0,0.009616741093766423
3436.0,0.009705553871561357
3435.0,0.00974996707218323
3434.0,0.009794384815193347
3433.0,0.00974996707218323
3432.0,0.009705553871561357
3431.0,0.009616741093766423
3430.0,0.009527946474380489
3429.0,0.009439170005980158
3428.0,0.00939478857608056
3427.0,0.00939478857608056
3426.0,0.009350411681145587
3425.0,0.009306039320248427
3424.0,0.009261671492462709
3423.0,0.009306039320248427
3422.0,0.00939478857608056
3421.0,0.009483555971770974
3420.0,0.009483555971770974
3419.0,0.009439170005980158
3418.0,0.009350411681145587
3417.0,0.009350411681145587
3416.0,0.00939478857608056
3415.0,0.009483555971770974
3414.0,0.009527946474380489
3413.0,0.009572341514736404
3412.0,0.009527946474380489
3411.0,0.009439170005980158
3410.0,0.00939478857608056
3409.0,0.009350411681145587
3408.0,0.009350411681145587
3407.0,0.00939478857608056
3406.0,0.009439170005980158
3405.0,0.009439170005980158
3404.0,0.009439170005980158
3403.0,0.009483555971770974
3402.0,0.009572341514736404
3401.0,0.00966114521239847
3400.0,0.009705553871561357
3399.0,0.009705553871561357
3398.0,0.009616741093766423
3397.0,0.009483555971770974
3396.0,0.00939478857608056
3395.0,0.00939478857608056
3394.0,0.009439170005980158
3393.0,0.009483555971770974
3392.0,0.009572341514736404
3391.0,0.009572341514736404
3390.0,0.009527946474380489
3389.0,0.00939478857608056
3388.0,0.009306039320248427
3387.0,0.009261671492462709
3386.0,0.009261671492462709
3385.0,0.009261671492462709
3384.0,0.009261671492462709
3383.0,0.009261671492462709
3382.0,0.009306039320248427
3381.0,0.009306039320248427
3380.0,0.00939478857608056
3379.0,0.009439170005980158
3378.0,0.009439170005980158
3377.0,0.009350411681145587
3376.0,0.009261671492462709
3375.0,0.009172949432521227
3374.0,0.00908424549391551
3373.0,0.00908424549391551
3372.0,0.00908424549391551
3371.0,0.009128595198514056
3370.0,0.009128595198514056
3369.0,0.009128595198514056
3368.0,0.00908424549391551
3367.0,0.009039900317800775
3366.0,0.00908424549391551
3365.0,0.009217308196862062
3364.0,0.009350411681145587
3363.0,0.009439170005980158
3362.0,0.009439170005980158
3361.0,0.009483555971770974
3360.0,0.009483555971770974
3359.0,0.009527946474380489
3358.0,0.009527946474380489
3357.0,0.009483555971770974
3356.0,0.00939478857608056
3355.0,0.009306039320248427
3354.0,0.009172949432521227
3353.0,0.00908424549391551
3352.0,0.009039900317800775
3351.0,0.009039900317800775
3350.0,0.00908424549391551
3349.0,0.009128595198514056
3348.0,0.009128595198514056
3347.0,0.009172949432521227
3346.0,0.009217308196862062
3345.0,0.009217308196862062
3344.0,0.009261671492462709
3343.0,0.009217308196862062
3342.0,0.009217308196862062
3341.0,0.009217308196862062
3340.0,0.009217308196862062
3339.0,0.009217308196862062
3338.0,0.009217308196862062
3337.0,0.009172949432521227
3336.0,0.009128595198514056
3335.0,0.009128595198514056
3334.0,0.00908424549391551
3333.0,0.00908424549391551
3332.0,0.008995559669244813
3331.0,0.008951223547323472
3330.0,0.008862564879688284
3329.0,0.008862564879688284
3328.0,0.008906891951112605
3327.0,0.008951223547323472
3326.0,0.008995559669244813
3325.0,0.009039900317800775
3324.0,0.009039900317800775
3323.0,0.008951223547323472
3322.0,0.008818242332126802
3321.0,0.0087296108049002
3320.0,0.008596697419959609
3319.0,0.00850811108984062
3318.0,0.008463824699968647
3317.0,0.008375265465994541
3316.0,0.008375265465994541
3315.0,0.008463824699968647
3314.0,0.008640997362049818
3313.0,0.008773924307505121
3312.0,0.008906891951112605
3311.0,0.008906891951112605
3310.0,0.008862564879688284
3309.0,0.008773924307505121
3308.0,0.008685301823389224
3307.0,0.008596697419959609
3306.0,0.008596697419959609
3305.0,0.008640997362049818
3304.0,0.0087296108049002
3303.0,0.008773924307505121
3302.0,0.008773924307505121
3301.0,0.0087296108049002
3300.0,0.008685301823389224
3299.0,0.008640997362049818
3298.0,0.008640997362049818
3297.0,0.008596697419959609
3296.0,0.008596697419959609
3295.0,0.008640997362049818
3294.0,0.008685301823389224
3293.0,0.008773924307505121
3292.0,0.008818242332126802
3291.0,0.008773924307505121
3290.0,0.008685301823389224
3289.0,0.008596697419959609
3288.0,0.008463824699968647
3287.0,0.008419542825660153
3286.0,0.008375265465994541
3285.0,0.008375265465994541
3284.0,0.008375265465994541
3283.0,0.008375265465994541
3282.0,0.008330992620051436
3281.0,0.008375265465994541
3280.0,0.008419542825660153
3279.0,0.008463824699968647
3278.0,0.008463824699968647
3277.0,0.008463824699968647
3276.0,0.008419542825660153
3275.0,0.008419542825660153
3274.0,0.008375265465994541
3273.0,0.008419542825660153
3272.0,0.008463824699968647
3271.0,0.00850811108984062
3270.0,0.008552401996197112
3269.0,0.00850811108984062
3268.0,0.008463824699968647
3267.0,0.008419542825660153
3266.0,0.008375265465994541
3265.0,0.008375265465994541
3264.0,0.008375265465994541
3263.0,0.008330992620051436
3262.0,0.008330992620051436
3261.0,0.008330992620051436
3260.0,0.008330992620051436
3259.0,0.008286724286910463
3258.0,0.008198201155356077
3257.0,0.008109696063975047
3256.0,0.008065450281052211
3255.0,0.008021209005416363
3254.0,0.008021209005416363
3253.0,0.008021209005416363
3252.0,0.008021209005416363
3251.0,0.008065450281052211
3250.0,0.008153946355103248
3249.0,0.008242460465651913
3248.0,0.008286724286910463
3247.0,0.008375265465994541
3246.0,0.008330992620051436
3245.0,0.008198201155356077
3244.0,0.008021209005416363
3243.0,0.007844288957383316
3242.0,0.007755855953228474
3241.0,0.007755855953228474
3240.0,0.007800070204414977
3239.0,0.007800070204414977
3238.0,0.007755855953228474
3237.0,0.007755855953228474
3236.0,0.007800070204414977
3235.0,0.007888512213050314
3234.0,0.007932739972333236
3233.0,0.007976972236149349
3232.0,0.007888512213050314
3231.0,0.007800070204414977
3230.0,0.007755855953228474
3229.0,0.007711646202907652
3228.0,0.007755855953228474
3227.0,0.007800070204414977
3226.0,0.007800070204414977
3225.0,0.007755855953228474
3224.0,0.007711646202907652
3223.0,0.007755855953228474
3222.0,0.007800070204414977
3221.0,0.007888512213050314
3220.0,0.007976972236149349
3219.0,0.008021209005416363
3218.0,0.008021209005416363
3217.0,0.008021209005416363
3216.0,0.007932739972333236
3215.0,0.007800070204414977
3214.0,0.007667440952535687
3213.0,0.0075790439479759275
3212.0,0.0075790439479759275
3211.0,0.00762324020119709
3210.0,0.007667440952535687
3209.0,0.007711646202907652
3208.0,0.007711646202907652
3207.0,0.007667440952535687
3206.0,0.0075790439479759275
3205.0,0.007490664932224611
3204.0,0.0074464821678643656
3203.0,0.0074464821678643656
3202.0,0.007490664932224611
3201.0,0.00762324020119709
3200.0,0.007711646202907652
3199.0,0.007755855953228474
3198.0,0.007711646202907652
3197.0,0.00762324020119709
3196.0,0.007490664932224611
3195.0,0.007269796045857202
3194.0,0.007049039429553483
3193.0,0.006916639301937977
3192.0,0.006784279525863024
3191.0,0.006784279525863024
3190.0,0.006872514894289861
3189.0,0.007004901568658406
3188.0,0.007137328610972382
3187.0,0.007225635744644521
3186.0,0.007225635744644521
3185.0,0.007181479933320523
3184.0,0.007137328610972382
3183.0,0.007093181776687496
3182.0,0.007093181776687496
3181.0,0.007093181776687496
3180.0,0.007137328610972382
3179.0,0.007137328610972382
3178.0,0.007137328610972382
3177.0,0.007137328610972382
3176.0,0.007093181776687496
3175.0,0.007049039429553483
3174.0,0.007004901568658406
3173.0,0.006916639301937977
3172.0,0.006916639301937977
3171.0,0.006872514894289861
3170.0,0.006916639301937977
3169.0,0.006916639301937977
3168.0,0.007004901568658406
3167.0,0.007093181776687496
3166.0,0.007137328610972382
3165.0,0.007093181776687496
3164.0,0.00696076819309055
3163.0,0.006828394969235152
3162.0,0.006740168563263094
3161.0,0.006740168563263094
3160.0,0.006784279525863024
3159.0,0.006740168563263094
3158.0,0.006696062080525422
3157.0,0.006651960076740071
3156.0,0.006651960076740071
3155.0,0.006696062080525422
3154.0,0.006784279525863024
3153.0,0.006872514894289861
3152.0,0.006872514894289861
3151.0,0.006784279525863024
3150.0,0.006696062080525422
3149.0,0.00656376950238835
3148.0,0.006387442061109638
3147.0,0.00625524344553785
3146.0,0.006167133386013823
3145.0,0.00612308505878878
3144.0,0.006167133386013823
3143.0,0.00621118618129457
3142.0,0.00625524344553785
3141.0,0.00625524344553785
3140.0,0.00625524344553785
3139.0,0.006167133386013823
3138.0,0.00612308505878878
3137.0,0.00612308505878878
3136.0,0.00612308505878878
3135.0,0.006167133386013823
3134.0,0.006167133386013823
3133.0,0.00612308505878878
3132.0,0.006079041198713275
3131.0,0.006079041198713275
3130.0,0.006079041198713275
3129.0,0.006079041198713275
3128.0,0.006035001804881146
3127.0,0.005990966876386672
3126.0,0.005858888873877532
3125.0,0.00577085918230158
3124.0,0.005726851026829571
3123.0,0.005726851026829571
3122.0,0.005814871797682919
3121.0,0.005858888873877532
3120.0,0.005814871797682919
3119.0,0.00577085918230158
3118.0,0.005682847330363394
3117.0,0.005726851026829571
3116.0,0.005726851026829571
3115.0,0.005726851026829571
3114.0,0.005682847330363394
3113.0,0.005638848091999105
3112.0,0.005550862985963967
3111.0,0.005506877116487674
3110.0,0.005506877116487674
3109.0,0.005594853310833647
3108.0,0.005682847330363394
3107.0,0.005814871797682919
3106.0,0.005858888873877532
3105.0,0.005858888873877532
3104.0,0.00577085918230158
3103.0,0.005726851026829571
3102.0,0.005726851026829571
3101.0,0.00577085918230158
3100.0,0.00577085918230158
3099.0,0.005726851026829571
3098.0,0.005726851026829571
3097.0,0.00577085918230158
3096.0,0.005858888873877532
3095.0,0.005946936412324799
3094.0,0.005990966876386672
3093.0,0.006035001804881146
3092.0,0.006079041198713275
3091.0,0.006079041198713275
3090.0,0.00612308505878878
3089.0,0.006079041198713275
3088.0,0.006035001804881146
3087.0,0.005990966876386672
3086.0,0.005946936412324799
3085.0,0.005946936412324799
3084.0,0.005990966876386672
3083.0,0.006035001804881146
3082.0,0.006079041198713275
3081.0,0.00612308505878878
3080.0,0.00612308505878878
3079.0,0.006035001804881146
3078.0,0.005858888873877532
3077.0,0.005726851026829571
3076.0,0.005638848091999105
3075.0,0.005594853310833647
3074.0,0.005594853310833647
3073.0,0.005638848091999105
3072.0,0.005638848091999105
3071.0,0.005594853310833647
3070.0,0.005550862985963967
3069.0,0.005506877116487674
3068.0,0.005506877116487674
3067.0,0.005506877116487674
3066.0,0.005462895701502157
3065.0,0.005506877116487674
3064.0,0.005506877116487674
3063.0,0.005506877116487674
3062.0,0.005462895701502157
3061.0,0.00541891874010525
3060.0,0.00541891874010525
3059.0,0.005462895701502157
3058.0,0.005506877116487674
3057.0,0.005506877116487674
3056.0,0.00541891874010525
3055.0,0.005330978174470591
3054.0,0.005243055412371911
3053.0,0.005243055412371911
3052.0,0.0052870145684298375
3051.0,0.005330978174470591
3050.0,0.00537494623139545
3049.0,0.00537494623139545
3048.0,0.005330978174470591
3047.0,0.0052870145684298375
3046.0,0.005243055412371911
3045.0,0.005243055412371911
3044.0,0.005243055412371911
3043.0,0.005243055412371911
3042.0,0.005243055412371911
3041.0,0.005243055412371911
3040.0,0.005243055412371911
3039.0,0.005243055412371911
3038.0,0.005199100705396198
3037.0,0.005155150446602086
3036.0,0.005111204635089406
3035.0,0.005067263269958211
3034.0,0.005067263269958211
3033.0,0.005023326350308999
3032.0,0.004979393875242044
3031.0,0.004935465843858511
3030.0,0.004935465843858511
3029.0,0.004979393875242044
3028.0,0.004935465843858511
3027.0,0.00489154225525934
3026.0,0.004803708402820517
3025.0,0.004759798137184523
3024.0,0.004759798137184523
3023.0,0.004715892310740433
3022.0,0.004628093971837721
3021.0,0.004540313378935901
3020.0,0.0044964297349936455
3019.0,0.004452550524862486
3018.0,0.004452550524862486
3017.0,0.0044964297349936455
3016.0,0.004540313378935901
3015.0,0.0044964297349936455
3014.0,0.004452550524862486
3013.0,0.004408675747646695
3012.0,0.0043648054024501
3011.0,0.004320939488377862
3010.0,0.004277078004534696
3009.0,0.004189368323957332
3008.0,0.004145520125434121
3007.0,0.004101676353562844
3006.0,0.0040578370074493275
3005.0,0.00401400208620073
3004.0,0.003970171588923321
3003.0,0.003926345514724705
3002.0,0.0038387066319929275
3001.0,0.003794893821675638
3000.0,0.003707281458678491
2999.0,0.0036634819042162814
2998.0,0.003619686766589858
2997.0,0.0035758960449088217
2996.0,0.0035321097382827737
2995.0,0.0035321097382827737
2994.0,0.0035758960449088217
2993.0,0.003619686766589858
2992.0,0.0036634819042162814
2991.0,0.0036634819042162814
2990.0,0.003619686766589858
2989.0,0.003619686766589858
2988.0,0.003619686766589858
2987.0,0.0036634819042162814
2986.0,0.0037510854308679953
2985.0,0.0038387066319929275
2984.0,0.0038825238627120395
2983.0,0.0038825238627120395
2982.0,0.003926345514724705
2981.0,0.00401400208620073
2980.0,0.004145520125434121
2979.0,0.004277078004534696
2978.0,0.0043648054024501
2977.0,0.0044964297349936455
2976.0,0.004628093971837721
2975.0,0.00484762310854614
2974.0,0.005067263269958211
2973.0,0.005330978174470591
2972.0,0.005594853310833647
2971.0,0.00590291041179003
2970.0,0.00621118618129457
2969.0,0.006519680930003435
2968.0,0.006872514894289861
2967.0,0.007269796045857202
2966.0,0.007711646202907652
2965.0,0.008153946355103248
2964.0,0.008685301823389224
2963.0,0.009128595198514056
2962.0,0.009616741093766423
2961.0,0.010060986715464404
2960.0,0.010550182333308289
2959.0,0.010995384301463185
2958.0,0.011396456654336085
2957.0,0.011797899741219142
2956.0,0.012244383261476699
2955.0,0.01264661126420652
2954.0,0.013093968619278806
2953.0,0.013586594534531482
2952.0,0.014124642691606404
2951.0,0.014798141635428141
2950.0,0.015607721475734415
2949.0,0.016599261819461697
2948.0,0.01781925440359733
2947.0,0.019315025636685412
2946.0,0.021043834782408455
2945.0,0.02300845469384938
2944.0,0.02521206778644225
2943.0,0.027658283674251827
2942.0,0.030351159519274695
2941.0,0.03334211579824231
2940.0,0.03663723389626394
2939.0,0.040243327009005014
2938.0,0.04426415772233416
2937.0,0.04866248120408234
2936.0,0.0534986094304124
2935.0,0.058737090681050264
2934.0,0.06429125215733666
2933.0,0.0702746216219956
2932.0,0.07670415934449615
2931.0,0.08359869639612438
2930.0,0.09097914578884403
2929.0,0.0989778267519208
2928.0,0.10768273927751948
2927.0,0.11724784438692004
2926.0,0.1277271537757949
2925.0,0.13918303613546223
2924.0,0.1515645446685292
2923.0,0.16475346000368907
2922.0,0.17842097208799124
2921.0,0.1919917000896001
2920.0,0.20467623567068616
2919.0,0.21566805197785177
2918.0,0.2240256688706308
2917.0,0.22922160383085233
2916.0,0.23091821288178105
2915.0,0.22951619056889205
2914.0,0.22555603107503486
2913.0,0.2198267563574059
2912.0,0.2128939069634299
2911.0,0.20537255533549192
2910.0,0.1976368256904526
2909.0,0.19017103893211385
2908.0,0.18302996224270052
2907.0,0.176525770829699
2906.0,0.17056756638240134
2905.0,0.16513442009996204
2904.0,0.1603334431175667
2903.0,0.15614457737683884
2902.0,0.15242734085788778
2901.0,0.14898639317633
2900.0,0.14575470293388149
2899.0,0.14260718907909875
2898.0,0.13960209487268727
2897.0,0.13673663634951905
2896.0,0.13394907599072514
2895.0,0.1311205537629121
2894.0,0.1282519810081284
2893.0,0.12522836281570182
2892.0,0.12211057462851604
2891.0,0.11884367892443626
2890.0,0.11560117444331386
2889.0,0.11232644754555254
2888.0,0.10907622851098608
2887.0,0.10579474085791629
2886.0,0.10242788617426934
2885.0,0.09903237608087578
2884.0,0.09560907998763835
2883.0,0.09205147838772776
2882.0,0.0885227828938977
2881.0,0.08502252755566908
2880.0,0.08149786036382611
2879.0,0.07805354577058976
2878.0,0.07473949048056472
2877.0,0.07155293679081787
2876.0,0.06859298644342648
2875.0,0.0658551882075229
2874.0,0.06343599486473406
2873.0,0.06128018521761747
2872.0,0.05938391766259232
2871.0,0.057743849580535134
2870.0,0.05635711724787096
2869.0,0.055270639696704205
2868.0,0.05458065739693696
2867.0,0.05438372077326825
2866.0,0.054679159207724926
2865.0,0.055566682299785564
2864.0,0.05709945885970602
2863.0,0.05938391766259232
2862.0,0.06258241852286206
2861.0,0.06681652082538614
2860.0,0.07227044022834539
2859.0,0.079094395835976
2858.0,0.08735289378168276
2857.0,0.09739886933346864
2856.0,0.10935546370475246
2855.0,0.1236666709136196
2854.0,0.1404414273739465
2853.0,0.15926676538819318
2852.0,0.17920761891179637
2851.0,0.1981162928747604
2850.0,0.21324857785443885
2849.0,0.22213837582375806
2848.0,0.22373478173189043
2847.0,0.21867554433301217
2846.0,0.2087305190897315
2845.0,0.19572423287090612
2844.0,0.18137827362411096
2843.0,0.16685288808721488
2842.0,0.15310645668337486
2841.0,0.14068153490288382
2840.0,0.12977172098820566
2839.0,0.1203880929341492
2838.0,0.11227020271196975
2837.0,0.10529634739076998
2836.0,0.09930522554760213
2835.0,0.09409623378338305
2834.0,0.08953568400438638
2833.0,0.0854453014823664
2832.0,0.08186477383364066
2831.0,0.07872981449018734
2830.0,0.07587584681417514
2829.0,0.07334892291111106
2828.0,0.0710411591191702
2827.0,0.06894915322260897
2826.0,0.06706985716921054
2825.0,0.0653500770992892
2824.0,0.06373765809652254
2823.0,0.062331685600995
2822.0,0.06098022355133348
2821.0,0.05968277842578207
2820.0,0.0583891978463662
2819.0,0.0571489934456626
2818.0,0.05601112492622806
2817.0,0.05502409158795207
2816.0,0.05413767551038262
2815.0,0.05330216275425803
2814.0,0.052468254304406825
2813.0,0.051684859310652254
2812.0,0.050902874887084115
2811.0,0.05012229596312534
2810.0,0.04939177521576932
2809.0,0.04871106272232795
2808.0,0.047982909952573705
2807.0,0.04730440041308315
2806.0,0.04662694927330402
2805.0,0.04595055323640551
2804.0,0.04537162249272897
2803.0,0.04484161307420642
2802.0,0.044360346976747955
2801.0,0.0439276630048171
2800.0,0.043495409683302455
2799.0,0.04301563225723992
2798.0,0.042584285277331047
2797.0,0.04210551278710151
2796.0,0.04167506835594681
2795.0,0.041197296600497646
2794.0,0.04076775094900409
2793.0,0.0402909757535701
2792.0,0.03981472339538916
2791.0,0.03938654235209116
2790.0,0.038958783046687984
2789.0,0.03848398855105106
2788.0,0.03800971255993524
2787.0,0.03753595394209874
2786.0,0.0371573187987575
2785.0,0.036779013477011624
2784.0,0.03644826642590382
2783.0,0.036117771071222604
2782.0,0.03583468937826462
2781.0,0.03555179208333925
2780.0,0.03526907894637077
2779.0,0.0349394793888016
2778.0,0.03456310022373987
2777.0,0.034187046963396917
2776.0,0.03385826726096752
2775.0,0.03362357691107709
2774.0,0.03343591590268957
2773.0,0.033201453616638954
2772.0,0.0329671178412978
2771.0,0.03273290844021437
2770.0,0.03249882527715853
2769.0,0.03226486821611996
2768.0,0.032031037121307726
2767.0,0.03179733185715028
2766.0,0.031657169041054534
2765.0,0.03151705144606498
2764.0,0.03137697904301118
2763.0,0.031143625385307683
2762.0,0.030957032694186815
2761.0,0.0307239045110681
2760.0,0.030490901403433135
2759.0,0.030351159519274695
2758.0,0.030211462585061133
2757.0,0.030071810571884017
2756.0,0.029885677714903025
2755.0,0.029653123769906697
2754.0,0.029467170231675777
2753.0,0.029281296279810798
2752.0,0.029141943003497595
2751.0,0.02904906565457588
2750.0,0.02890978686288448
2749.0,0.028863370523193765
2748.0,0.028770552723758724
2747.0,0.028677754757187035
2746.0,0.02863136320857662
2745.0,0.028538594975413334
2744.0,0.02839947976994095
2743.0,0.02826040911222183
2742.0,0.02812138297373412
2741.0,0.02798240132598462
2740.0,0.027889771597169544
2739.0,0.027750864037404455
2738.0,0.027658283674251827
2737.0,0.027565723042634938
2736.0,0.02747318213414429
2735.0,0.027426919073445077
2734.0,0.02738066094037661
2733.0,0.027334407733889066
2732.0,0.02724191609646076
2731.0,0.027195677663422346
2730.0,0.02710321556345563
2729.0,0.027056991894431892
2728.0,0.02696455931306696
2727.0,0.02691835039863255
2726.0,0.02677975314776626
2725.0,0.026687379547098322
2724.0,0.026502691267936695
2723.0,0.026318081496016443
2722.0,0.02613355016462182
2721.0,0.026041313893296225
2720.0,0.025995203102585407
2719.0,0.025949097207122573
2718.0,0.025949097207122573
2717.0,0.025856900097785074
2716.0,0.025672564576383117
2715.0,0.02553436426275746
2714.0,0.02539620791296726
2713.0,0.025350165561278004
2712.0,0.025350165561278004
2711.0,0.025350165561278004
2710.0,0.025304128090317013
2709.0,0.02521206778644225
2708.0,0.02512002699306959
2707.0,0.025074013910237447
2706.0,0.02498200236711723
2705.0,0.024936003904763915
2704.0,0.02484402159331056
2703.0,0.02475205875931885
2702.0,0.02461415101053266
2701.0,0.024476287039668643
2700.0,0.024430342106337877
2699.0,0.02438440203310499
2698.0,0.02438440203310499
2697.0,0.02438440203310499
2696.0,0.024338466818941473
2695.0,0.024200690320592466
2694.0,0.024108863598207186
2693.0,0.023971159908874107
2692.0,0.023925268380126097
2691.0,0.023879381700184332
2690.0,0.023879381700184332
2689.0,0.023879381700184332
2688.0,0.023833499868024743
2687.0,0.023695883447997224
2686.0,0.02355831062115543
2685.0,0.023466619608062178
2684.0,0.02342078135989012
2683.0,0.02342078135989012
2682.0,0.023466619608062178
2681.0,0.023466619608062178
2680.0,0.02351246269481
2679.0,0.02351246269481
2678.0,0.02355831062115543
2677.0,0.023604163388120325
2676.0,0.023604163388120325
2675.0,0.023604163388120325
2674.0,0.02355831062115543
2673.0,0.02351246269481
2672.0,0.023466619608062178
2671.0,0.023466619608062178
2670.0,0.02351246269481
2669.0,0.023604163388120325
2668.0,0.023695883447997224
2667.0,0.023741750742954926
2666.0,0.023787622882622816
2665.0,0.023787622882622816
2664.0,0.023787622882622816
2663.0,0.023741750742954926
2662.0,0.023695883447997224
2661.0,0.02365002099672653
2660.0,0.023604163388120325
2659.0,0.023604163388120325
2658.0,0.023604163388120325
2657.0,0.023604163388120325
2656.0,0.023604163388120325
2655.0,0.023604163388120325
2654.0,0.02351246269481
2653.0,0.02342078135989012
2652.0,0.023329119375188556
2651.0,0.023191662661933732
2650.0,0.023100049017062307
2649.0,0.023054249440757957
2648.0,0.023054249440757957
2647.0,0.02314585342378117
2646.0,0.023237476732539397
2645.0,0.023283295636617574
2644.0,0.023237476732539397
2643.0,0.023237476732539397
2642.0,0.023237476732539397
2641.0,0.023237476732539397
2640.0,0.023283295636617574
2639.0,0.023374947949272418
2638.0,0.02342078135989012
2637.0,0.023466619608062178
2636.0,0.023466619608062178
2635.0,0.02342078135989012
2634.0,0.023283295636617574
2633.0,0.02314585342378117
2632.0,0.02300845469384938
2631.0,0.02291687968414724
2630.0,0.022871099419317753
2629.0,0.02282532397981263
2628.0,0.02277955336461468
2627.0,0.022688026603074007
2626.0,0.02259651912656535
2625.0,0.02255077261765881
2624.0,0.022505030926963654
2623.0,0.02245929405346514
2622.0,0.022322112326006227
2621.0,0.0221849739168134
2620.0,0.022093572362881675
2619.0,0.02200219004126036
2618.0,0.021956506090037076
2617.0,0.021865152601710403
2616.0,0.021773818325474092
2615.0,0.021636852916117055
2614.0,0.021499930688540836
2613.0,0.021363051615525652
2612.0,0.021271822861508305
2611.0,0.02122621566987748
2610.0,0.0211806132671577
2609.0,0.021135015652343103
2608.0,0.021043834782408455
2607.0,0.020907099361673565
2606.0,0.02081596632558158
2605.0,0.020770406977844713
2604.0,0.020770406977844713
2603.0,0.020770406977844713
2602.0,0.02067930261797568
2601.0,0.020633757603838898
2600.0,0.020542681902151694
2599.0,0.02045162529590483
2598.0,0.020406104151069693
2597.0,0.020406104151069693
2596.0,0.02045162529590483
2595.0,0.020406104151069693
2594.0,0.02036058777709271
2593.0,0.02022406727031445
2592.0,0.02004210665933459
2591.0,0.01995115493504329
2590.0,0.019860222254245663
2589.0,0.019860222254245663
2588.0,0.01990568621470623
2587.0,0.01995115493504329
2586.0,0.019996628416253603
2585.0,0.01990568621470623
2584.0,0.019814763052665052
2583.0,0.019678413991243593
2582.0,0.01954210772389997
2581.0,0.01949668180660491
2580.0,0.01949668180660491
2579.0,0.01949668180660491
2578.0,0.01949668180660491
2577.0,0.01949668180660491
2576.0,0.01949668180660491
2575.0,0.01940584422377989
2574.0,0.019315025636685412
2573.0,0.0192242260373785
2572.0,0.019133445417920836
2571.0,0.0190880622231564
2570.0,0.0190880622231564
2569.0,0.019042683770379876
2568.0,0.01899731005860028
2567.0,0.018951941086827073
2566.0,0.018906576854070378
2565.0,0.018906576854070378
2564.0,0.018906576854070378
2563.0,0.018951941086827073
2562.0,0.018951941086827073
2561.0,0.018906576854070378
2560.0,0.018861217359339655
2559.0,0.018815862601645694
2558.0,0.018770512579999288
2557.0,0.018725167293411005
2556.0,0.018679826740892747
2555.0,0.018634490921455527
2554.0,0.01858915983411169
2553.0,0.018543833477873584
2552.0,0.018543833477873584
2551.0,0.018543833477873584
2550.0,0.01858915983411169
2549.0,0.01858915983411169
2548.0,0.018543833477873584
2547.0,0.01845319495476394
2546.0,0.018362575344230914
2545.0,0.01831727262871463
2544.0,0.018226681372252695
2543.0,0.018136109008649592
2542.0,0.018045555530026514
2541.0,0.018045555530026514
2540.0,0.01800028587012159
2539.0,0.017955020928509757
2538.0,0.017955020928509757
2537.0,0.017909760704207134
2536.0,0.017909760704207134
2535.0,0.017909760704207134
2534.0,0.017909760704207134
2533.0,0.017909760704207134
2532.0,0.017909760704207134
2531.0,0.017909760704207134
2530.0,0.017909760704207134
2529.0,0.01800028587012159
2528.0,0.01809082990920774
2527.0,0.018136109008649592
2526.0,0.01809082990920774
2525.0,0.01800028587012159
2524.0,0.017909760704207134
2523.0,0.017864505196230507
2522.0,0.017774008325325275
2521.0,0.017728766960431575
2520.0,0.017638298366853045
2519.0,0.01759307113620534
2518.0,0.017547848615010242
2517.0,0.017547848615010242
2516.0,0.017502630802287644
2515.0,0.017457417697056554
2514.0,0.017367005605150476
2513.0,0.017367005605150476
2512.0,0.017412209298337533
2511.0,0.017412209298337533
2510.0,0.017412209298337533
2509.0,0.017412209298337533
2508.0,0.017367005605150476
2507.0,0.017367005605150476
2506.0,0.017367005605150476
2505.0,0.017321806616515723
2504.0,0.01727661233145472
2503.0,0.017186237868137555
2502.0,0.017141057687924732
2501.0,0.017095882207371904
2500.0,0.017095882207371904
2499.0,0.017141057687924732
2498.0,0.017186237868137555
2497.0,0.017141057687924732
2496.0,0.017050711425501408
2495.0,0.016960383953898095
2494.0,0.016870075265299933
2493.0,0.016824927962187042
2492.0,0.01677978535189717
2491.0,0.01677978535189717
2490.0,0.01677978535189717
2489.0,0.016824927962187042
2488.0,0.016870075265299933
2487.0,0.016915227262211507
2486.0,0.016870075265299933
2485.0,0.016870075265299933
2484.0,0.016824927962187042
2483.0,0.016824927962187042
2482.0,0.016824927962187042
2481.0,0.01677978535189717
2480.0,0.016734647433454652
2479.0,0.016734647433454652
2478.0,0.01677978535189717
2477.0,0.016870075265299933
2476.0,0.016915227262211507
2475.0,0.016915227262211507
2474.0,0.016915227262211507
2473.0,0.016870075265299933
2472.0,0.01677978535189717
2471.0,0.016734647433454652
2470.0,0.016689514205884493
2469.0,0.016689514205884493
2468.0,0.016689514205884493
2467.0,0.016689514205884493
2466.0,0.016644385668211692
2465.0,0.016554142658660398
2464.0,0.01646391839700767
2463.0,0.016418813294209356
2462.0,0.01646391839700767
2461.0,0.01646391839700767
2460.0,0.01646391839700767
2459.0,0.016373712875465518
2458.0,0.01628352608625061
2457.0,0.016193358021584725
2456.0,0.016193358021584725
2455.0,0.016238439713835096
2454.0,0.01628352608625061
2453.0,0.016238439713835096
2452.0,0.016193358021584725
2451.0,0.016103208673694303
2450.0,0.016103208673694303
2449.0,0.016148281008528276
2448.0,0.016148281008528276
2447.0,0.016148281008528276
2446.0,0.016148281008528276
2445.0,0.016148281008528276
2444.0,0.016148281008528276
2443.0,0.016193358021584725
2442.0,0.016193358021584725
2441.0,0.016148281008528276
2440.0,0.016148281008528276
2439.0,0.016148281008528276
2438.0,0.016148281008528276
2437.0,0.016193358021584725
2436.0,0.016193358021584725
2435.0,0.016148281008528276
2434.0,0.016058141016111804
2433.0,0.016058141016111804
2432.0,0.016013078034810446
2431.0,0.016013078034810446
2430.0,0.016013078034810446
2429.0,0.01596801972881945
2428.0,0.01596801972881945
2427.0,0.01596801972881945
2426.0,0.01596801972881945
2425.0,0.01596801972881945
2424.0,0.015922966097169144
2423.0,0.015922966097169144
2422.0,0.01596801972881945
2421.0,0.016013078034810446
2420.0,0.016058141016111804
2419.0,0.016103208673694303
2418.0,0.016103208673694303
2417.0,0.016058141016111804
2416.0,0.016058141016111804
2415.0,0.016058141016111804
2414.0,0.016058141016111804
2413.0,0.016058141016111804
2412.0,0.016013078034810446
2411.0,0.01596801972881945
2410.0,0.015877917138889863
2409.0,0.01578783323856614
2408.0,0.01578783323856614
2407.0,0.01578783323856614
2406.0,0.01578783323856614
2405.0,0.01578783323856614
2404.0,0.015742798294583915
2403.0,0.015697768020096703
2402.0,0.015742798294583915
2401.0,0.015742798294583915
2400.0,0.015742798294583915
2399.0,0.015742798294583915
2398.0,0.015697768020096703
2397.0,0.015742798294583915
2396.0,0.01578783323856614
2395.0,0.01578783323856614
2394.0,0.015742798294583915
2393.0,0.015697768020096703
2392.0,0.015652742414136167
2391.0,0.015652742414136167
2390.0,0.015562705203923999
2389.0,0.015517693597737248
2388.0,0.015427684378367834
2387.0,0.015292705517326866
2386.0,0.015157768594724175
2385.0,0.015022873584506602
2384.0,0.014888020460646079
2383.0,0.014798141635428141
2382.0,0.014798141635428141
2381.0,0.014888020460646079
2380.0,0.015022873584506602
2379.0,0.015157768594724175
2378.0,0.015202742910707112
2377.0,0.015157768594724175
2376.0,0.015157768594724175
2375.0,0.015112798935672522
2374.0,0.015112798935672522
2373.0,0.015022873584506602
2372.0,0.014843078722943437
2371.0,0.014663358264387139
2370.0,0.014663358264387139
2369.0,0.014843078722943437
2368.0,0.014977917890464765
2367.0,0.015067833932588037
2366.0,0.015292705517326866
2365.0,0.015607721475734415
2364.0,0.01578783323856614
2363.0,0.015607721475734415
2362.0,0.015247721884586563
2361.0,0.014798141635428141
2360.0,0.014214382227394795
2359.0,0.013452186585275916
2358.0,0.013093968619278806
2357.0,0.013586594534531482
2356.0,0.014438812226654996
2355.0,0.015157768594724175
2354.0,0.015427684378367834
2353.0,0.015517693597737248
2352.0,0.015427684378367834
2351.0,0.015157768594724175
2350.0,0.014888020460646079
2349.0,0.014798141635428141
2348.0,0.014932966849499074
2347.0,0.015112798935672522
2346.0,0.015202742910707112
2345.0,0.015157768594724175
2344.0,0.014888020460646079
2343.0,0.01452861671041239
2342.0,0.0144837121472845
2341.0,0.014753209197138295
2340.0,0.015067833932588037
2339.0,0.015247721884586563
2338.0,0.015427684378367834
2337.0,0.015562705203923999
2336.0,0.015517693597737248
2335.0,0.015337693809893471
2334.0,0.015292705517326866
2333.0,0.01538268676325183
2332.0,0.01538268676325183
2331.0,0.014977917890464765
2330.0,0.014438812226654996
2329.0,0.014079779876432497
2328.0,0.013990068146738865
2327.0,0.014169510141607944
2326.0,0.01452861671041239
2325.0,0.015022873584506602
2324.0,0.015562705203923999
2323.0,0.01596801972881945
2322.0,0.016058141016111804
2321.0,0.015832872853011715
2320.0,0.015337693809893471
2319.0,0.014888020460646079
2318.0,0.014663358264387139
2317.0,0.014618439768003144
2316.0,0.014618439768003144
2315.0,0.014573525916998342
2314.0,0.0144837121472845
2313.0,0.014304140310157809
2312.0,0.014169510141607944
2311.0,0.01403492169512921
2310.0,0.013945219230304673
2309.0,0.01385553528947936
2308.0,0.013900374944870508
2307.0,0.013990068146738865
2306.0,0.014124642691606404
2305.0,0.014214382227394795
2304.0,0.014214382227394795
2303.0,0.014169510141607944
2302.0,0.014169510141607944
2301.0,0.014124642691606404
2300.0,0.014124642691606404
2299.0,0.014079779876432497
2298.0,0.014079779876432497
2297.0,0.014124642691606404
2296.0,0.014169510141607944
2295.0,0.014259258949925524
2294.0,0.014349026309051105
2293.0,0.014438812226654996
2292.0,0.014573525916998342
2291.0,0.014753209197138295
2290.0,0.014843078722943437
2289.0,0.014932966849499074
2288.0,0.014977917890464765
2287.0,0.014977917890464765
2286.0,0.015022873584506602
2285.0,0.015067833932588037
2284.0,0.015112798935672522
2283.0,0.015112798935672522
2282.0,0.015067833932588037
2281.0,0.015067833932588037
2280.0,0.015067833932588037
2279.0,0.015067833932588037
2278.0,0.015112798935672522
2277.0,0.015157768594724175
2276.0,0.015112798935672522
2275.0,0.015112798935672522
2274.0,0.015112798935672522
2273.0,0.015067833932588037
2272.0,0.015022873584506602
2271.0,0.014977917890464765
2270.0,0.014932966849499074
2269.0,0.014977917890464765
2268.0,0.015022873584506602
2267.0,0.015067833932588037
2266.0,0.015022873584506602
2265.0,0.014977917890464765
2264.0,0.014888020460646079
2263.0,0.014843078722943437
2262.0,0.014843078722943437
2261.0,0.014888020460646079
2260.0,0.014888020460646079
2259.0,0.014888020460646079
2258.0,0.014888020460646079
2257.0,0.014888020460646079
2256.0,0.014888020460646079
2255.0,0.014888020460646079
2254.0,0.014843078722943437
2253.0,0.014843078722943437
2252.0,0.014798141635428141
2251.0,0.014798141635428141
2250.0,0.014798141635428141
2249.0,0.014798141635428141
2248.0,0.014798141635428141
2247.0,0.014798141635428141
2246.0,0.014798141635428141
2245.0,0.014843078722943437
2244.0,0.014843078722943437
2243.0,0.014888020460646079
2242.0,0.014932966849499074
2241.0,0.014888020460646079
2240.0,0.014843078722943437
2239.0,0.014798141635428141
2238.0,0.014798141635428141
2237.0,0.014798141635428141
2236.0,0.014843078722943437
2235.0,0.014888020460646079
2234.0,0.014888020460646079
2233.0,0.014888020460646079
2232.0,0.014888020460646079
2231.0,0.014888020460646079
2230.0,0.014888020460646079
2229.0,0.014888020460646079
2228.0,0.014932966849499074
2227.0,0.014932966849499074
2226.0,0.014888020460646079
2225.0,0.014798141635428141
2224.0,0.014708281407112
2223.0,0.014663358264387139
2222.0,0.014663358264387139
2221.0,0.014753209197138295
2220.0,0.014798141635428141
2219.0,0.014798141635428141
2218.0,0.014843078722943437
2217.0,0.014843078722943437
2216.0,0.014843078722943437
2215.0,0.014843078722943437
2214.0,0.014753209197138295
2213.0,0.014708281407112
2212.0,0.014618439768003144
2211.0,0.014573525916998342
2210.0,0.01452861671041239
2209.0,0.01452861671041239
2208.0,0.01452861671041239
2207.0,0.01452861671041239
2206.0,0.014573525916998342
2205.0,0.014618439768003144
2204.0,0.014663358264387139
2203.0,0.014708281407112
2202.0,0.014708281407112
2201.0,0.014663358264387139
2200.0,0.014573525916998342
2199.0,0.01452861671041239
2198.0,0.014573525916998342
2197.0,0.014618439768003144
2196.0,0.014663358264387139
2195.0,0.014708281407112
2194.0,0.014663358264387139
2193.0,0.014573525916998342
2192.0,0.0144837121472845
2191.0,0.014438812226654996
2190.0,0.014438812226654996
2189.0,0.0144837121472845
2188.0,0.01452861671041239
2187.0,0.014573525916998342
2186.0,0.014618439768003144
2185.0,0.014618439768003144
2184.0,0.014618439768003144
2183.0,0.014618439768003144
2182.0,0.014618439768003144
2181.0,0.014618439768003144
2180.0,0.014618439768003144
2179.0,0.01452861671041239
2178.0,0.0144837121472845
2177.0,0.0144837121472845
2176.0,0.0144837121472845
2175.0,0.014438812226654996
2174.0,0.014438812226654996
2173.0,0.0144837121472845
2172.0,0.01452861671041239
2171.0,0.014573525916998342
2170.0,0.014618439768003144
2169.0,0.014618439768003144
2168.0,0.014618439768003144
2167.0,0.014573525916998342
2166.0,0.014573525916998342
2165.0,0.014573525916998342
2164.0,0.014618439768003144
2163.0,0.014618439768003144
2162.0,0.014618439768003144
2161.0,0.014618439768003144
2160.0,0.014573525916998342
2159.0,0.01452861671041239
2158.0,0.0144837121472845
2157.0,0.0144837121472845
2156.0,0.0144837121472845
2155.0,0.0144837121472845
2154.0,0.0144837121472845
2153.0,0.014573525916998342
2152.0,0.014618439768003144
2151.0,0.014708281407112
2150.0,0.014708281407112
2149.0,0.014708281407112
2148.0,0.014708281407112
2147.0,0.014708281407112
2146.0,0.014708281407112
2145.0,0.014708281407112
2144.0,0.014663358264387139
2143.0,0.014618439768003144
2142.0,0.014573525916998342
2141.0,0.014618439768003144
2140.0,0.014618439768003144
2139.0,0.014573525916998342
2138.0,0.014573525916998342
2137.0,0.0144837121472845
2136.0,0.014438812226654996
2135.0,0.014393916947563534
2134.0,0.014349026309051105
2133.0,0.014304140310157809
2132.0,0.014304140310157809
2131.0,0.014259258949925524
2130.0,0.014214382227394795
2129.0,0.014169510141607944
2128.0,0.014169510141607944
2127.0,0.014169510141607944
2126.0,0.014169510141607944
2125.0,0.014169510141607944
2124.0,0.014169510141607944
2123.0,0.014169510141607944
2122.0,0.014169510141607944
2121.0,0.014169510141607944
2120.0,0.014169510141607944
2119.0,0.014169510141607944
2118.0,0.014124642691606404
2117.0,0.014124642691606404
2116.0,0.014124642691606404
2115.0,0.014079779876432497
2114.0,0.01403492169512921
2113.0,0.01403492169512921
2112.0,0.01403492169512921
2111.0,0.014079779876432497
2110.0,0.014079779876432497
2109.0,0.014124642691606404
2108.0,0.014124642691606404
2107.0,0.014079779876432497
2106.0,0.014079779876432497
2105.0,0.013990068146738865
2104.0,0.013945219230304673
2103.0,0.013945219230304673
2102.0,0.013990068146738865
2101.0,0.014079779876432497
2100.0,0.014079779876432497
2099.0,0.014079779876432497
2098.0,0.01403492169512921
2097.0,0.01403492169512921
2096.0,0.01403492169512921
2095.0,0.01403492169512921
2094.0,0.01403492169512921
2093.0,0.01403492169512921
2092.0,0.014079779876432497
2091.0,0.014079779876432497
2090.0,0.014079779876432497
2089.0,0.014079779876432497
2088.0,0.014079779876432497
2087.0,0.014079779876432497
2086.0,0.014079779876432497
2085.0,0.014124642691606404
2084.0,0.014079779876432497
2083.0,0.01403492169512921
2082.0,0.013990068146738865
2081.0,0.013990068146738865
2080.0,0.013990068146738865
2079.0,0.013990068146738865
2078.0,0.013945219230304673
2077.0,0.013945219230304673
2076.0,0.013990068146738865
2075.0,0.01403492169512921
2074.0,0.01403492169512921
2073.0,0.01403492169512921
2072.0,0.013945219230304673
2071.0,0.013900374944870508
2070.0,0.01381070026317599
2069.0,0.01381070026317599
2068.0,0.01385553528947936
2067.0,0.013900374944870508
2066.0,0.013900374944870508
2065.0,0.013900374944870508
2064.0,0.013945219230304673
2063.0,0.013990068146738865
2062.0,0.013990068146738865
2061.0,0.01403492169512921
2060.0,0.01403492169512921
2059.0,0.01403492169512921
2058.0,0.014079779876432497
2057.0,0.014124642691606404
2056.0,0.014124642691606404
2055.0,0.014124642691606404
2054.0,0.014079779876432497
2053.0,0.01403492169512921
2052.0,0.01403492169512921
2051.0,0.014079779876432497
2050.0,0.014079779876432497
2049.0,0.014124642691606404
2048.0,0.014169510141607944
2047.0,0.014259258949925524
2046.0,0.014304140310157809
2045.0,0.014304140310157809
2044.0,0.014304140310157809
2043.0,0.014214382227394795
2042.0,0.014214382227394795
2041.0,0.014214382227394795
2040.0,0.014214382227394795
2039.0,0.014214382227394795
2038.0,0.014259258949925524
2037.0,0.014259258949925524
2036.0,0.014304140310157809
2035.0,0.014259258949925524
2034.0,0.014259258949925524
2033.0,0.014214382227394795
2032.0,0.014214382227394795
2031.0,0.014214382227394795
2030.0,0.014259258949925524
2029.0,0.014304140310157809
2028.0,0.014304140310157809
2027.0,0.014349026309051105
2026.0,0.014393916947563534
2025.0,0.01452861671041239
2024.0,0.014618439768003144
2023.0,0.014618439768003144
2022.0,0.014618439768003144
2021.0,0.014573525916998342
2020.0,0.01452861671041239
2019.0,0.01452861671041239
2018.0,0.014573525916998342
2017.0,0.014573525916998342
2016.0,0.01452861671041239
2015.0,0.0144837121472845
2014.0,0.014438812226654996
2013.0,0.014438812226654996
2012.0,0.014349026309051105
2011.0,0.014304140310157809
2010.0,0.014214382227394795
2009.0,0.014169510141607944
2008.0,0.014124642691606404
2007.0,0.014124642691606404
2006.0,0.014079779876432497
2005.0,0.014079779876432497
2004.0,0.01403492169512921
2003.0,0.01403492169512921
2002.0,0.01403492169512921
2001.0,0.013990068146738865
2000.0,0.013945219230304673
1999.0,0.013945219230304673
1998.0,0.013900374944870508
1997.0,0.013900374944870508
1996.0,0.01385553528947936
1995.0,0.01385553528947936
1994.0,0.01385553528947936
1993.0,0.013900374944870508
1992.0,0.013945219230304673
1991.0,0.013945219230304673
1990.0,0.013900374944870508
1989.0,0.01385553528947936
1988.0,0.01381070026317599
1987.0,0.01385553528947936
1986.0,0.013900374944870508
1985.0,0.013945219230304673
1984.0,0.013990068146738865
1983.0,0.013990068146738865
1982.0,0.013990068146738865
1981.0,0.013945219230304673
1980.0,0.013900374944870508
1979.0,0.01385553528947936
1978.0,0.01385553528947936
1977.0,0.01385553528947936
1976.0,0.01381070026317599
1975.0,0.01381070026317599
1974.0,0.01381070026317599
1973.0,0.013765869865004277
1972.0,0.01372104409400876
1971.0,0.013676222949234651
1970.0,0.013631406429727155
1969.0,0.013676222949234651
1968.0,0.01372104409400876
1967.0,0.013765869865004277
1966.0,0.013765869865004277
1965.0,0.01381070026317599
1964.0,0.013765869865004277
1963.0,0.01372104409400876
1962.0,0.013631406429727155
1961.0,0.013631406429727155
1960.0,0.013676222949234651
1959.0,0.013765869865004277
1958.0,0.013765869865004277
1957.0,0.013765869865004277
1956.0,0.01372104409400876
1955.0,0.013676222949234651
1954.0,0.013631406429727155
1953.0,0.013586594534531482
1952.0,0.013541787262693505
1951.0,0.013541787262693505
1950.0,0.013631406429727155
1949.0,0.013676222949234651
1948.0,0.01372104409400876
1947.0,0.01372104409400876
1946.0,0.01372104409400876
1945.0,0.013676222949234651
1944.0,0.013631406429727155
1943.0,0.013586594534531482
1942.0,0.013541787262693505
1941.0,0.013541787262693505
1940.0,0.013541787262693505
1939.0,0.013541787262693505
1938.0,0.013541787262693505
1937.0,0.013496984613259544
1936.0,0.013496984613259544
1935.0,0.013452186585275916
1934.0,0.013452186585275916
1933.0,0.013452186585275916
1932.0,0.013496984613259544
1931.0,0.013541787262693505
1930.0,0.013631406429727155
1929.0,0.013676222949234651
1928.0,0.013676222949234651
1927.0,0.013631406429727155
1926.0,0.013586594534531482
1925.0,0.013586594534531482
1924.0,0.013586594534531482
1923.0,0.013586594534531482
1922.0,0.013586594534531482
1921.0,0.013586594534531482
1920.0,0.013541787262693505
1919.0,0.013496984613259544
1918.0,0.013407393177789162
1917.0,0.013407393177789162
1916.0,0.013452186585275916
1915.0,0.013496984613259544
1914.0,0.013541787262693505
1913.0,0.013586594534531482
1912.0,0.013541787262693505
1911.0,0.013496984613259544
1910.0,0.013496984613259544
1909.0,0.013496984613259544
1908.0,0.013541787262693505
1907.0,0.013586594534531482
1906.0,0.013631406429727155
1905.0,0.013676222949234651
1904.0,0.013765869865004277
1903.0,0.01381070026317599
1902.0,0.013900374944870508
1901.0,0.013990068146738865
1900.0,0.013990068146738865
1899.0,0.013990068146738865
1898.0,0.013945219230304673
1897.0,0.013945219230304673
1896.0,0.013945219230304673
1895.0,0.013945219230304673
1894.0,0.013945219230304673
1893.0,0.013900374944870508
1892.0,0.01381070026317599
1891.0,0.01372104409400876
1890.0,0.013631406429727155
1889.0,0.013541787262693505
1888.0,0.013452186585275916
1887.0,0.013362604389846044
1886.0,0.013317820220494436
1885.0,0.013273040668781544
1884.0,0.01322826573375524
1883.0,0.01318349541446362
1882.0,0.013138729709955221
1881.0,0.013138729709955221
1880.0,0.01318349541446362
1879.0,0.01318349541446362
1878.0,0.013138729709955221
1877.0,0.013138729709955221
1876.0,0.013138729709955221
1875.0,0.013093968619278806
1874.0,0.013093968619278806
1873.0,0.013093968619278806
1872.0,0.013049212141483357
1871.0,0.012959713020733288
1870.0,0.012914970375878188
1869.0,0.012959713020733288
1868.0,0.013004460275618523
1867.0,0.012959713020733288
1866.0,0.012870232340102872
1865.0,0.012825498912458322
1864.0,0.012780770091995297
1863.0,0.012780770091995297
1862.0,0.012825498912458322
1861.0,0.012825498912458322
1860.0,0.012870232340102872
1859.0,0.012870232340102872
1858.0,0.012870232340102872
1857.0,0.012870232340102872
1856.0,0.012780770091995297
1855.0,0.012736045877764557
1854.0,0.012691326268817527
1853.0,0.01264661126420652
1852.0,0.01264661126420652
1851.0,0.01260190086298274
1850.0,0.01260190086298274
1849.0,0.01264661126420652
1848.0,0.01264661126420652
1847.0,0.01264661126420652
1846.0,0.012557195064198723
1845.0,0.012467797270160563
1844.0,0.012467797270160563
1843.0,0.012512493866907004
1842.0,0.01260190086298274
1841.0,0.012691326268817527
1840.0,0.012736045877764557
1839.0,0.012736045877764557
1838.0,0.012736045877764557
1837.0,0.012736045877764557
1836.0,0.012780770091995297
1835.0,0.012736045877764557
1834.0,0.012736045877764557
1833.0,0.012691326268817527
1832.0,0.012691326268817527
1831.0,0.012736045877764557
1830.0,0.012736045877764557
1829.0,0.012780770091995297
1828.0,0.012736045877764557
1827.0,0.012691326268817527
1826.0,0.01260190086298274
1825.0,0.01264661126420652
1824.0,0.012736045877764557
1823.0,0.012780770091995297
1822.0,0.012780770091995297
1821.0,0.012736045877764557
1820.0,0.012691326268817527
1819.0,0.01264661126420652
1818.0,0.012691326268817527
1817.0,0.012691326268817527
1816.0,0.012691326268817527
1815.0,0.01264661126420652
1814.0,0.01260190086298274
1813.0,0.01260190086298274
1812.0,0.01260190086298274
1811.0,0.01260190086298274
1810.0,0.01260190086298274
1809.0,0.01260190086298274
1808.0,0.01260190086298274
1807.0,0.012557195064198723
1806.0,0.012512493866907004
1805.0,0.012467797270160563
1804.0,0.012423105273012602
1803.0,0.012333735073725371
1802.0,0.012333735073725371
1801.0,0.012378417874516323
1800.0,0.012423105273012602
1799.0,0.012423105273012602
1798.0,0.012378417874516323
1797.0,0.012333735073725371
1796.0,0.012333735073725371
1795.0,0.012333735073725371
1794.0,0.012244383261476699
1793.0,0.012244383261476699
1792.0,0.012244383261476699
1791.0,0.012244383261476699
1790.0,0.012244383261476699
1789.0,0.012199714248127602
1788.0,0.012199714248127602
1787.0,0.012244383261476699
1786.0,0.012289056869694281
1785.0,0.012378417874516323
1784.0,0.012467797270160563
1783.0,0.012467797270160563
1782.0,0.012423105273012602
1781.0,0.012378417874516323
1780.0,0.012378417874516323
1779.0,0.012378417874516323
1778.0,0.012378417874516323
1777.0,0.012378417874516323
1776.0,0.012423105273012602
1775.0,0.012423105273012602
1774.0,0.012289056869694281
1773.0,0.01215504982870197
1772.0,0.012199714248127602
1771.0,0.012244383261476699
1770.0,0.012333735073725371
1769.0,0.012378417874516323
1768.0,0.012333735073725371
1767.0,0.012333735073725371
1766.0,0.012333735073725371
1765.0,0.012378417874516323
1764.0,0.012467797270160563
1763.0,0.012423105273012602
1762.0,0.012333735073725371
1761.0,0.012244383261476699
1760.0,0.012244383261476699
1759.0,0.012333735073725371
1758.0,0.012378417874516323
1757.0,0.012467797270160563
1756.0,0.012557195064198723
1755.0,0.01264661126420652
1754.0,0.012736045877764557
1753.0,0.012780770091995297
1752.0,0.012825498912458322
1751.0,0.012914970375878188
1750.0,0.013049212141483357
1749.0,0.01322826573375524
1748.0,0.013407393177789162
1747.0,0.013496984613259544
1746.0,0.013496984613259544
1745.0,0.013496984613259544
1744.0,0.013496984613259544
1743.0,0.013541787262693505
1742.0,0.013586594534531482
1741.0,0.013631406429727155
1740.0,0.013586594534531482
1739.0,0.013452186585275916
1738.0,0.01322826573375524
1737.0,0.013138729709955221
1736.0,0.013004460275618523
1735.0,0.012780770091995297
1734.0,0.01264661126420652
1733.0,0.01260190086298274
1732.0,0.01260190086298274
1731.0,0.012691326268817527
1730.0,0.012736045877764557
1729.0,0.012736045877764557
1728.0,0.012691326268817527
1727.0,0.012691326268817527
1726.0,0.012736045877764557
1725.0,0.012780770091995297
1724.0,0.012780770091995297
1723.0,0.012736045877764557
1722.0,0.01264661126420652
1721.0,0.012557195064198723
1720.0,0.012423105273012602
1719.0,0.01215504982870197
1718.0,0.0119764380713403
1717.0,0.01215504982870197
1716.0,0.012512493866907004
1715.0,0.012736045877764557
1714.0,0.012870232340102872
1713.0,0.012870232340102872
1712.0,0.012825498912458322
1711.0,0.012691326268817527
1710.0,0.01264661126420652
1709.0,0.01264661126420652
1708.0,0.012691326268817527
1707.0,0.012691326268817527
1706.0,0.01260190086298274
1705.0,0.012467797270160563
1704.0,0.012333735073725371
1703.0,0.012199714248127602
1702.0,0.012021084124518078
1701.0,0.011797899741219142
1700.0,0.011842527443247208
1699.0,0.012110390002254778
1698.0,0.012423105273012602
1697.0,0.01264661126420652
1696.0,0.01260190086298274
1695.0,0.012333735073725371
1694.0,0.012199714248127602
1693.0,0.012289056869694281
1692.0,0.012378417874516323
1691.0,0.012378417874516323
1690.0,0.012333735073725371
1689.0,0.012289056869694281
1688.0,0.012289056869694281
1687.0,0.012289056869694281
1686.0,0.012199714248127602
1685.0,0.01215504982870197
1684.0,0.012333735073725371
1683.0,0.012333735073725371
1682.0,0.012244383261476699
1681.0,0.012199714248127602
1680.0,0.01215504982870197
1679.0,0.012065734767841452
1678.0,0.0119764380713403
1677.0,0.0119764380713403
1676.0,0.011931796607364653
1675.0,0.011887159731648111
1674.0,0.011842527443247208
1673.0,0.011887159731648111
1672.0,0.0119764380713403
1671.0,0.012110390002254778
1670.0,0.012289056869694281
1669.0,0.012378417874516323
1668.0,0.012378417874516323
1667.0,0.012289056869694281
1666.0,0.012244383261476699
1665.0,0.012199714248127602
1664.0,0.01215504982870197
1663.0,0.01215504982870197
1662.0,0.01215504982870197
1661.0,0.012110390002254778
1660.0,0.012065734767841452
1659.0,0.012065734767841452
1658.0,0.0119764380713403
1657.0,0.0119764380713403
1656.0,0.012021084124518078
1655.0,0.012021084124518078
1654.0,0.011842527443247208
1653.0,0.011931796607364653
1652.0,0.011797899741219142
1651.0,0.011708658092512314
1650.0,0.011887159731648111
1649.0,0.012110390002254778
1648.0,0.012244383261476699
1647.0,0.012378417874516323
1646.0,0.012378417874516323
1645.0,0.012289056869694281
1644.0,0.012244383261476699
1643.0,0.012199714248127602
1642.0,0.012199714248127602
1641.0,0.012199714248127602
1640.0,0.012199714248127602
1639.0,0.012289056869694281
1638.0,0.012423105273012602
1637.0,0.012512493866907004
1636.0,0.01260190086298274
1635.0,0.012467797270160563
1634.0,0.012289056869694281
1633.0,0.012244383261476699
1632.0,0.012289056869694281
1631.0,0.012289056869694281
1630.0,0.012244383261476699
1629.0,0.012199714248127602
1628.0,0.012199714248127602
1627.0,0.01215504982870197
1626.0,0.012110390002254778
1625.0,0.012065734767841452
1624.0,0.012021084124518078
1623.0,0.0119764380713403
1622.0,0.011887159731648111
1621.0,0.011842527443247208
1620.0,0.011797899741219142
1619.0,0.011842527443247208
1618.0,0.011842527443247208
1617.0,0.011842527443247208
1616.0,0.011842527443247208
1615.0,0.011842527443247208
1614.0,0.011887159731648111
1613.0,0.011931796607364653
1612.0,0.011931796607364653
1611.0,0.011931796607364653
1610.0,0.011931796607364653
1609.0,0.0119764380713403
1608.0,0.011931796607364653
1607.0,0.011842527443247208
1606.0,0.011797899741219142
1605.0,0.011708658092512314
1604.0,0.011708658092512314
1603.0,0.011753276624621556
1602.0,0.011797899741219142
1601.0,0.011797899741219142
1600.0,0.011797899741219142
1599.0,0.011797899741219142
1598.0,0.011753276624621556
1597.0,0.011708658092512314
1596.0,0.011708658092512314
1595.0,0.011708658092512314
1594.0,0.011664044143949504
1593.0,0.011664044143949504
1592.0,0.011664044143949504
1591.0,0.011664044143949504
1590.0,0.011664044143949504
1589.0,0.011664044143949504
1588.0,0.011619434777991433
1587.0,0.011574829993696856
1586.0,0.011574829993696856
1585.0,0.011619434777991433
1584.0,0.011708658092512314
1583.0,0.011708658092512314
1582.0,0.011619434777991433
1581.0,0.011485634166333858
1580.0,0.011396456654336085
1579.0,0.011307297450183107
1578.0,0.011262724711199823
1577.0,0.011129033935354915
1576.0,0.011129033935354915
1575.0,0.011129033935354915
1574.0,0.01117359295472431
1573.0,0.011218156546359825
1572.0,0.011218156546359825
1571.0,0.01117359295472431
1570.0,0.011129033935354915
1569.0,0.011129033935354915
1568.0,0.011039929609661936
1567.0,0.010995384301463185
1566.0,0.010950843561779777
1565.0,0.010906307389674463
1564.0,0.010950843561779777
1563.0,0.010950843561779777
1562.0,0.010995384301463185
1561.0,0.010906307389674463
1560.0,0.010683695010048622
1559.0,0.01077272626946324
1558.0,0.010817248744452446
1557.0,0.010728208358306901
1556.0,0.01086177578421088
1555.0,0.010950843561779777
1554.0,0.010950843561779777
1553.0,0.010950843561779777
1552.0,0.010995384301463185
1551.0,0.010995384301463185
1550.0,0.010950843561779777
1549.0,0.010950843561779777
1548.0,0.010950843561779777
1547.0,0.010906307389674463
1546.0,0.01086177578421088
1545.0,0.01086177578421088
1544.0,0.010950843561779777
1543.0,0.010995384301463185
1542.0,0.01086177578421088
1541.0,0.01086177578421088
1540.0,0.011084479487313281
1539.0,0.010950843561779777
1538.0,0.010683695010048622
1537.0,0.010594681998483901
1536.0,0.010594681998483901
1535.0,0.010550182333308289
1534.0,0.010416710688994968
1533.0,0.01046119667949763
1532.0,0.010505687227290839
1531.0,0.01046119667949763
1530.0,0.010416710688994968
1529.0,0.010416710688994968
1528.0,0.010416710688994968
1527.0,0.01037222925484893
1526.0,0.01023881228122181
1525.0,0.010194349063173958
1524.0,0.010194349063173958
1523.0,0.010105436281226954
1522.0,0.009972101229705377
1521.0,0.01001654169860089
1520.0,0.01001654169860089
1519.0,0.009927665307847056
1518.0,0.009883233932095559
1517.0,0.009883233932095559
1516.0,0.009838807101520963
1515.0,0.009705553871561357
1514.0,0.009616741093766423
1513.0,0.009572341514736404
1512.0,0.00966114521239847
1511.0,0.00966114521239847
1510.0,0.00966114521239847
1509.0,0.009794384815193347
1508.0,0.01001654169860089
1507.0,0.010149890396819572
1506.0,0.01001654169860089
1505.0,0.009927665307847056
1504.0,0.009972101229705377
1503.0,0.01001654169860089
1502.0,0.009972101229705377
1501.0,0.009927665307847056
1500.0,0.009883233932095559
1499.0,0.009838807101520963
1498.0,0.00974996707218323
1497.0,0.009838807101520963
1496.0,0.009927665307847056
1495.0,0.00974996707218323
1494.0,0.00966114521239847
1493.0,0.00974996707218323
1492.0,0.009927665307847056
1491.0,0.009883233932095559
1490.0,0.009794384815193347
1489.0,0.009838807101520963
1488.0,0.009927665307847056
1487.0,0.00974996707218323
1486.0,0.00966114521239847
1485.0,0.009794384815193347
1484.0,0.010060986715464404
1483.0,0.01037222925484893
1482.0,0.01086177578421088
1481.0,0.011887159731648111
1480.0,0.013317820220494436
1479.0,0.01547268665620738
1478.0,0.019678413991243593
1477.0,0.027936083991977778
1476.0,0.04081545726880842
1475.0,0.05724807957018618
1474.0,0.0756173227980268
1473.0,0.0905509530187334
1472.0,0.09474395125154866
1471.0,0.09033701484598189
1470.0,0.08444188458847957
1469.0,0.07992887570247587
1468.0,0.07701518429111709
1467.0,0.07628980560343712
1466.0,0.07992887570247587
1465.0,0.08894897967187343
1464.0,0.09870518283443275
1463.0,0.10275789719463457
1462.0,0.09952362861074304
1461.0,0.09076499663169257
1460.0,0.07893810920972144
1459.0,0.06661395809694559
1458.0,0.05610995175152733
1457.0,0.049148541111453614
1456.0,0.0451788169482068
1455.0,0.04263219156847242
1454.0,0.040481623027001756
1453.0,0.038199360808321536
1452.0,0.03597620715996652
1451.0,0.03414006319292828
1450.0,0.03277974021703267
1449.0,0.03161045815293173
1448.0,0.03058408764601861
1447.0,0.029792641193145286
1446.0,0.029234840219232394
1445.0,0.02872415126189476
1444.0,0.02826040911222183
1443.0,0.027889771597169544
1442.0,0.02751945012352408
1441.0,0.027010773144651168
1440.0,0.026456531467510258
1439.0,0.025902996205869
1438.0,0.02539620791296726
1437.0,0.024890010313838973
1436.0,0.024568191490736968
1435.0,0.024292536462819925
1434.0,0.023925268380126097
1433.0,0.023374947949272418
1432.0,0.022688026603074007
1431.0,0.02204787879853809
1430.0,0.02140867317992523
1429.0,0.02081596632558158
1428.0,0.020178569969774962
1427.0,0.019632973815224997
1426.0,0.019178833355664393
1425.0,0.018634490921455527
1424.0,0.018136109008649592
1423.0,0.017728766960431575
1422.0,0.017367005605150476
1421.0,0.016960383953898095
1420.0,0.016554142658660398
1419.0,0.016373712875465518
1418.0,0.01628352608625061
1417.0,0.016058141016111804
1416.0,0.015877917138889863
1415.0,0.015742798294583915
1414.0,0.015562705203923999
1413.0,0.01538268676325183
1412.0,0.015247721884586563
1411.0,0.015157768594724175
1410.0,0.015022873584506602
1409.0,0.014843078722943437
1408.0,0.014573525916998342
1407.0,0.014438812226654996
1406.0,0.014349026309051105
1405.0,0.014259258949925524
1404.0,0.014169510141607944
1403.0,0.014079779876432497
1402.0,0.013990068146738865
1401.0,0.013900374944870508
1400.0,0.013765869865004277
1399.0,0.013676222949234651
1398.0,0.013586594534531482
1397.0,0.013496984613259544
1396.0,0.013407393177789162
1395.0,0.013452186585275916
1394.0,0.013541787262693505
1393.0,0.013496984613259544
1392.0,0.013452186585275916
1391.0,0.013452186585275916
1390.0,0.013496984613259544
1389.0,0.013452186585275916
1388.0,0.013452186585275916
1387.0,0.013541787262693505
1386.0,0.01372104409400876
1385.0,0.013900374944870508
1384.0,0.014124642691606404
1383.0,0.014393916947563534
1382.0,0.014753209197138295
1381.0,0.015157768594724175
1380.0,0.015562705203923999
1379.0,0.015877917138889863
1378.0,0.016103208673694303
1377.0,0.016193358021584725
1376.0,0.016238439713835096
1375.0,0.016418813294209356
1374.0,0.016644385668211692
1373.0,0.016824927962187042
1372.0,0.017005545341335804
1371.0,0.01727661233145472
1370.0,0.01759307113620534
1369.0,0.01781925440359733
1368.0,0.017909760704207134
1367.0,0.017864505196230507
1366.0,0.01768353030793479
1365.0,0.017412209298337533
1364.0,0.017186237868137555
1363.0,0.016960383953898095
1362.0,0.016734647433454652
1361.0,0.016509028184833463
1360.0,0.01632861713980338
1359.0,0.016193358021584725
1358.0,0.016058141016111804
1357.0,0.01596801972881945
1356.0,0.015922966097169144
1355.0,0.01596801972881945
1354.0,0.016058141016111804
1353.0,0.016058141016111804
1352.0,0.01596801972881945
1351.0,0.01578783323856614
1350.0,0.015652742414136167
1349.0,0.015427684378367834
1348.0,0.015247721884586563
1347.0,0.015067833932588037
1346.0,0.014888020460646079
1345.0,0.014708281407112
1344.0,0.0144837121472845
1343.0,0.014304140310157809
1342.0,0.014169510141607944
1341.0,0.013990068146738865
1340.0,0.01381070026317599
1339.0,0.013676222949234651
1338.0,0.013586594534531482
1337.0,0.013407393177789162
1336.0,0.013273040668781544
1335.0,0.013138729709955221
1334.0,0.013049212141483357
1333.0,0.012959713020733288
1332.0,0.012870232340102872
1331.0,0.012870232340102872
1330.0,0.012914970375878188
1329.0,0.013004460275618523
1328.0,0.013049212141483357
1327.0,0.013138729709955221
1326.0,0.01318349541446362
1325.0,0.013273040668781544
1324.0,0.013317820220494436
1323.0,0.013362604389846044
1322.0,0.013496984613259544
1321.0,0.013631406429727155
1320.0,0.013765869865004277
1319.0,0.013945219230304673
1318.0,0.014079779876432497
1317.0,0.014169510141607944
1316.0,0.014214382227394795
1315.0,0.014304140310157809
1314.0,0.014393916947563534
1313.0,0.01452861671041239
1312.0,0.014618439768003144
1311.0,0.014753209197138295
1310.0,0.014798141635428141
1309.0,0.014888020460646079
1308.0,0.014932966849499074
1307.0,0.015022873584506602
1306.0,0.015067833932588037
1305.0,0.015112798935672522
1304.0,0.015112798935672522
1303.0,0.015067833932588037
1302.0,0.015022873584506602
1301.0,0.014932966849499074
1300.0,0.014843078722943437
1299.0,0.014798141635428141
1298.0,0.014708281407112
1297.0,0.014573525916998342
1296.0,0.014393916947563534
1295.0,0.014259258949925524
1294.0,0.014124642691606404
1293.0,0.013990068146738865
1292.0,0.01385553528947936
1291.0,0.01372104409400876
1290.0,0.013676222949234651
1289.0,0.013631406429727155
1288.0,0.013541787262693505
1287.0,0.013452186585275916
1286.0,0.013362604389846044
1285.0,0.013273040668781544
1284.0,0.01318349541446362
1283.0,0.013138729709955221
1282.0,0.013093968619278806
1281.0,0.013004460275618523
1280.0,0.012959713020733288
1279.0,0.012914970375878188
1278.0,0.012914970375878188
1277.0,0.012959713020733288
1276.0,0.012959713020733288
1275.0,0.012959713020733288
1274.0,0.012959713020733288
1273.0,0.012959713020733288
1272.0,0.012959713020733288
1271.0,0.012914970375878188
1270.0,0.012914970375878188
1269.0,0.012825498912458322
1268.0,0.012780770091995297
1267.0,0.012736045877764557
1266.0,0.012780770091995297
1265.0,0.012736045877764557
1264.0,0.012736045877764557
1263.0,0.012691326268817527
1262.0,0.012736045877764557
1261.0,0.012780770091995297
1260.0,0.012736045877764557
1259.0,0.012691326268817527
1258.0,0.01260190086298274
1257.0,0.012557195064198723
1256.0,0.012557195064198723
1255.0,0.012557195064198723
1254.0,0.012557195064198723
1253.0,0.012512493866907004
1252.0,0.012512493866907004
1251.0,0.012512493866907004
1250.0,0.012467797270160563
1249.0,0.012467797270160563
1248.0,0.012423105273012602
1247.0,0.012378417874516323
1246.0,0.012378417874516323
1245.0,0.012378417874516323
1244.0,0.012289056869694281
1243.0,0.012244383261476699
1242.0,0.012199714248127602
1241.0,0.012199714248127602
1240.0,0.01215504982870197
1239.0,0.012110390002254778
1238.0,0.012110390002254778
1237.0,0.012110390002254778
1236.0,0.012065734767841452
1235.0,0.0119764380713403
1234.0,0.011887159731648111
1233.0,0.011842527443247208
1232.0,0.011753276624621556
1231.0,0.011753276624621556
1230.0,0.011708658092512314
1229.0,0.011664044143949504
1228.0,0.011664044143949504
1227.0,0.011708658092512314
1226.0,0.011797899741219142
1225.0,0.011797899741219142
1224.0,0.011797899741219142
1223.0,0.011753276624621556
1222.0,0.011664044143949504
1221.0,0.011574829993696856
1220.0,0.011485634166333858
1219.0,0.011485634166333858
1218.0,0.011574829993696856
1217.0,0.011619434777991433
1216.0,0.011619434777991433
1215.0,0.011619434777991433
1214.0,0.011574829993696856
1213.0,0.011574829993696856
1212.0,0.011574829993696856
1211.0,0.011619434777991433
1210.0,0.011708658092512314
1209.0,0.011753276624621556
1208.0,0.011797899741219142
1207.0,0.011842527443247208
1206.0,0.011931796607364653
1205.0,0.011931796607364653
1204.0,0.011931796607364653
1203.0,0.011842527443247208
1202.0,0.011797899741219142
1201.0,0.011753276624621556
1200.0,0.011753276624621556
1199.0,0.011708658092512314
1198.0,0.011708658092512314
1197.0,0.011664044143949504
1196.0,0.011574829993696856
1195.0,0.011485634166333858
1194.0,0.011441043121384498
1193.0,0.011485634166333858
1192.0,0.011485634166333858
1191.0,0.011485634166333858
1190.0,0.011441043121384498
1189.0,0.011351874764248926
1188.0,0.011307297450183107
1187.0,0.011307297450183107
1186.0,0.011351874764248926
1185.0,0.011351874764248926
1184.0,0.011351874764248926
1183.0,0.011351874764248926
1182.0,0.011396456654336085
1181.0,0.011441043121384498
1180.0,0.011530229790124524
1179.0,0.011664044143949504
1178.0,0.011842527443247208
1177.0,0.012021084124518078
1176.0,0.012110390002254778
1175.0,0.012199714248127602
1174.0,0.012244383261476699
1173.0,0.012244383261476699
1172.0,0.012244383261476699
1171.0,0.012289056869694281
1170.0,0.012333735073725371
1169.0,0.012378417874516323
1168.0,0.012378417874516323
1167.0,0.012423105273012602
1166.0,0.012378417874516323
1165.0,0.012333735073725371
1164.0,0.012289056869694281
1163.0,0.012289056869694281
1162.0,0.012289056869694281
1161.0,0.012244383261476699
1160.0,0.012110390002254778
1159.0,0.012021084124518078
1158.0,0.0119764380713403
1157.0,0.011931796607364653
1156.0,0.011887159731648111
1155.0,0.011887159731648111
1154.0,0.011887159731648111
1153.0,0.011842527443247208
1152.0,0.011842527443247208
1151.0,0.011797899741219142
1150.0,0.011797899741219142
1149.0,0.011708658092512314
1148.0,0.011619434777991433
1147.0,0.011574829993696856
1146.0,0.011619434777991433
1145.0,0.011619434777991433
1144.0,0.011619434777991433
1143.0,0.011530229790124524
1142.0,0.011441043121384498
1141.0,0.011351874764248926
1140.0,0.011307297450183107
1139.0,0.011262724711199823
1138.0,0.011262724711199823
1137.0,0.01117359295472431
1136.0,0.011039929609661936
1135.0,0.010950843561779777
1134.0,0.010817248744452446
1133.0,0.010728208358306901
1132.0,0.010728208358306901
1131.0,0.01077272626946324
1130.0,0.01086177578421088
1129.0,0.010906307389674463
1128.0,0.010817248744452446
1127.0,0.010728208358306901
1126.0,0.010639186223752484
1125.0,0.010594681998483901
1124.0,0.010639186223752484
1123.0,0.010639186223752484
1122.0,0.010639186223752484
1121.0,0.010639186223752484
1120.0,0.010639186223752484
1119.0,0.010683695010048622
1118.0,0.01077272626946324
1117.0,0.01077272626946324
1116.0,0.01077272626946324
1115.0,0.01077272626946324
1114.0,0.01077272626946324
1113.0,0.010817248744452446
1112.0,0.010817248744452446
1111.0,0.010817248744452446
1110.0,0.01077272626946324
1109.0,0.01077272626946324
1108.0,0.010817248744452446
1107.0,0.010995384301463185
1106.0,0.011218156546359825
1105.0,0.011262724711199823
1104.0,0.011262724711199823
1103.0,0.01117359295472431
1102.0,0.01117359295472431
1101.0,0.01117359295472431
1100.0,0.011262724711199823
1099.0,0.011351874764248926
1098.0,0.011396456654336085
1097.0,0.011351874764248926
1096.0,0.011396456654336085
1095.0,0.011441043121384498
1094.0,0.011530229790124524
1093.0,0.011530229790124524
1092.0,0.011530229790124524
1091.0,0.011485634166333858
1090.0,0.011485634166333858
1089.0,0.011485634166333858
1088.0,0.011485634166333858
1087.0,0.011574829993696856
1086.0,0.011708658092512314
1085.0,0.011753276624621556
1084.0,0.011708658092512314
1083.0,0.011664044143949504
1082.0,0.011619434777991433
1081.0,0.011574829993696856
1080.0,0.011530229790124524
1079.0,0.011485634166333858
1078.0,0.011441043121384498
1077.0,0.011396456654336085
1076.0,0.011351874764248926
1075.0,0.011351874764248926
1074.0,0.011351874764248926
1073.0,0.011307297450183107
1072.0,0.011218156546359825
1071.0,0.011129033935354915
1070.0,0.011129033935354915
1069.0,0.01117359295472431
1068.0,0.01117359295472431
1067.0,0.01117359295472431
1066.0,0.011129033935354915
1065.0,0.011039929609661936
1064.0,0.010950843561779777
1063.0,0.01086177578421088
1062.0,0.01086177578421088
1061.0,0.01086177578421088
1060.0,0.010817248744452446
1059.0,0.010728208358306901
1058.0,0.010594681998483901
1057.0,0.01046119667949763
1056.0,0.01037222925484893
1055.0,0.01037222925484893
1054.0,0.010416710688994968
1053.0,0.010550182333308289
1052.0,0.010639186223752484
1051.0,0.010639186223752484
1050.0,0.010594681998483901
1049.0,0.01046119667949763
1048.0,0.01037222925484893
1047.0,0.01037222925484893
1046.0,0.01037222925484893
1045.0,0.010416710688994968
1044.0,0.010416710688994968
1043.0,0.010416710688994968
1042.0,0.01037222925484893
1041.0,0.01037222925484893
1040.0,0.010283280051895272
1039.0,0.01023881228122181
1038.0,0.010105436281226954
1037.0,0.01001654169860089
1036.0,0.009883233932095559
1035.0,0.009838807101520963
1034.0,0.009883233932095559
1033.0,0.009927665307847056
1032.0,0.009972101229705377
1031.0,0.01001654169860089
1030.0,0.01001654169860089
1029.0,0.009972101229705377
1028.0,0.009838807101520963
1027.0,0.00974996707218323
1026.0,0.00966114521239847
1025.0,0.009572341514736404
1024.0,0.009483555971770974
1023.0,0.009439170005980158
1022.0,0.00939478857608056
1021.0,0.009306039320248427
1020.0,0.009261671492462709
1019.0,0.009261671492462709
1018.0,0.009261671492462709
1017.0,0.009217308196862062
1016.0,0.009128595198514056
1015.0,0.00908424549391551
1014.0,0.009039900317800775
1013.0,0.009039900317800775
1012.0,0.008995559669244813
1011.0,0.008951223547323472
1010.0,0.008862564879688284
1009.0,0.008773924307505121
1008.0,0.0087296108049002
1007.0,0.0087296108049002
1006.0,0.0087296108049002
1005.0,0.008685301823389224
1004.0,0.008685301823389224
1003.0,0.008685301823389224
1002.0,0.008685301823389224
1001.0,0.008640997362049818
1000.0,0.00850811108984062
999.0,0.008419542825660153
998.0,0.008419542825660153
997.0,0.00850811108984062
996.0,0.008640997362049818
995.0,0.008818242332126802
994.0,0.008951223547323472
993.0,0.008951223547323472
992.0,0.008951223547323472
991.0,0.008995559669244813
990.0,0.009039900317800775
989.0,0.00908424549391551
988.0,0.00908424549391551
987.0,0.009039900317800775
986.0,0.009039900317800775
985.0,0.008995559669244813
984.0,0.008995559669244813
983.0,0.008995559669244813
982.0,0.00908424549391551
981.0,0.009172949432521227
980.0,0.009261671492462709
979.0,0.009306039320248427
978.0,0.00939478857608056
977.0,0.009439170005980158
976.0,0.009483555971770974
975.0,0.009572341514736404
974.0,0.009616741093766423
973.0,0.00966114521239847
972.0,0.009572341514736404
971.0,0.009483555971770974
970.0,0.009439170005980158
969.0,0.009350411681145587
968.0,0.009350411681145587
967.0,0.009306039320248427
966.0,0.009306039320248427
965.0,0.009261671492462709
964.0,0.009217308196862062
963.0,0.00908424549391551
962.0,0.008951223547323472
961.0,0.008773924307505121
960.0,0.0087296108049002
959.0,0.0087296108049002
958.0,0.008818242332126802
957.0,0.008862564879688284
956.0,0.008818242332126802
955.0,0.0087296108049002
954.0,0.008640997362049818
953.0,0.008552401996197112
952.0,0.008463824699968647
951.0,0.008419542825660153
950.0,0.008419542825660153
949.0,0.008375265465994541
948.0,0.008286724286910463
947.0,0.008198201155356077
946.0,0.008109696063975047
945.0,0.008021209005416363
944.0,0.007976972236149349
943.0,0.007932739972333236
942.0,0.008021209005416363
941.0,0.008153946355103248
940.0,0.008330992620051436
939.0,0.00850811108984062
938.0,0.008640997362049818
937.0,0.008685301823389224
936.0,0.008596697419959609
935.0,0.00850811108984062
934.0,0.008463824699968647
933.0,0.00850811108984062
932.0,0.008685301823389224
931.0,0.008906891951112605
930.0,0.00908424549391551
929.0,0.009172949432521227
928.0,0.009128595198514056
927.0,0.009039900317800775
926.0,0.008995559669244813
925.0,0.008995559669244813
924.0,0.009039900317800775
923.0,0.009128595198514056
922.0,0.009172949432521227
921.0,0.009172949432521227
920.0,0.00908424549391551
919.0,0.00908424549391551
918.0,0.00908424549391551
917.0,0.00908424549391551
916.0,0.009039900317800775
915.0,0.008995559669244813
914.0,0.008951223547323472
913.0,0.008951223547323472
912.0,0.008951223547323472
911.0,0.008995559669244813
910.0,0.009039900317800775
909.0,0.009039900317800775
908.0,0.008951223547323472
907.0,0.008862564879688284
906.0,0.0087296108049002
905.0,0.0087296108049002
904.0,0.0087296108049002
903.0,0.008818242332126802
902.0,0.008818242332126802
901.0,0.008685301823389224
900.0,0.00850811108984062
899.0,0.008330992620051436
898.0,0.008242460465651913
897.0,0.008242460465651913
896.0,0.008242460465651913
895.0,0.008286724286910463
894.0,0.008286724286910463
893.0,0.008330992620051436
892.0,0.008375265465994541
891.0,0.008463824699968647
890.0,0.00850811108984062
889.0,0.008552401996197112
888.0,0.00850811108984062
887.0,0.008419542825660153
886.0,0.008242460465651913
885.0,0.007976972236149349
884.0,0.007800070204414977
883.0,0.007800070204414977
882.0,0.007932739972333236
881.0,0.008109696063975047
880.0,0.008242460465651913
879.0,0.008242460465651913
878.0,0.008153946355103248
877.0,0.008109696063975047
876.0,0.008065450281052211
875.0,0.008153946355103248
874.0,0.008330992620051436
873.0,0.008463824699968647
872.0,0.00850811108984062
871.0,0.008463824699968647
870.0,0.008330992620051436
869.0,0.008198201155356077
868.0,0.008198201155356077
867.0,0.008330992620051436
866.0,0.00850811108984062
865.0,0.008596697419959609
864.0,0.008596697419959609
863.0,0.008552401996197112
862.0,0.008596697419959609
861.0,0.008685301823389224
860.0,0.008906891951112605
859.0,0.009128595198514056
858.0,0.009306039320248427
857.0,0.009350411681145587
856.0,0.009306039320248427
855.0,0.009261671492462709
854.0,0.009217308196862062
853.0,0.009128595198514056
852.0,0.00908424549391551
851.0,0.009128595198514056
850.0,0.009261671492462709
849.0,0.009350411681145587
848.0,0.009350411681145587
847.0,0.009306039320248427
846.0,0.009306039320248427
845.0,0.009261671492462709
844.0,0.009172949432521227
843.0,0.00908424549391551
842.0,0.008995559669244813
841.0,0.008951223547323472
840.0,0.008906891951112605
839.0,0.008906891951112605
838.0,0.008906891951112605
837.0,0.008862564879688284
836.0,0.008818242332126802
835.0,0.0087296108049002
834.0,0.008640997362049818
833.0,0.008463824699968647
832.0,0.008242460465651913
831.0,0.008109696063975047
830.0,0.007932739972333236
829.0,0.007755855953228474
828.0,0.00762324020119709
827.0,0.0075790439479759275
826.0,0.007667440952535687
825.0,0.007667440952535687
824.0,0.007534852191956709
823.0,0.007358130121602358
822.0,0.007181479933320523
821.0,0.007004901568658406
820.0,0.006828394969235152
819.0,0.006784279525863024
818.0,0.006916639301937977
817.0,0.007004901568658406
816.0,0.007004901568658406
815.0,0.007004901568658406
814.0,0.007093181776687496
813.0,0.007225635744644521
812.0,0.007402303897961815
811.0,0.007490664932224611
810.0,0.007534852191956709
809.0,0.007534852191956709
808.0,0.0075790439479759275
807.0,0.007667440952535687
806.0,0.007800070204414977
805.0,0.007976972236149349
804.0,0.008065450281052211
803.0,0.008109696063975047
802.0,0.008109696063975047
801.0,0.008109696063975047
800.0,0.008198201155356077
799.0,0.008375265465994541
798.0,0.008552401996197112
797.0,0.008640997362049818
796.0,0.008640997362049818
795.0,0.008640997362049818
794.0,0.008640997362049818
793.0,0.008596697419959609
792.0,0.00850811108984062
791.0,0.00850811108984062
790.0,0.008596697419959609
789.0,0.0087296108049002
788.0,0.008818242332126802
787.0,0.008818242332126802
786.0,0.0087296108049002
785.0,0.008640997362049818
784.0,0.008552401996197112
783.0,0.00850811108984062
782.0,0.008552401996197112
781.0,0.008552401996197112
780.0,0.008375265465994541
779.0,0.008065450281052211
778.0,0.007711646202907652
777.0,0.007402303897961815
776.0,0.007225635744644521
775.0,0.007137328610972382
774.0,0.007137328610972382
773.0,0.007093181776687496
772.0,0.00696076819309055
771.0,0.006872514894289861
770.0,0.006872514894289861
769.0,0.006828394969235152
768.0,0.006740168563263094
767.0,0.00656376950238835
766.0,0.00656376950238835
765.0,0.006696062080525422
764.0,0.006740168563263094
763.0,0.006696062080525422
762.0,0.00656376950238835
761.0,0.006431517210272464
760.0,0.006299305179649828
759.0,0.006299305179649828
758.0,0.006475596832934416
757.0,0.006740168563263094
756.0,0.00696076819309055
755.0,0.007049039429553483
754.0,0.007049039429553483
753.0,0.007049039429553483
752.0,0.007049039429553483
751.0,0.007049039429553483
750.0,0.007049039429553483
749.0,0.007137328610972382
748.0,0.007181479933320523
747.0,0.007269796045857202
746.0,0.007490664932224611
745.0,0.007667440952535687
744.0,0.007711646202907652
743.0,0.00762324020119709
742.0,0.007667440952535687
741.0,0.008021209005416363
740.0,0.0087296108049002
739.0,0.00974996707218323
738.0,0.011351874764248926
737.0,0.013900374944870508
736.0,0.01800028587012159
735.0,0.025074013910237447
734.0,0.03682628362474838
733.0,0.05379344615721715
732.0,0.0729891310243489
731.0,0.08825662214406838
730.0,0.09393445524476318
729.0,0.08948231448273347
728.0,0.0794071379151915
727.0,0.06950943469373039
726.0,0.06303410289212974
725.0,0.06093025007657582
724.0,0.06313454102437754
723.0,0.07001940948448526
722.0,0.08191721535781271
721.0,0.09691001300805646
720.0,0.10946720807225518
719.0,0.11328372588352176
718.0,0.10701544928928342
717.0,0.09436599867304518
716.0,0.08003329851661278
715.0,0.06671522765130522
714.0,0.05541863577307371
713.0,0.04633693625290869
712.0,0.03924390909822728
711.0,0.03399914237121604
710.0,0.03030458888152676
709.0,0.027612000892527133
708.0,0.02544225514642018
707.0,0.023466619608062178
706.0,0.02159120737696063
705.0,0.01995115493504329
704.0,0.018725167293411005
703.0,0.017909760704207134
702.0,0.017186237868137555
701.0,0.016418813294209356
700.0,0.015697768020096703
699.0,0.015337693809893471
698.0,0.015292705517326866
697.0,0.015337693809893471
696.0,0.015112798935672522
695.0,0.014798141635428141
694.0,0.0144837121472845
693.0,0.014214382227394795
692.0,0.013990068146738865
691.0,0.01372104409400876
690.0,0.013496984613259544
689.0,0.01322826573375524
688.0,0.013093968619278806
687.0,0.01318349541446362
686.0,0.013452186585275916
685.0,0.01372104409400876
684.0,0.01381070026317599
683.0,0.013765869865004277
682.0,0.013586594534531482
681.0,0.01322826573375524
680.0,0.012870232340102872
679.0,0.012736045877764557
678.0,0.012691326268817527
677.0,0.012691326268817527
676.0,0.01264661126420652
675.0,0.012691326268817527
674.0,0.01264661126420652
673.0,0.012199714248127602
672.0,0.011664044143949504
671.0,0.011842527443247208
670.0,0.01322826573375524
669.0,0.015337693809893471
668.0,0.016148281008528276
667.0,0.014393916947563534
666.0,0.011708658092512314
665.0,0.009572341514736404
664.0,0.008242460465651913
663.0,0.0075790439479759275
662.0,0.007225635744644521
661.0,0.006828394969235152
660.0,0.006387442061109638
659.0,0.00621118618129457
658.0,0.006607862550997545
657.0,0.007225635744644521
656.0,0.007313960837872058
655.0,0.006696062080525422
654.0,0.00577085918230158
653.0,0.005199100705396198
652.0,0.005199100705396198
651.0,0.005682847330363394
650.0,0.006431517210272464
649.0,0.007181479933320523
648.0,0.00762324020119709
647.0,0.007755855953228474
646.0,0.007490664932224611
645.0,0.007049039429553483
644.0,0.006740168563263094
643.0,0.006916639301937977
642.0,0.0074464821678643656
641.0,0.008109696063975047
640.0,0.0087296108049002
639.0,0.009527946474380489
638.0,0.010416710688994968
637.0,0.010995384301463185
636.0,0.01086177578421088
635.0,0.010194349063173958
634.0,0.009527946474380489
633.0,0.00939478857608056
632.0,0.009616741093766423
631.0,0.009883233932095559
630.0,0.010060986715464404
629.0,0.010194349063173958
628.0,0.010416710688994968
627.0,0.01077272626946324
626.0,0.011307297450183107
625.0,0.011931796607364653
624.0,0.01260190086298274
623.0,0.013049212141483357
622.0,0.012780770091995297
621.0,0.011664044143949504
620.0,0.010105436281226954
619.0,0.008995559669244813
618.0,0.008818242332126802
617.0,0.009350411681145587
616.0,0.009972101229705377
615.0,0.010594681998483901
614.0,0.011262724711199823
613.0,0.011753276624621556
612.0,0.011842527443247208
611.0,0.011797899741219142
610.0,0.011887159731648111
609.0,0.0119764380713403
608.0,0.011574829993696856
607.0,0.010550182333308289
606.0,0.009306039320248427
605.0,0.008286724286910463
604.0,0.007667440952535687
603.0,0.007534852191956709
602.0,0.007888512213050314
601.0,0.008552401996197112
600.0,0.008818242332126802
