cm-1,A
4000.0,-0.0042353663594676405
3999.0,-0.004106323279658319
3998.0,-0.0039772418455368275
3997.0,-0.003934206173708432
3996.0,-0.003934206173708432
3995.0,-0.003934206173708432
3994.0,-0.003934206173708432
3993.0,-0.0039772418455368275
3992.0,-0.0039772418455368275
3991.0,-0.004020273253241502
3990.0,-0.004020273253241502
3989.0,-0.004020273253241502
3988.0,-0.004020273253241502
3987.0,-0.004020273253241502
3986.0,-0.004063300397667113
3985.0,-0.004106323279658319
3984.0,-0.004192356259714369
3983.0,-0.0042783722001624724
3982.0,-0.0042783722001624724
3981.0,-0.0042783722001624724
3980.0,-0.004192356259714369
3979.0,-0.004106323279658319
3978.0,-0.004063300397667113
3977.0,-0.004063300397667113
3976.0,-0.004106323279658319
3975.0,-0.004106323279658319
3974.0,-0.004106323279658319
3973.0,-0.004106323279658319
3972.0,-0.004063300397667113
3971.0,-0.004063300397667113
3970.0,-0.004020273253241502
3969.0,-0.003934206173708432
3968.0,-0.0038481220342978517
3967.0,-0.0037189638231147626
3966.0,-0.003632837004408529
3965.0,-0.0035897671891400584
3964.0,-0.0035897671891400584
3963.0,-0.003632837004408529
3962.0,-0.0037189638231147626
3961.0,-0.003805073565025019
3960.0,-0.003891166236910326
3959.0,-0.0039772418455368275
3958.0,-0.004020273253241502
3957.0,-0.0039772418455368275
3956.0,-0.0038481220342978517
3955.0,-0.0037189638231147626
3954.0,-0.003632837004408529
3953.0,-0.003632837004408529
3952.0,-0.003675902548784027
3951.0,-0.0037189638231147626
3950.0,-0.003762020828246282
3949.0,-0.003805073565025019
3948.0,-0.0038481220342978517
3947.0,-0.003934206173708432
3946.0,-0.0039772418455368275
3945.0,-0.004063300397667113
3944.0,-0.004149341900058889
3943.0,-0.004192356259714369
3942.0,-0.004192356259714369
3941.0,-0.004149341900058889
3940.0,-0.004149341900058889
3939.0,-0.004149341900058889
3938.0,-0.004106323279658319
3937.0,-0.004020273253241502
3936.0,-0.003891166236910326
3935.0,-0.003762020828246282
3934.0,-0.0037189638231147626
3933.0,-0.0037189638231147626
3932.0,-0.003805073565025019
3931.0,-0.0039772418455368275
3930.0,-0.004149341900058889
3929.0,-0.0042353663594676405
3928.0,-0.004149341900058889
3927.0,-0.0039772418455368275
3926.0,-0.003762020828246282
3925.0,-0.003675902548784027
3924.0,-0.003675902548784027
3923.0,-0.0037189638231147626
3922.0,-0.003805073565025019
3921.0,-0.003805073565025019
3920.0,-0.003762020828246282
3919.0,-0.003632837004408529
3918.0,-0.0035897671891400584
3917.0,-0.0035897671891400584
3916.0,-0.003675902548784027
3915.0,-0.0037189638231147626
3914.0,-0.003805073565025019
3913.0,-0.003934206173708432
3912.0,-0.004020273253241502
3911.0,-0.004106323279658319
3910.0,-0.004149341900058889
3909.0,-0.004106323279658319
3908.0,-0.004020273253241502
3907.0,-0.003934206173708432
3906.0,-0.003934206173708432
3905.0,-0.004020273253241502
3904.0,-0.004063300397667113
3903.0,-0.004063300397667113
3902.0,-0.004020273253241502
3901.0,-0.004020273253241502
3900.0,-0.004106323279658319
3899.0,-0.004149341900058889
3898.0,-0.004106323279658319
3897.0,-0.004020273253241502
3896.0,-0.003934206173708432
3895.0,-0.003934206173708432
3894.0,-0.003934206173708432
3893.0,-0.004106323279658319
3892.0,-0.004321373782642635
3891.0,-0.004493337547274212
3890.0,-0.004493337547274212
3889.0,-0.004321373782642635
3888.0,-0.004106323279658319
3887.0,-0.004149341900058889
3886.0,-0.0042353663594676405
3885.0,-0.0042353663594676405
3884.0,-0.004063300397667113
3883.0,-0.0038481220342978517
3882.0,-0.0037189638231147626
3881.0,-0.0037189638231147626
3880.0,-0.0037189638231147626
3879.0,-0.003675902548784027
3878.0,-0.003546693102131737
3877.0,-0.003503614742536687
3876.0,-0.003632837004408529
3875.0,-0.0038481220342978517
3874.0,-0.0039772418455368275
3873.0,-0.003891166236910326
3872.0,-0.003762020828246282
3871.0,-0.0038481220342978517
3870.0,-0.004063300397667113
3869.0,-0.004106323279658319
3868.0,-0.003934206173708432
3867.0,-0.003805073565025019
3866.0,-0.003891166236910326
3865.0,-0.004063300397667113
3864.0,-0.004106323279658319
3863.0,-0.004063300397667113
3862.0,-0.004020273253241502
3861.0,-0.004063300397667113
3860.0,-0.0042353663594676405
3859.0,-0.004407364176330919
3858.0,-0.004536317851322913
3857.0,-0.00445035298922436
3856.0,-0.004407364176330919
3855.0,-0.0045792939022115675
3854.0,-0.004837060938309712
3853.0,-0.004837060938309712
3852.0,-0.004622265700782613
3851.0,-0.004364371107751008
3850.0,-0.0042353663594676405
3849.0,-0.004192356259714369
3848.0,-0.004063300397667113
3847.0,-0.003891166236910326
3846.0,-0.0037189638231147626
3845.0,-0.003632837004408529
3844.0,-0.003675902548784027
3843.0,-0.003805073565025019
3842.0,-0.003934206173708432
3841.0,-0.004063300397667113
3840.0,-0.004106323279658319
3839.0,-0.004106323279658319
3838.0,-0.004149341900058889
3837.0,-0.004106323279658319
3836.0,-0.004106323279658319
3835.0,-0.004020273253241502
3834.0,-0.0039772418455368275
3833.0,-0.003934206173708432
3832.0,-0.003934206173708432
3831.0,-0.003891166236910326
3830.0,-0.003891166236910326
3829.0,-0.0038481220342978517
3828.0,-0.003891166236910326
3827.0,-0.004020273253241502
3826.0,-0.004020273253241502
3825.0,-0.003805073565025019
3824.0,-0.0034605321095062536
3823.0,-0.0033312585613267665
3822.0,-0.0034605321095062536
3821.0,-0.0037189638231147626
3820.0,-0.0038481220342978517
3819.0,-0.0038481220342978517
3818.0,-0.0038481220342978517
3817.0,-0.0039772418455368275
3816.0,-0.004063300397667113
3815.0,-0.004063300397667113
3814.0,-0.004063300397667113
3813.0,-0.004106323279658319
3812.0,-0.0042783722001624724
3811.0,-0.004321373782642635
3810.0,-0.004149341900058889
3809.0,-0.0039772418455368275
3808.0,-0.0039772418455368275
3807.0,-0.004149341900058889
3806.0,-0.004192356259714369
3805.0,-0.004106323279658319
3804.0,-0.003934206173708432
3803.0,-0.004020273253241502
3802.0,-0.004149341900058889
3801.0,-0.004149341900058889
3800.0,-0.0039772418455368275
3799.0,-0.0038481220342978517
3798.0,-0.003891166236910326
3797.0,-0.004063300397667113
3796.0,-0.004149341900058889
3795.0,-0.004149341900058889
3794.0,-0.004106323279658319
3793.0,-0.004063300397667113
3792.0,-0.004063300397667113
3791.0,-0.004020273253241502
3790.0,-0.0039772418455368275
3789.0,-0.003934206173708432
3788.0,-0.003891166236910326
3787.0,-0.0038481220342978517
3786.0,-0.003805073565025019
3785.0,-0.003762020828246282
3784.0,-0.0037189638231147626
3783.0,-0.003632837004408529
3782.0,-0.003632837004408529
3781.0,-0.0037189638231147626
3780.0,-0.003891166236910326
3779.0,-0.003934206173708432
3778.0,-0.003934206173708432
3777.0,-0.003891166236910326
3776.0,-0.003891166236910326
3775.0,-0.003934206173708432
3774.0,-0.003891166236910326
3773.0,-0.003805073565025019
3772.0,-0.0037189638231147626
3771.0,-0.003762020828246282
3770.0,-0.003762020828246282
3769.0,-0.003675902548784027
3768.0,-0.003503614742536687
3767.0,-0.0034174452021935586
3766.0,-0.0034605321095062536
3765.0,-0.003546693102131737
3764.0,-0.003546693102131737
3763.0,-0.003503614742536687
3762.0,-0.0035897671891400584
3761.0,-0.003762020828246282
3760.0,-0.0039772418455368275
3759.0,-0.004106323279658319
3758.0,-0.004149341900058889
3757.0,-0.0042353663594676405
3756.0,-0.0042783722001624724
3755.0,-0.0042353663594676405
3754.0,-0.0042353663594676405
3753.0,-0.004192356259714369
3752.0,-0.004020273253241502
3751.0,-0.003934206173708432
3750.0,-0.004106323279658319
3749.0,-0.004321373782642635
3748.0,-0.004364371107751008
3747.0,-0.0042783722001624724
3746.0,-0.004364371107751008
3745.0,-0.0045792939022115675
3744.0,-0.0045792939022115675
3743.0,-0.004321373782642635
3742.0,-0.004020273253241502
3741.0,-0.003891166236910326
3740.0,-0.003805073565025019
3739.0,-0.0037189638231147626
3738.0,-0.0035897671891400584
3737.0,-0.0035897671891400584
3736.0,-0.003675902548784027
3735.0,-0.003675902548784027
3734.0,-0.003675902548784027
3733.0,-0.003805073565025019
3732.0,-0.003934206173708432
3731.0,-0.0039772418455368275
3730.0,-0.0038481220342978517
3729.0,-0.003762020828246282
3728.0,-0.003762020828246282
3727.0,-0.003762020828246282
3726.0,-0.0035897671891400584
3725.0,-0.0033312585613267665
3724.0,-0.003158833950862139
3723.0,-0.003201946521692367
3722.0,-0.0033743540197499478
3721.0,-0.003503614742536687
3720.0,-0.003632837004408529
3719.0,-0.0037189638231147626
3718.0,-0.003891166236910326
3717.0,-0.004020273253241502
3716.0,-0.004063300397667113
3715.0,-0.003934206173708432
3714.0,-0.003805073565025019
3713.0,-0.003632837004408529
3712.0,-0.003503614742536687
3711.0,-0.0034605321095062536
3710.0,-0.0034605321095062536
3709.0,-0.0034605321095062536
3708.0,-0.003546693102131737
3707.0,-0.0035897671891400584
3706.0,-0.003675902548784027
3705.0,-0.0037189638231147626
3704.0,-0.0037189638231147626
3703.0,-0.003675902548784027
3702.0,-0.003675902548784027
3701.0,-0.003675902548784027
3700.0,-0.003675902548784027
3699.0,-0.003675902548784027
3698.0,-0.003805073565025019
3697.0,-0.003891166236910326
3696.0,-0.0038481220342978517
3695.0,-0.003762020828246282
3694.0,-0.003675902548784027
3693.0,-0.003632837004408529
3692.0,-0.003675902548784027
3691.0,-0.0037189638231147626
3690.0,-0.0037189638231147626
3689.0,-0.003762020828246282
3688.0,-0.003762020828246282
3687.0,-0.003675902548784027
3686.0,-0.003546693102131737
3685.0,-0.003503614742536687
3684.0,-0.0034605321095062536
3683.0,-0.003503614742536687
3682.0,-0.0035897671891400584
3681.0,-0.003762020828246282
3680.0,-0.004020273253241502
3679.0,-0.004106323279658319
3678.0,-0.004063300397667113
3677.0,-0.004063300397667113
3676.0,-0.004149341900058889
3675.0,-0.004192356259714369
3674.0,-0.004063300397667113
3673.0,-0.0038481220342978517
3672.0,-0.0037189638231147626
3671.0,-0.0037189638231147626
3670.0,-0.003675902548784027
3669.0,-0.003546693102131737
3668.0,-0.0034174452021935586
3667.0,-0.0033312585613267665
3666.0,-0.0032881588260753603
3665.0,-0.003201946521692367
3664.0,-0.003201946521692367
3663.0,-0.003201946521692367
3662.0,-0.0032881588260753603
3661.0,-0.0033312585613267665
3660.0,-0.0033743540197499478
3659.0,-0.0033312585613267665
3658.0,-0.0033743540197499478
3657.0,-0.003546693102131737
3656.0,-0.003675902548784027
3655.0,-0.003675902548784027
3654.0,-0.003546693102131737
3653.0,-0.0034174452021935586
3652.0,-0.0034605321095062536
3651.0,-0.003546693102131737
3650.0,-0.0033743540197499478
3649.0,-0.0030725959676747294
3648.0,-0.002856926061120646
3647.0,-0.0028137792246734072
3646.0,-0.002856926061120646
3645.0,-0.002900068611387585
3644.0,-0.0029863408567849525
3643.0,-0.0030725959676747294
3642.0,-0.0030725959676747294
3641.0,-0.003029470553618019
3640.0,-0.002900068611387585
3639.0,-0.0027706281011936618
3638.0,-0.002597980719908577
3637.0,-0.0024252646779014952
3636.0,-0.002338880892056583
3635.0,-0.0024252646779014952
3634.0,-0.002684312989729598
3633.0,-0.002856926061120646
3632.0,-0.0029432068763250996
3631.0,-0.0030725959676747294
3630.0,-0.0032450548131470747
3629.0,-0.003158833950862139
3628.0,-0.0028137792246734072
3627.0,-0.0025116312849080558
3626.0,-0.002338880892056583
3625.0,-0.002338880892056583
3624.0,-0.0023820749327607693
3623.0,-0.0024252646779014952
3622.0,-0.0025116312849080558
3621.0,-0.0026411490000399773
3620.0,-0.002684312989729598
3619.0,-0.0026411490000399773
3618.0,-0.0025548081484823015
3617.0,-0.0024684501283323
3616.0,-0.0024684501283323
3615.0,-0.0024684501283323
3614.0,-0.0024684501283323
3613.0,-0.0024252646779014952
3612.0,-0.002338880892056583
3611.0,-0.0022092729880145434
3610.0,-0.0021228462251614566
3609.0,-0.0021228462251614566
3608.0,-0.0020796263931210923
3607.0,-0.0020364022595291686
3606.0,-0.0019931738235303698
3605.0,-0.0019067040408846658
3604.0,-0.0019067040408846658
3603.0,-0.0019067040408846658
3602.0,-0.0019499410842680476
3601.0,-0.0019499410842680476
3600.0,-0.0018634626925240205
3599.0,-0.0016904542321527494
3598.0,-0.001474096691732818
3597.0,-0.0013009330204178937
3596.0,-0.0011277002770349043
3595.0,-0.001041057986093552
3594.0,-0.0010843812922201046
3593.0,-0.0011710149414008164
3592.0,-0.00121432528617893
3591.0,-0.0011277002770349043
3590.0,-0.0009977303577937136
3589.0,-0.0008243766056055257
3588.0,-0.0007810273534953893
3587.0,-0.0008243766056055257
3586.0,-0.0009543984064577238
3585.0,-0.0009977303577937136
3584.0,-0.0009977303577937136
3583.0,-0.0009977303577937136
3582.0,-0.0009543984064577238
3581.0,-0.0009543984064577238
3580.0,-0.0009110621312231615
3579.0,-0.0008677215312267172
3578.0,-0.0008243766056055257
3577.0,-0.0008243766056055257
3576.0,-0.0007810273534953893
3575.0,-0.0007810273534953893
3574.0,-0.0007810273534953893
3573.0,-0.0007810273534953893
3572.0,-0.0007810273534953893
3571.0,-0.0007376737740329986
3570.0,-0.0006509536295951079
3569.0,-0.0005208409361854294
3568.0,-0.0003906892499099257
3567.0,-0.00030389978481260016
3566.0,-0.0002604985473904087
3565.0,-0.0003472966853634851
3564.0,-0.00043407747931878404
3563.0,-0.0004774613744551459
3562.0,-0.0004774613744551459
3561.0,-0.00043407747931878404
3560.0,-0.0003472966853634851
3559.0,-0.00030389978481260016
3558.0,-0.0003472966853634851
3557.0,-0.0003906892499099257
3556.0,-0.00043407747931878404
3555.0,-0.0003906892499099257
3554.0,-0.00030389978481260016
3553.0,-0.00021709297223004853
3552.0,-8.685021164911433e-05
3551.0,0.0
3550.0,4.343161980746579e-05
3549.0,8.686758342868472e-05
3548.0,4.343161980746579e-05
3547.0,0.0
3546.0,-8.685021164911433e-05
3545.0,-0.00017368305846510168
3544.0,-0.00021709297223004853
3543.0,-0.0002604985473904087
3542.0,-0.00017368305846510168
3541.0,-4.3427276862573194e-05
3540.0,0.0001303078917322953
3539.0,0.00030411258916074324
3538.0,0.00043451177401765406
3537.0,0.0005649501236701937
3536.0,0.0006519307932786322
3535.0,0.0006954276616513155
3534.0,0.0006954276616513155
3533.0,0.0006519307932786322
3532.0,0.0006084382809090627
3531.0,0.0005649501236701937
3530.0,0.0006084382809090627
3529.0,0.0006954276616513155
3528.0,0.0007824344698965646
3527.0,0.0008259444115150671
3526.0,0.0008259444115150671
3525.0,0.0007824344698965646
3524.0,0.0007824344698965646
3523.0,0.0008259444115150671
3522.0,0.0009129773741116676
3521.0,0.0010435595295137379
3520.0,0.0011306361176557367
3519.0,0.0011741809597138886
3518.0,0.0012177301682640973
3517.0,0.0012177301682640973
3516.0,0.0011741809597138886
3515.0,0.0011741809597138886
3514.0,0.0012612837441823288
3513.0,0.001348404001626502
3512.0,0.001348404001626502
3511.0,0.001304841688344327
3510.0,0.0011741809597138886
3509.0,0.0010870956412141197
3508.0,0.0010870956412141197
3507.0,0.0011306361176557367
3506.0,0.0012612837441823288
3505.0,0.0013919706849057079
3504.0,0.0015662811355310335
3503.0,0.0016534626036355249
3502.0,0.001609869681952425
3501.0,0.0014791171649619628
3500.0,0.001304841688344327
3499.0,0.0012177301682640973
3498.0,0.0012612837441823288
3497.0,0.001304841688344327
3496.0,0.001304841688344327
3495.0,0.001304841688344327
3494.0,0.001348404001626502
3493.0,0.0014791171649619628
3492.0,0.0016534626036355249
3491.0,0.0018278780605593958
3490.0,0.0019587356365717845
3489.0,0.0020459959305969555
3488.0,0.002089632653256679
3487.0,0.002089632653256679
3486.0,0.0020023635919956817
3485.0,0.0019587356365717845
3484.0,0.0019587356365717845
3483.0,0.0020023635919956817
3482.0,0.0021769192542746563
3481.0,0.0023078820582733695
3480.0,0.002395212539545666
3479.0,0.002351545103793873
3478.0,0.0022642234021015284
3477.0,0.0022642234021015284
3476.0,0.0022642234021015284
3475.0,0.0023078820582733695
3474.0,0.0022642234021015284
3473.0,0.0022642234021015284
3472.0,0.0022642234021015284
3471.0,0.0022642234021015284
3470.0,0.0022642234021015284
3469.0,0.0021769192542746563
3468.0,0.0020459959305969555
3467.0,0.0020023635919956817
3466.0,0.0020023635919956817
3465.0,0.0021332737608552588
3464.0,0.0022205691343961664
3463.0,0.0022642234021015284
3462.0,0.0023078820582733695
3461.0,0.002395212539545666
3460.0,0.0025262411970197185
3459.0,0.002701007590486082
3458.0,0.0028321285541661467
3457.0,0.0028758443407954637
3456.0,0.0028321285541661467
3455.0,0.002701007590486082
3454.0,0.002569926202528716
3453.0,0.0025262411970197185
3452.0,0.0025262411970197185
3451.0,0.002569926202528716
3450.0,0.002701007590486082
3449.0,0.0028321285541661467
3448.0,0.0029632891174733444
3447.0,0.003050751504618754
3446.0,0.0031819781204844855
3445.0,0.0032694845648473247
3444.0,0.0033570086445275926
3443.0,0.0034007772998332353
3442.0,0.0034445503666347133
3441.0,0.0034445503666347133
3440.0,0.0033570086445275926
3439.0,0.0033132443998284966
3438.0,0.0032694845648473247
3437.0,0.0032257291386954545
3436.0,0.0032257291386954545
3435.0,0.0032257291386954545
3434.0,0.0031819781204844855
3433.0,0.0031382315093266833
3432.0,0.0031382315093266833
3431.0,0.0031819781204844855
3430.0,0.0032694845648473247
3429.0,0.0034007772998332353
3428.0,0.0035321097382827737
3427.0,0.003619686766589858
3426.0,0.0036634819042162814
3425.0,0.0037510854308679953
3424.0,0.0038387066319929275
3423.0,0.0038825238627120395
3422.0,0.0038387066319929275
3421.0,0.0037510854308679953
3420.0,0.003707281458678491
3419.0,0.0036634819042162814
3418.0,0.0036634819042162814
3417.0,0.0036634819042162814
3416.0,0.003707281458678491
3415.0,0.0038825238627120395
3414.0,0.004145520125434121
3413.0,0.004320939488377862
3412.0,0.0043648054024501
3411.0,0.004277078004534696
3410.0,0.004189368323957332
3409.0,0.004145520125434121
3408.0,0.004233220950025984
3407.0,0.004320939488377862
3406.0,0.004408675747646695
3405.0,0.004408675747646695
3404.0,0.004452550524862486
3403.0,0.004452550524862486
3402.0,0.004408675747646695
3401.0,0.0043648054024501
3400.0,0.0043648054024501
3399.0,0.004408675747646695
3398.0,0.0044964297349936455
3397.0,0.004540313378935901
3396.0,0.0044964297349936455
3395.0,0.004452550524862486
3394.0,0.004452550524862486
3393.0,0.0044964297349936455
3392.0,0.00458420145758498
3391.0,0.004628093971837721
3390.0,0.004671990922590297
3389.0,0.004715892310740433
3388.0,0.004759798137184523
3387.0,0.004715892310740433
3386.0,0.004628093971837721
3385.0,0.0044964297349936455
3384.0,0.004320939488377862
3383.0,0.004145520125434121
3382.0,0.004101676353562844
3381.0,0.004145520125434121
3380.0,0.0043648054024501
3379.0,0.004628093971837721
3378.0,0.004759798137184523
3377.0,0.004803708402820517
3376.0,0.004715892310740433
3375.0,0.004628093971837721
3374.0,0.00458420145758498
3373.0,0.004628093971837721
3372.0,0.004671990922590297
3371.0,0.004715892310740433
3370.0,0.004628093971837721
3369.0,0.0044964297349936455
3368.0,0.0043648054024501
3367.0,0.004277078004534696
3366.0,0.004189368323957332
3365.0,0.004233220950025984
3364.0,0.004320939488377862
3363.0,0.004452550524862486
3362.0,0.004540313378935901
3361.0,0.00458420145758498
3360.0,0.0044964297349936455
3359.0,0.004452550524862486
3358.0,0.0044964297349936455
3357.0,0.004628093971837721
3356.0,0.00484762310854614
3355.0,0.005023326350308999
3354.0,0.005067263269958211
3353.0,0.005023326350308999
3352.0,0.004935465843858511
3351.0,0.004803708402820517
3350.0,0.004628093971837721
3349.0,0.004540313378935901
3348.0,0.004452550524862486
3347.0,0.004452550524862486
3346.0,0.004408675747646695
3345.0,0.0043648054024501
3344.0,0.0043648054024501
3343.0,0.0043648054024501
3342.0,0.004408675747646695
3341.0,0.004452550524862486
3340.0,0.004540313378935901
3339.0,0.004628093971837721
3338.0,0.004715892310740433
3337.0,0.004715892310740433
3336.0,0.004715892310740433
3335.0,0.00458420145758498
3334.0,0.004408675747646695
3333.0,0.004320939488377862
3332.0,0.004320939488377862
3331.0,0.004452550524862486
3330.0,0.00458420145758498
3329.0,0.004628093971837721
3328.0,0.00458420145758498
3327.0,0.004452550524862486
3326.0,0.004408675747646695
3325.0,0.004320939488377862
3324.0,0.004233220950025984
3323.0,0.004101676353562844
3322.0,0.0040578370074493275
3321.0,0.004145520125434121
3320.0,0.004320939488377862
3319.0,0.0044964297349936455
3318.0,0.004628093971837721
3317.0,0.004628093971837721
3316.0,0.0044964297349936455
3315.0,0.004277078004534696
3314.0,0.003970171588923321
3313.0,0.003707281458678491
3312.0,0.0035758960449088217
3311.0,0.003619686766589858
3310.0,0.003794893821675638
3309.0,0.00401400208620073
3308.0,0.004101676353562844
3307.0,0.0040578370074493275
3306.0,0.003926345514724705
3305.0,0.003794893821675638
3304.0,0.003707281458678491
3303.0,0.003619686766589858
3302.0,0.003619686766589858
3301.0,0.003619686766589858
3300.0,0.0036634819042162814
3299.0,0.003707281458678491
3298.0,0.003794893821675638
3297.0,0.0038387066319929275
3296.0,0.0038387066319929275
3295.0,0.0037510854308679953
3294.0,0.003619686766589858
3293.0,0.003488327845821315
3292.0,0.0034445503666347133
3291.0,0.0034445503666347133
3290.0,0.0034445503666347133
3289.0,0.0034445503666347133
3288.0,0.0034445503666347133
3287.0,0.0034445503666347133
3286.0,0.0034445503666347133
3285.0,0.0034445503666347133
3284.0,0.0034007772998332353
3283.0,0.0033132443998284966
3282.0,0.0032694845648473247
3281.0,0.0033132443998284966
3280.0,0.0034445503666347133
3279.0,0.0036634819042162814
3278.0,0.003794893821675638
3277.0,0.0038387066319929275
3276.0,0.003707281458678491
3275.0,0.003488327845821315
3274.0,0.0032694845648473247
3273.0,0.0032694845648473247
3272.0,0.0034007772998332353
3271.0,0.0035758960449088217
3270.0,0.003619686766589858
3269.0,0.0035758960449088217
3268.0,0.0035321097382827737
3267.0,0.003488327845821315
3266.0,0.0034445503666347133
3265.0,0.0033570086445275926
3264.0,0.0032694845648473247
3263.0,0.0032257291386954545
3262.0,0.0032257291386954545
3261.0,0.0032694845648473247
3260.0,0.0033570086445275926
3259.0,0.0033570086445275926
3258.0,0.0032694845648473247
3257.0,0.0031819781204844855
3256.0,0.0031819781204844855
3255.0,0.0032257291386954545
3254.0,0.0032694845648473247
3253.0,0.0033570086445275926
3252.0,0.0033570086445275926
3251.0,0.0033132443998284966
3250.0,0.0033132443998284966
3249.0,0.0033570086445275926
3248.0,0.0034007772998332353
3247.0,0.0034445503666347133
3246.0,0.0033570086445275926
3245.0,0.0032257291386954545
3244.0,0.0031382315093266833
3243.0,0.0030944893043338695
3242.0,0.0030944893043338695
3241.0,0.003050751504618754
3240.0,0.0029632891174733444
3239.0,0.0028758443407954637
3238.0,0.0027884171674950053
3237.0,0.0028321285541661467
3236.0,0.0029632891174733444
3235.0,0.0031382315093266833
3234.0,0.0032694845648473247
3233.0,0.0033132443998284966
3232.0,0.0032694845648473247
3231.0,0.0031382315093266833
3230.0,0.0029195645282691363
3229.0,0.0027884171674950053
3228.0,0.0026573093983774942
3227.0,0.002613615602686581
3226.0,0.0026573093983774942
3225.0,0.0026573093983774942
3224.0,0.0026573093983774942
3223.0,0.0026573093983774942
3222.0,0.002569926202528716
3221.0,0.002569926202528716
3220.0,0.002613615602686581
3219.0,0.0027884171674950053
3218.0,0.0029195645282691363
3217.0,0.0029632891174733444
3216.0,0.0029195645282691363
3215.0,0.0028321285541661467
3214.0,0.002701007590486082
3213.0,0.002613615602686581
3212.0,0.002569926202528716
3211.0,0.002569926202528716
3210.0,0.0026573093983774942
3209.0,0.0027884171674950053
3208.0,0.0029195645282691363
3207.0,0.0029632891174733444
3206.0,0.0029195645282691363
3205.0,0.0027447101798967477
3204.0,0.002482560585275184
3203.0,0.0022205691343961664
3202.0,0.0020459959305969555
3201.0,0.002089632653256679
3200.0,0.0022205691343961664
3199.0,0.002395212539545666
3198.0,0.002482560585275184
3197.0,0.002351545103793873
3196.0,0.0021769192542746563
3195.0,0.0020459959305969555
3194.0,0.002089632653256679
3193.0,0.0022205691343961664
3192.0,0.0022642234021015284
3191.0,0.0022642234021015284
3190.0,0.0022205691343961664
3189.0,0.0021332737608552588
3188.0,0.0020459959305969555
3187.0,0.0018714928717336043
3186.0,0.0016970599014589638
3185.0,0.0015662811355310335
3184.0,0.0014791171649619628
3183.0,0.0014355417390583547
3182.0,0.001348404001626502
3181.0,0.0012177301682640973
3180.0,0.0011306361176557367
3179.0,0.0010870956412141197
3178.0,0.0011306361176557367
3177.0,0.0012177301682640973
3176.0,0.0012177301682640973
3175.0,0.0011306361176557367
3174.0,0.0009565003968372565
3173.0,0.0008259444115150671
3172.0,0.0007824344698965646
3171.0,0.0009129773741116676
3170.0,0.0011306361176557367
3169.0,0.001304841688344327
3168.0,0.0014355417390583547
3167.0,0.0014355417390583547
3166.0,0.0012612837441823288
3165.0,0.0010870956412141197
3164.0,0.0009129773741116676
3163.0,0.000869458712629001
3162.0,0.0008259444115150671
3161.0,0.0008259444115150671
3160.0,0.000869458712629001
3159.0,0.000869458712629001
3158.0,0.000869458712629001
3157.0,0.0008259444115150671
3156.0,0.0007824344698965646
3155.0,0.0007824344698965646
3154.0,0.0007824344698965646
3153.0,0.0007389288868995258
3152.0,0.0006519307932786322
3151.0,0.000521466320689834
3150.0,0.0004779868710962365
3149.0,0.000521466320689834
3148.0,0.0006084382809090627
3147.0,0.0006519307932786322
3146.0,0.0005649501236701937
3145.0,0.00043451177401765406
3144.0,0.00030411258916074324
3143.0,0.00021720154586435392
3142.0,0.00026065489343207737
3141.0,0.00026065489343207737
3140.0,0.00021720154586435392
3139.0,0.0001303078917322953
3138.0,8.686758342868472e-05
3137.0,8.686758342868472e-05
3136.0,0.00017375254558760211
3135.0,0.00021720154586435392
3134.0,0.00021720154586435392
3133.0,0.00017375254558760211
3132.0,0.0001303078917322953
3131.0,0.0001303078917322953
3130.0,0.0001303078917322953
3129.0,0.0001303078917322953
3128.0,4.343161980746579e-05
3127.0,-8.685021164911433e-05
3126.0,-0.00013026880522692963
3125.0,-0.00013026880522692963
3124.0,-0.00013026880522692963
3123.0,-0.00017368305846510168
3122.0,-0.0002604985473904087
3121.0,-0.00030389978481260016
3120.0,-0.0003472966853634851
3119.0,-0.0003472966853634851
3118.0,-0.00030389978481260016
3117.0,-0.00030389978481260016
3116.0,-0.00030389978481260016
3115.0,-0.0003472966853634851
3114.0,-0.00043407747931878404
3113.0,-0.0005208409361854294
3112.0,-0.0005642161653756084
3111.0,-0.0005642161653756084
3110.0,-0.0005208409361854294
3109.0,-0.0005642161653756084
3108.0,-0.0006075870628903246
3107.0,-0.0006075870628903246
3106.0,-0.0005642161653756084
3105.0,-0.00043407747931878404
3104.0,-0.0002604985473904087
3103.0,-0.00017368305846510168
3102.0,-0.00017368305846510168
3101.0,-0.0002604985473904087
3100.0,-0.0003472966853634851
3099.0,-0.00043407747931878404
3098.0,-0.0005208409361854294
3097.0,-0.0006075870628903246
3096.0,-0.0006075870628903246
3095.0,-0.0005642161653756084
3094.0,-0.0004774613744551459
3093.0,-0.0004774613744551459
3092.0,-0.0005208409361854294
3091.0,-0.0006075870628903246
3090.0,-0.0006943158663546001
3089.0,-0.0007376737740329986
3088.0,-0.0007810273534953893
3087.0,-0.0007810273534953893
3086.0,-0.0007810273534953893
3085.0,-0.0007810273534953893
3084.0,-0.0008677215312267172
3083.0,-0.0009110621312231615
3082.0,-0.0009977303577937136
3081.0,-0.001041057986093552
3080.0,-0.001041057986093552
3079.0,-0.001041057986093552
3078.0,-0.0010843812922201046
3077.0,-0.0010843812922201046
3076.0,-0.0011277002770349043
3075.0,-0.0010843812922201046
3074.0,-0.001041057986093552
3073.0,-0.0009543984064577238
3072.0,-0.0008677215312267172
3071.0,-0.0008677215312267172
3070.0,-0.0009543984064577238
3069.0,-0.0011277002770349043
3068.0,-0.001344230411601366
3067.0,-0.0015173768235041685
3066.0,-0.0016039241497978196
3065.0,-0.0016039241497978196
3064.0,-0.0016039241497978196
3063.0,-0.0016039241497978196
3062.0,-0.0016039241497978196
3061.0,-0.0016039241497978196
3060.0,-0.0015606526425728795
3059.0,-0.0014308122463981832
3058.0,-0.0013009330204178937
3057.0,-0.00121432528617893
3056.0,-0.0011710149414008164
3055.0,-0.0011710149414008164
3054.0,-0.001257631312230778
3053.0,-0.001344230411601366
3052.0,-0.0014308122463981832
3051.0,-0.0015173768235041685
3050.0,-0.0015173768235041685
3049.0,-0.0015173768235041685
3048.0,-0.001474096691732818
3047.0,-0.001474096691732818
3046.0,-0.001474096691732818
3045.0,-0.0015173768235041685
3044.0,-0.0015606526425728795
3043.0,-0.0015606526425728795
3042.0,-0.0015606526425728795
3041.0,-0.0015173768235041685
3040.0,-0.0014308122463981832
3039.0,-0.0014308122463981832
3038.0,-0.001474096691732818
3037.0,-0.0015173768235041685
3036.0,-0.0016039241497978196
3035.0,-0.0016471913460383014
3034.0,-0.0016904542321527494
3033.0,-0.0016904542321527494
3032.0,-0.0016904542321527494
3031.0,-0.0016904542321527494
3030.0,-0.0016904542321527494
3029.0,-0.001733712809000476
3028.0,-0.001776967077439462
3027.0,-0.001776967077439462
3026.0,-0.001733712809000476
3025.0,-0.001733712809000476
3024.0,-0.0016904542321527494
3023.0,-0.0016471913460383014
3022.0,-0.0016039241497978196
3021.0,-0.0015606526425728795
3020.0,-0.0015606526425728795
3019.0,-0.0015606526425728795
3018.0,-0.0015173768235041685
3017.0,-0.0015173768235041685
3016.0,-0.0015173768235041685
3015.0,-0.0015173768235041685
3014.0,-0.0014308122463981832
3013.0,-0.001344230411601366
3012.0,-0.0011710149414008164
3011.0,-0.001041057986093552
3010.0,-0.0009543984064577238
3009.0,-0.0008677215312267172
3008.0,-0.0007810273534953893
3007.0,-0.0007376737740329986
3006.0,-0.0006943158663546001
3005.0,-0.0006509536295951079
3004.0,-0.0005208409361854294
3003.0,-0.0003906892499099257
3002.0,-0.0002604985473904087
3001.0,-4.3427276862573194e-05
3000.0,0.0001303078917322953
2999.0,0.00026065489343207737
2998.0,0.00030411258916074324
2997.0,0.0003475746339209884
2996.0,0.0003475746339209884
2995.0,0.0003475746339209884
2994.0,0.00021720154586435392
2993.0,8.686758342868472e-05
2992.0,-4.3427276862573194e-05
2991.0,-8.685021164911433e-05
2990.0,-0.00017368305846510168
2989.0,-0.00030389978481260016
2988.0,-0.0005208409361854294
2987.0,-0.0007376737740329986
2986.0,-0.0008677215312267172
2985.0,-0.0009110621312231615
2984.0,-0.0009110621312231615
2983.0,-0.0008677215312267172
2982.0,-0.0009110621312231615
2981.0,-0.0010843812922201046
2980.0,-0.0013009330204178937
2979.0,-0.001474096691732818
2978.0,-0.0015606526425728795
2977.0,-0.0015173768235041685
2976.0,-0.0014308122463981832
2975.0,-0.0013875234866409514
2974.0,-0.0013875234866409514
2973.0,-0.001474096691732818
2972.0,-0.0015606526425728795
2971.0,-0.0016471913460383014
2970.0,-0.0016471913460383014
2969.0,-0.0016471913460383014
2968.0,-0.0015606526425728795
2967.0,-0.0015173768235041685
2966.0,-0.001474096691732818
2965.0,-0.001474096691732818
2964.0,-0.0015173768235041685
2963.0,-0.0015173768235041685
2962.0,-0.0015173768235041685
2961.0,-0.001474096691732818
2960.0,-0.0013875234866409514
2959.0,-0.001257631312230778
2958.0,-0.0011277002770349043
2957.0,-0.0009977303577937136
2956.0,-0.0009110621312231615
2955.0,-0.0008677215312267172
2954.0,-0.0008243766056055257
2953.0,-0.0008677215312267172
2952.0,-0.0008243766056055257
2951.0,-0.0007376737740329986
2950.0,-0.0006075870628903246
2949.0,-0.0003906892499099257
2948.0,-0.0002604985473904087
2947.0,-0.00013026880522692963
2946.0,-8.685021164911433e-05
2945.0,0.0
2944.0,0.0
2943.0,0.0
2942.0,-0.00013026880522692963
2941.0,-0.00030389978481260016
2940.0,-0.0004774613744551459
2939.0,-0.0006509536295951079
2938.0,-0.0008677215312267172
2937.0,-0.0009977303577937136
2936.0,-0.0010843812922201046
2935.0,-0.00121432528617893
2934.0,-0.0013875234866409514
2933.0,-0.0016039241497978196
2932.0,-0.001776967077439462
2931.0,-0.0019067040408846658
2930.0,-0.0019499410842680476
2929.0,-0.0019067040408846658
2928.0,-0.0018202170383281313
2927.0,-0.001733712809000476
2926.0,-0.0016904542321527494
2925.0,-0.0016904542321527494
2924.0,-0.0018202170383281313
2923.0,-0.0019931738235303698
2922.0,-0.0021660617565077978
2921.0,-0.0022092729880145434
2920.0,-0.0021660617565077978
2919.0,-0.0021228462251614566
2918.0,-0.0020796263931210923
2917.0,-0.0020364022595291686
2916.0,-0.0020364022595291686
2915.0,-0.0021228462251614566
2914.0,-0.0022092729880145434
2913.0,-0.0022956825549340643
2912.0,-0.0023820749327607693
2911.0,-0.002338880892056583
2910.0,-0.0022524799205383417
2909.0,-0.0021660617565077978
2908.0,-0.0021228462251614566
2907.0,-0.0020796263931210923
2906.0,-0.0020796263931210923
2905.0,-0.0020796263931210923
2904.0,-0.0021660617565077978
2903.0,-0.0022956825549340643
2902.0,-0.0023820749327607693
2901.0,-0.0024684501283323
2900.0,-0.0024684501283323
2899.0,-0.0024684501283323
2898.0,-0.0023820749327607693
2897.0,-0.002338880892056583
2896.0,-0.0022524799205383417
2895.0,-0.0022524799205383417
2894.0,-0.0022092729880145434
2893.0,-0.0022092729880145434
2892.0,-0.0021660617565077978
2891.0,-0.0021660617565077978
2890.0,-0.0021660617565077978
2889.0,-0.0022092729880145434
2888.0,-0.0022524799205383417
2887.0,-0.0022956825549340643
2886.0,-0.0022524799205383417
2885.0,-0.0022092729880145434
2884.0,-0.0021660617565077978
2883.0,-0.0021660617565077978
2882.0,-0.0021660617565077978
2881.0,-0.0021660617565077978
2880.0,-0.0021660617565077978
2879.0,-0.0021660617565077978
2878.0,-0.0022092729880145434
2877.0,-0.0022524799205383417
2876.0,-0.002338880892056583
2875.0,-0.0024252646779014952
2874.0,-0.0024684501283323
2873.0,-0.0025548081484823015
2872.0,-0.0026411490000399773
2871.0,-0.002684312989729598
2870.0,-0.002684312989729598
2869.0,-0.002597980719908577
2868.0,-0.0025116312849080558
2867.0,-0.0024684501283323
2866.0,-0.0025116312849080558
2865.0,-0.0025548081484823015
2864.0,-0.002597980719908577
2863.0,-0.0026411490000399773
2862.0,-0.0026411490000399773
2861.0,-0.0025116312849080558
2860.0,-0.0023820749327607693
2859.0,-0.0022956825549340643
2858.0,-0.0022956825549340643
2857.0,-0.0022956825549340643
2856.0,-0.002338880892056583
2855.0,-0.0023820749327607693
2854.0,-0.0024252646779014952
2853.0,-0.0025116312849080558
2852.0,-0.0025548081484823015
2851.0,-0.0025116312849080558
2850.0,-0.0025116312849080558
2849.0,-0.0025116312849080558
2848.0,-0.0025548081484823015
2847.0,-0.002597980719908577
2846.0,-0.002597980719908577
2845.0,-0.002597980719908577
2844.0,-0.0025548081484823015
2843.0,-0.0025116312849080558
2842.0,-0.0024684501283323
2841.0,-0.0025116312849080558
2840.0,-0.002597980719908577
2839.0,-0.0027274726898296464
2838.0,-0.0028137792246734072
2837.0,-0.0028137792246734072
2836.0,-0.0027706281011936618
2835.0,-0.0026411490000399773
2834.0,-0.0025116312849080558
2833.0,-0.0023820749327607693
2832.0,-0.002338880892056583
2831.0,-0.0023820749327607693
2830.0,-0.0024252646779014952
2829.0,-0.0024252646779014952
2828.0,-0.0024684501283323
2827.0,-0.0025116312849080558
2826.0,-0.0025548081484823015
2825.0,-0.002597980719908577
2824.0,-0.0026411490000399773
2823.0,-0.0027274726898296464
2822.0,-0.0028137792246734072
2821.0,-0.0028137792246734072
2820.0,-0.0028137792246734072
2819.0,-0.0027274726898296464
2818.0,-0.002684312989729598
2817.0,-0.002597980719908577
2816.0,-0.0025548081484823015
2815.0,-0.0025548081484823015
2814.0,-0.0025116312849080558
2813.0,-0.0025116312849080558
2812.0,-0.0025116312849080558
2811.0,-0.0025116312849080558
2810.0,-0.0025548081484823015
2809.0,-0.002684312989729598
2808.0,-0.0028137792246734072
2807.0,-0.002900068611387585
2806.0,-0.002900068611387585
2805.0,-0.002856926061120646
2804.0,-0.0027706281011936618
2803.0,-0.002684312989729598
2802.0,-0.002597980719908577
2801.0,-0.0025548081484823015
2800.0,-0.0025548081484823015
2799.0,-0.0025116312849080558
2798.0,-0.0025116312849080558
2797.0,-0.0025548081484823015
2796.0,-0.0026411490000399773
2795.0,-0.002684312989729598
2794.0,-0.0027706281011936618
2793.0,-0.002856926061120646
2792.0,-0.0029432068763250996
2791.0,-0.0029863408567849525
2790.0,-0.0029432068763250996
2789.0,-0.002856926061120646
2788.0,-0.0027274726898296464
2787.0,-0.0026411490000399773
2786.0,-0.002597980719908577
2785.0,-0.002597980719908577
2784.0,-0.0026411490000399773
2783.0,-0.0027274726898296464
2782.0,-0.0028137792246734072
2781.0,-0.0027706281011936618
2780.0,-0.0027274726898296464
2779.0,-0.002684312989729598
2778.0,-0.002684312989729598
2777.0,-0.0027274726898296464
2776.0,-0.0028137792246734072
2775.0,-0.002856926061120646
2774.0,-0.002856926061120646
2773.0,-0.002856926061120646
2772.0,-0.002900068611387585
2771.0,-0.0029432068763250996
2770.0,-0.0029863408567849525
2769.0,-0.0029432068763250996
2768.0,-0.0029432068763250996
2767.0,-0.002900068611387585
2766.0,-0.002900068611387585
2765.0,-0.002856926061120646
2764.0,-0.002856926061120646
2763.0,-0.002856926061120646
2762.0,-0.002900068611387585
2761.0,-0.002900068611387585
2760.0,-0.002856926061120646
2759.0,-0.0027706281011936618
2758.0,-0.0027274726898296464
2757.0,-0.002684312989729598
2756.0,-0.0027706281011936618
2755.0,-0.002856926061120646
2754.0,-0.0029432068763250996
2753.0,-0.003029470553618019
2752.0,-0.0030725959676747294
2751.0,-0.003029470553618019
2750.0,-0.0029432068763250996
2749.0,-0.002856926061120646
2748.0,-0.002900068611387585
2747.0,-0.0029863408567849525
2746.0,-0.0030725959676747294
2745.0,-0.003158833950862139
2744.0,-0.003158833950862139
2743.0,-0.003115717099805959
2742.0,-0.0029863408567849525
2741.0,-0.002900068611387585
2740.0,-0.002856926061120646
2739.0,-0.002856926061120646
2738.0,-0.002900068611387585
2737.0,-0.0029432068763250996
2736.0,-0.0029432068763250996
2735.0,-0.0029432068763250996
2734.0,-0.0029432068763250996
2733.0,-0.002900068611387585
2732.0,-0.0028137792246734072
2731.0,-0.0027706281011936618
2730.0,-0.0027706281011936618
2729.0,-0.0027274726898296464
2728.0,-0.0027706281011936618
2727.0,-0.0028137792246734072
2726.0,-0.002900068611387585
2725.0,-0.003029470553618019
2724.0,-0.003115717099805959
2723.0,-0.003115717099805959
2722.0,-0.0030725959676747294
2721.0,-0.0030725959676747294
2720.0,-0.0030725959676747294
2719.0,-0.0030725959676747294
2718.0,-0.003115717099805959
2717.0,-0.0030725959676747294
2716.0,-0.0030725959676747294
2715.0,-0.003115717099805959
2714.0,-0.003158833950862139
2713.0,-0.003158833950862139
2712.0,-0.0030725959676747294
2711.0,-0.0029432068763250996
2710.0,-0.002856926061120646
2709.0,-0.0028137792246734072
2708.0,-0.002900068611387585
2707.0,-0.0029863408567849525
2706.0,-0.0030725959676747294
2705.0,-0.0030725959676747294
2704.0,-0.003029470553618019
2703.0,-0.003029470553618019
2702.0,-0.003029470553618019
2701.0,-0.0030725959676747294
2700.0,-0.0030725959676747294
2699.0,-0.0029863408567849525
2698.0,-0.002856926061120646
2697.0,-0.0027706281011936618
2696.0,-0.0027706281011936618
2695.0,-0.0028137792246734072
2694.0,-0.002856926061120646
2693.0,-0.002856926061120646
2692.0,-0.002856926061120646
2691.0,-0.0028137792246734072
2690.0,-0.0028137792246734072
2689.0,-0.0028137792246734072
2688.0,-0.0028137792246734072
2687.0,-0.0028137792246734072
2686.0,-0.0028137792246734072
2685.0,-0.0028137792246734072
2684.0,-0.002856926061120646
2683.0,-0.002856926061120646
2682.0,-0.002900068611387585
2681.0,-0.0029863408567849525
2680.0,-0.003029470553618019
2679.0,-0.003029470553618019
2678.0,-0.0029863408567849525
2677.0,-0.002856926061120646
2676.0,-0.0028137792246734072
2675.0,-0.0027706281011936618
2674.0,-0.0028137792246734072
2673.0,-0.002856926061120646
2672.0,-0.002900068611387585
2671.0,-0.0029432068763250996
2670.0,-0.0029863408567849525
2669.0,-0.003029470553618019
2668.0,-0.0030725959676747294
2667.0,-0.003115717099805959
2666.0,-0.0030725959676747294
2665.0,-0.003029470553618019
2664.0,-0.0029863408567849525
2663.0,-0.0029863408567849525
2662.0,-0.0029863408567849525
2661.0,-0.0029863408567849525
2660.0,-0.002900068611387585
2659.0,-0.0028137792246734072
2658.0,-0.0027706281011936618
2657.0,-0.0027274726898296464
2656.0,-0.0027274726898296464
2655.0,-0.0027706281011936618
2654.0,-0.002856926061120646
2653.0,-0.002900068611387585
2652.0,-0.0029432068763250996
2651.0,-0.0029432068763250996
2650.0,-0.0029432068763250996
2649.0,-0.0029432068763250996
2648.0,-0.002900068611387585
2647.0,-0.002856926061120646
2646.0,-0.002856926061120646
2645.0,-0.0028137792246734072
2644.0,-0.0028137792246734072
2643.0,-0.0027706281011936618
2642.0,-0.0027706281011936618
2641.0,-0.0027274726898296464
2640.0,-0.002684312989729598
2639.0,-0.002684312989729598
2638.0,-0.0027706281011936618
2637.0,-0.0028137792246734072
2636.0,-0.002856926061120646
2635.0,-0.0028137792246734072
2634.0,-0.0027274726898296464
2633.0,-0.0027274726898296464
2632.0,-0.0027274726898296464
2631.0,-0.0027706281011936618
2630.0,-0.0027706281011936618
2629.0,-0.0028137792246734072
2628.0,-0.0028137792246734072
2627.0,-0.002856926061120646
2626.0,-0.002856926061120646
2625.0,-0.0028137792246734072
2624.0,-0.0028137792246734072
2623.0,-0.0028137792246734072
2622.0,-0.002900068611387585
2621.0,-0.0029432068763250996
2620.0,-0.0029432068763250996
2619.0,-0.0029432068763250996
2618.0,-0.0029432068763250996
2617.0,-0.002900068611387585
2616.0,-0.002900068611387585
2615.0,-0.0029432068763250996
2614.0,-0.0029863408567849525
2613.0,-0.003029470553618019
2612.0,-0.003029470553618019
2611.0,-0.0030725959676747294
2610.0,-0.003115717099805959
2609.0,-0.003158833950862139
2608.0,-0.003201946521692367
2607.0,-0.003201946521692367
2606.0,-0.003158833950862139
2605.0,-0.003158833950862139
2604.0,-0.003158833950862139
2603.0,-0.003158833950862139
2602.0,-0.003115717099805959
2601.0,-0.003029470553618019
2600.0,-0.0029432068763250996
2599.0,-0.002856926061120646
2598.0,-0.0027706281011936618
2597.0,-0.0027274726898296464
2596.0,-0.0027274726898296464
2595.0,-0.0027274726898296464
2594.0,-0.0027706281011936618
2593.0,-0.002856926061120646
2592.0,-0.002900068611387585
2591.0,-0.002900068611387585
2590.0,-0.0029432068763250996
2589.0,-0.0029432068763250996
2588.0,-0.0029863408567849525
2587.0,-0.0029863408567849525
2586.0,-0.0029863408567849525
2585.0,-0.0029863408567849525
2584.0,-0.002900068611387585
2583.0,-0.002856926061120646
2582.0,-0.0027706281011936618
2581.0,-0.0027274726898296464
2580.0,-0.0026411490000399773
2579.0,-0.002597980719908577
2578.0,-0.002597980719908577
2577.0,-0.002597980719908577
2576.0,-0.0026411490000399773
2575.0,-0.0026411490000399773
2574.0,-0.0026411490000399773
2573.0,-0.002684312989729598
2572.0,-0.0027274726898296464
2571.0,-0.0028137792246734072
2570.0,-0.002900068611387585
2569.0,-0.0029432068763250996
2568.0,-0.003029470553618019
2567.0,-0.0030725959676747294
2566.0,-0.003115717099805959
2565.0,-0.003115717099805959
2564.0,-0.003115717099805959
2563.0,-0.0030725959676747294
2562.0,-0.003029470553618019
2561.0,-0.003029470553618019
2560.0,-0.0030725959676747294
2559.0,-0.003029470553618019
2558.0,-0.0029863408567849525
2557.0,-0.0029432068763250996
2556.0,-0.002900068611387585
2555.0,-0.0029432068763250996
2554.0,-0.003029470553618019
2553.0,-0.0030725959676747294
2552.0,-0.003029470553618019
2551.0,-0.002900068611387585
2550.0,-0.0027274726898296464
2549.0,-0.0026411490000399773
2548.0,-0.002597980719908577
2547.0,-0.002684312989729598
2546.0,-0.0027706281011936618
2545.0,-0.002856926061120646
2544.0,-0.002900068611387585
2543.0,-0.0029432068763250996
2542.0,-0.0029863408567849525
2541.0,-0.0029432068763250996
2540.0,-0.002900068611387585
2539.0,-0.002856926061120646
2538.0,-0.0027706281011936618
2537.0,-0.0027274726898296464
2536.0,-0.002684312989729598
2535.0,-0.0027274726898296464
2534.0,-0.0028137792246734072
2533.0,-0.002900068611387585
2532.0,-0.0029432068763250996
2531.0,-0.0029432068763250996
2530.0,-0.0029432068763250996
2529.0,-0.002900068611387585
2528.0,-0.002900068611387585
2527.0,-0.0029432068763250996
2526.0,-0.0029863408567849525
2525.0,-0.003029470553618019
2524.0,-0.003029470553618019
2523.0,-0.0029432068763250996
2522.0,-0.0029432068763250996
2521.0,-0.0029432068763250996
2520.0,-0.0029432068763250996
2519.0,-0.0029432068763250996
2518.0,-0.002900068611387585
2517.0,-0.002856926061120646
2516.0,-0.0028137792246734072
2515.0,-0.002900068611387585
2514.0,-0.0029432068763250996
2513.0,-0.0029863408567849525
2512.0,-0.0029432068763250996
2511.0,-0.002900068611387585
2510.0,-0.002900068611387585
2509.0,-0.002900068611387585
2508.0,-0.0029432068763250996
2507.0,-0.0029863408567849525
2506.0,-0.0029863408567849525
2505.0,-0.0029432068763250996
2504.0,-0.0029432068763250996
2503.0,-0.0029432068763250996
2502.0,-0.0029432068763250996
2501.0,-0.0029432068763250996
2500.0,-0.0029863408567849525
2499.0,-0.003029470553618019
2498.0,-0.0030725959676747294
2497.0,-0.003115717099805959
2496.0,-0.0030725959676747294
2495.0,-0.003029470553618019
2494.0,-0.0029863408567849525
2493.0,-0.0029432068763250996
2492.0,-0.002900068611387585
2491.0,-0.002900068611387585
2490.0,-0.0029432068763250996
2489.0,-0.0029863408567849525
2488.0,-0.003029470553618019
2487.0,-0.0030725959676747294
2486.0,-0.0030725959676747294
2485.0,-0.003115717099805959
2484.0,-0.003115717099805959
2483.0,-0.0030725959676747294
2482.0,-0.003029470553618019
2481.0,-0.0029863408567849525
2480.0,-0.0029432068763250996
2479.0,-0.0029432068763250996
2478.0,-0.0029432068763250996
2477.0,-0.0029432068763250996
2476.0,-0.0029432068763250996
2475.0,-0.0029432068763250996
2474.0,-0.0029432068763250996
2473.0,-0.0029863408567849525
2472.0,-0.003029470553618019
2471.0,-0.0030725959676747294
2470.0,-0.0030725959676747294
2469.0,-0.003029470553618019
2468.0,-0.003029470553618019
2467.0,-0.0029863408567849525
2466.0,-0.003029470553618019
2465.0,-0.003029470553618019
2464.0,-0.0030725959676747294
2463.0,-0.0030725959676747294
2462.0,-0.0030725959676747294
2461.0,-0.003029470553618019
2460.0,-0.0029432068763250996
2459.0,-0.0029432068763250996
2458.0,-0.0029863408567849525
2457.0,-0.003029470553618019
2456.0,-0.0030725959676747294
2455.0,-0.0030725959676747294
2454.0,-0.0030725959676747294
2453.0,-0.0030725959676747294
2452.0,-0.0030725959676747294
2451.0,-0.0030725959676747294
2450.0,-0.0030725959676747294
2449.0,-0.0030725959676747294
2448.0,-0.0030725959676747294
2447.0,-0.003029470553618019
2446.0,-0.0029863408567849525
2445.0,-0.002900068611387585
2444.0,-0.002900068611387585
2443.0,-0.002900068611387585
2442.0,-0.0029863408567849525
2441.0,-0.003029470553618019
2440.0,-0.0030725959676747294
2439.0,-0.0030725959676747294
2438.0,-0.0030725959676747294
2437.0,-0.003029470553618019
2436.0,-0.0029432068763250996
2435.0,-0.002900068611387585
2434.0,-0.002900068611387585
2433.0,-0.002900068611387585
2432.0,-0.0029863408567849525
2431.0,-0.003029470553618019
2430.0,-0.0030725959676747294
2429.0,-0.003029470553618019
2428.0,-0.003029470553618019
2427.0,-0.0029863408567849525
2426.0,-0.0029432068763250996
2425.0,-0.0029432068763250996
2424.0,-0.0029432068763250996
2423.0,-0.0029432068763250996
2422.0,-0.0029863408567849525
2421.0,-0.003029470553618019
2420.0,-0.0030725959676747294
2419.0,-0.003115717099805959
2418.0,-0.003158833950862139
2417.0,-0.003158833950862139
2416.0,-0.0030725959676747294
2415.0,-0.0029863408567849525
2414.0,-0.002900068611387585
2413.0,-0.002856926061120646
2412.0,-0.0028137792246734072
2411.0,-0.0028137792246734072
2410.0,-0.0028137792246734072
2409.0,-0.0028137792246734072
2408.0,-0.0028137792246734072
2407.0,-0.0028137792246734072
2406.0,-0.0028137792246734072
2405.0,-0.0028137792246734072
2404.0,-0.0028137792246734072
2403.0,-0.0027706281011936618
2402.0,-0.0027706281011936618
2401.0,-0.0028137792246734072
2400.0,-0.002856926061120646
2399.0,-0.002900068611387585
2398.0,-0.002900068611387585
2397.0,-0.002856926061120646
2396.0,-0.002856926061120646
2395.0,-0.002856926061120646
2394.0,-0.002856926061120646
2393.0,-0.002900068611387585
2392.0,-0.002900068611387585
2391.0,-0.002900068611387585
2390.0,-0.002900068611387585
2389.0,-0.002900068611387585
2388.0,-0.0029432068763250996
2387.0,-0.0030725959676747294
2386.0,-0.003158833950862139
2385.0,-0.003201946521692367
2384.0,-0.003158833950862139
2383.0,-0.003029470553618019
2382.0,-0.0028137792246734072
2381.0,-0.0026411490000399773
2380.0,-0.0025548081484823015
2379.0,-0.002684312989729598
2378.0,-0.0029432068763250996
2377.0,-0.0032450548131470747
2376.0,-0.003503614742536687
2375.0,-0.0035897671891400584
2374.0,-0.0033743540197499478
2373.0,-0.003029470553618019
2372.0,-0.0026411490000399773
2371.0,-0.0024252646779014952
2370.0,-0.002338880892056583
2369.0,-0.0022956825549340643
2368.0,-0.002338880892056583
2367.0,-0.0024252646779014952
2366.0,-0.0026411490000399773
2365.0,-0.002856926061120646
2364.0,-0.002900068611387585
2363.0,-0.0026411490000399773
2362.0,-0.0022092729880145434
2361.0,-0.001776967077439462
2360.0,-0.0019067040408846658
2359.0,-0.0027706281011936618
2358.0,-0.004149341900058889
2357.0,-0.005266332972768684
2356.0,-0.005609445360280407
2355.0,-0.004965887106823441
2354.0,-0.0038481220342978517
2353.0,-0.0027274726898296464
2352.0,-0.0019931738235303698
2351.0,-0.0016904542321527494
2350.0,-0.0016471913460383014
2349.0,-0.001776967077439462
2348.0,-0.0019931738235303698
2347.0,-0.0021228462251614566
2346.0,-0.0021660617565077978
2345.0,-0.0022092729880145434
2344.0,-0.0024684501283323
2343.0,-0.0029863408567849525
2342.0,-0.0034174452021935586
2341.0,-0.0033743540197499478
2340.0,-0.0029863408567849525
2339.0,-0.0027706281011936618
2338.0,-0.003029470553618019
2337.0,-0.0035897671891400584
2336.0,-0.0039772418455368275
2335.0,-0.004063300397667113
2334.0,-0.0038481220342978517
2333.0,-0.0035897671891400584
2332.0,-0.0034174452021935586
2331.0,-0.0034605321095062536
2330.0,-0.003546693102131737
2329.0,-0.003546693102131737
2328.0,-0.0033743540197499478
2327.0,-0.003158833950862139
2326.0,-0.002900068611387585
2325.0,-0.0027274726898296464
2324.0,-0.002684312989729598
2323.0,-0.0028137792246734072
2322.0,-0.0029863408567849525
2321.0,-0.003115717099805959
2320.0,-0.003201946521692367
2319.0,-0.003115717099805959
2318.0,-0.0029432068763250996
2317.0,-0.0027274726898296464
2316.0,-0.002684312989729598
2315.0,-0.0028137792246734072
2314.0,-0.003029470553618019
2313.0,-0.003158833950862139
2312.0,-0.003201946521692367
2311.0,-0.003115717099805959
2310.0,-0.003029470553618019
2309.0,-0.002900068611387585
2308.0,-0.0027274726898296464
2307.0,-0.002597980719908577
2306.0,-0.0024684501283323
2305.0,-0.0024684501283323
2304.0,-0.0025116312849080558
2303.0,-0.0026411490000399773
2302.0,-0.0027706281011936618
2301.0,-0.002856926061120646
2300.0,-0.002856926061120646
2299.0,-0.002856926061120646
2298.0,-0.002900068611387585
2297.0,-0.0029432068763250996
2296.0,-0.0029863408567849525
2295.0,-0.0029432068763250996
2294.0,-0.002900068611387585
2293.0,-0.002856926061120646
2292.0,-0.002900068611387585
2291.0,-0.0029432068763250996
2290.0,-0.0029432068763250996
2289.0,-0.0029432068763250996
2288.0,-0.0029432068763250996
2287.0,-0.002900068611387585
2286.0,-0.002900068611387585
2285.0,-0.002856926061120646
2284.0,-0.0028137792246734072
2283.0,-0.0028137792246734072
2282.0,-0.002856926061120646
2281.0,-0.0029432068763250996
2280.0,-0.0029863408567849525
2279.0,-0.003029470553618019
2278.0,-0.0030725959676747294
2277.0,-0.003029470553618019
2276.0,-0.003029470553618019
2275.0,-0.0029432068763250996
2274.0,-0.002900068611387585
2273.0,-0.002900068611387585
2272.0,-0.002900068611387585
2271.0,-0.0029432068763250996
2270.0,-0.0029863408567849525
2269.0,-0.0029432068763250996
2268.0,-0.002900068611387585
2267.0,-0.002900068611387585
2266.0,-0.0029432068763250996
2265.0,-0.0029863408567849525
2264.0,-0.0029863408567849525
2263.0,-0.003029470553618019
2262.0,-0.0029863408567849525
2261.0,-0.0029432068763250996
2260.0,-0.002856926061120646
2259.0,-0.0027274726898296464
2258.0,-0.0026411490000399773
2257.0,-0.0026411490000399773
2256.0,-0.002684312989729598
2255.0,-0.0027706281011936618
2254.0,-0.0028137792246734072
2253.0,-0.0028137792246734072
2252.0,-0.002856926061120646
2251.0,-0.002900068611387585
2250.0,-0.002900068611387585
2249.0,-0.002856926061120646
2248.0,-0.0028137792246734072
2247.0,-0.0028137792246734072
2246.0,-0.002900068611387585
2245.0,-0.0029863408567849525
2244.0,-0.0030725959676747294
2243.0,-0.003115717099805959
2242.0,-0.003115717099805959
2241.0,-0.0030725959676747294
2240.0,-0.003029470553618019
2239.0,-0.0029863408567849525
2238.0,-0.0029863408567849525
2237.0,-0.0029863408567849525
2236.0,-0.003029470553618019
2235.0,-0.0030725959676747294
2234.0,-0.003115717099805959
2233.0,-0.003115717099805959
2232.0,-0.0030725959676747294
2231.0,-0.0029863408567849525
2230.0,-0.0029432068763250996
2229.0,-0.0029432068763250996
2228.0,-0.0029863408567849525
2227.0,-0.0029863408567849525
2226.0,-0.003029470553618019
2225.0,-0.003029470553618019
2224.0,-0.0029863408567849525
2223.0,-0.0029432068763250996
2222.0,-0.002900068611387585
2221.0,-0.002900068611387585
2220.0,-0.0029432068763250996
2219.0,-0.003029470553618019
2218.0,-0.0030725959676747294
2217.0,-0.003029470553618019
2216.0,-0.003029470553618019
2215.0,-0.003029470553618019
2214.0,-0.0030725959676747294
2213.0,-0.003158833950862139
2212.0,-0.0032450548131470747
2211.0,-0.0032881588260753603
2210.0,-0.0032881588260753603
2209.0,-0.0032450548131470747
2208.0,-0.003158833950862139
2207.0,-0.003115717099805959
2206.0,-0.0030725959676747294
2205.0,-0.003029470553618019
2204.0,-0.0029863408567849525
2203.0,-0.0029863408567849525
2202.0,-0.0030725959676747294
2201.0,-0.003158833950862139
2200.0,-0.003158833950862139
2199.0,-0.003158833950862139
2198.0,-0.003115717099805959
2197.0,-0.0030725959676747294
2196.0,-0.0030725959676747294
2195.0,-0.003115717099805959
2194.0,-0.003158833950862139
2193.0,-0.003201946521692367
2192.0,-0.0032450548131470747
2191.0,-0.0032450548131470747
2190.0,-0.0032450548131470747
2189.0,-0.003201946521692367
2188.0,-0.003115717099805959
2187.0,-0.0030725959676747294
2186.0,-0.0030725959676747294
2185.0,-0.003115717099805959
2184.0,-0.003115717099805959
2183.0,-0.003115717099805959
2182.0,-0.003115717099805959
2181.0,-0.0030725959676747294
2180.0,-0.003029470553618019
2179.0,-0.0029863408567849525
2178.0,-0.0029863408567849525
2177.0,-0.003029470553618019
2176.0,-0.003115717099805959
2175.0,-0.003158833950862139
2174.0,-0.0032450548131470747
2173.0,-0.003201946521692367
2172.0,-0.003201946521692367
2171.0,-0.003158833950862139
2170.0,-0.003115717099805959
2169.0,-0.003115717099805959
2168.0,-0.003115717099805959
2167.0,-0.0030725959676747294
2166.0,-0.0030725959676747294
2165.0,-0.0030725959676747294
2164.0,-0.0030725959676747294
2163.0,-0.0030725959676747294
2162.0,-0.003115717099805959
2161.0,-0.003115717099805959
2160.0,-0.0030725959676747294
2159.0,-0.0030725959676747294
2158.0,-0.003115717099805959
2157.0,-0.003158833950862139
2156.0,-0.003115717099805959
2155.0,-0.003029470553618019
2154.0,-0.002900068611387585
2153.0,-0.0028137792246734072
2152.0,-0.0028137792246734072
2151.0,-0.002856926061120646
2150.0,-0.0029432068763250996
2149.0,-0.003029470553618019
2148.0,-0.003029470553618019
2147.0,-0.003029470553618019
2146.0,-0.003029470553618019
2145.0,-0.003029470553618019
2144.0,-0.0029863408567849525
2143.0,-0.0029432068763250996
2142.0,-0.0029432068763250996
2141.0,-0.0029432068763250996
2140.0,-0.0029863408567849525
2139.0,-0.003029470553618019
2138.0,-0.003029470553618019
2137.0,-0.0029863408567849525
2136.0,-0.0029863408567849525
2135.0,-0.003029470553618019
2134.0,-0.003029470553618019
2133.0,-0.003029470553618019
2132.0,-0.0029863408567849525
2131.0,-0.002900068611387585
2130.0,-0.002856926061120646
2129.0,-0.0028137792246734072
2128.0,-0.0028137792246734072
2127.0,-0.0028137792246734072
2126.0,-0.002856926061120646
2125.0,-0.0028137792246734072
2124.0,-0.0028137792246734072
2123.0,-0.0028137792246734072
2122.0,-0.0028137792246734072
2121.0,-0.002856926061120646
2120.0,-0.002856926061120646
2119.0,-0.002900068611387585
2118.0,-0.002900068611387585
2117.0,-0.002856926061120646
2116.0,-0.0027706281011936618
2115.0,-0.0027274726898296464
2114.0,-0.0027274726898296464
2113.0,-0.0028137792246734072
2112.0,-0.0029432068763250996
2111.0,-0.0030725959676747294
2110.0,-0.003158833950862139
2109.0,-0.003201946521692367
2108.0,-0.003158833950862139
2107.0,-0.003158833950862139
2106.0,-0.0030725959676747294
2105.0,-0.003029470553618019
2104.0,-0.0029432068763250996
2103.0,-0.002856926061120646
2102.0,-0.002900068611387585
2101.0,-0.0029863408567849525
2100.0,-0.0030725959676747294
2099.0,-0.0030725959676747294
2098.0,-0.003029470553618019
2097.0,-0.0029863408567849525
2096.0,-0.0029432068763250996
2095.0,-0.002900068611387585
2094.0,-0.002900068611387585
2093.0,-0.002900068611387585
2092.0,-0.002900068611387585
2091.0,-0.002900068611387585
2090.0,-0.002900068611387585
2089.0,-0.0028137792246734072
2088.0,-0.0027274726898296464
2087.0,-0.0026411490000399773
2086.0,-0.002597980719908577
2085.0,-0.0026411490000399773
2084.0,-0.0027274726898296464
2083.0,-0.0028137792246734072
2082.0,-0.002900068611387585
2081.0,-0.0029863408567849525
2080.0,-0.0029863408567849525
2079.0,-0.0029863408567849525
2078.0,-0.0029863408567849525
2077.0,-0.0029863408567849525
2076.0,-0.003029470553618019
2075.0,-0.0029863408567849525
2074.0,-0.0029432068763250996
2073.0,-0.002900068611387585
2072.0,-0.002900068611387585
2071.0,-0.002900068611387585
2070.0,-0.002900068611387585
2069.0,-0.002900068611387585
2068.0,-0.0029432068763250996
2067.0,-0.0029863408567849525
2066.0,-0.0030725959676747294
2065.0,-0.0030725959676747294
2064.0,-0.0030725959676747294
2063.0,-0.0030725959676747294
2062.0,-0.0030725959676747294
2061.0,-0.003115717099805959
2060.0,-0.003158833950862139
2059.0,-0.003201946521692367
2058.0,-0.003201946521692367
2057.0,-0.003158833950862139
2056.0,-0.003158833950862139
2055.0,-0.003115717099805959
2054.0,-0.003115717099805959
2053.0,-0.003115717099805959
2052.0,-0.0030725959676747294
2051.0,-0.003115717099805959
2050.0,-0.003201946521692367
2049.0,-0.0032881588260753603
2048.0,-0.0033312585613267665
2047.0,-0.0033312585613267665
2046.0,-0.0032881588260753603
2045.0,-0.003201946521692367
2044.0,-0.003158833950862139
2043.0,-0.003115717099805959
2042.0,-0.003158833950862139
2041.0,-0.003201946521692367
2040.0,-0.003158833950862139
2039.0,-0.003158833950862139
2038.0,-0.003158833950862139
2037.0,-0.003201946521692367
2036.0,-0.0032881588260753603
2035.0,-0.0033312585613267665
2034.0,-0.0033743540197499478
2033.0,-0.0033743540197499478
2032.0,-0.0033312585613267665
2031.0,-0.0033312585613267665
2030.0,-0.0033312585613267665
2029.0,-0.0032881588260753603
2028.0,-0.0032881588260753603
2027.0,-0.0032881588260753603
2026.0,-0.0033312585613267665
2025.0,-0.0033312585613267665
2024.0,-0.0032881588260753603
2023.0,-0.0032450548131470747
2022.0,-0.003201946521692367
2021.0,-0.003201946521692367
2020.0,-0.003201946521692367
2019.0,-0.003201946521692367
2018.0,-0.0032450548131470747
2017.0,-0.0032881588260753603
2016.0,-0.0033312585613267665
2015.0,-0.0033312585613267665
2014.0,-0.0032881588260753603
2013.0,-0.003201946521692367
2012.0,-0.003201946521692367
2011.0,-0.003201946521692367
2010.0,-0.0032450548131470747
2009.0,-0.0032881588260753603
2008.0,-0.0032450548131470747
2007.0,-0.003201946521692367
2006.0,-0.003201946521692367
2005.0,-0.0032450548131470747
2004.0,-0.0032881588260753603
2003.0,-0.0032881588260753603
2002.0,-0.0033312585613267665
2001.0,-0.0033312585613267665
2000.0,-0.0033312585613267665
1999.0,-0.0033312585613267665
1998.0,-0.0033743540197499478
1997.0,-0.0033743540197499478
1996.0,-0.0033743540197499478
1995.0,-0.0033312585613267665
1994.0,-0.0033312585613267665
1993.0,-0.0033743540197499478
1992.0,-0.0033743540197499478
1991.0,-0.0033743540197499478
1990.0,-0.0033312585613267665
1989.0,-0.0032881588260753603
1988.0,-0.0032450548131470747
1987.0,-0.0032450548131470747
1986.0,-0.0032450548131470747
1985.0,-0.0032881588260753603
1984.0,-0.0032881588260753603
1983.0,-0.0032881588260753603
1982.0,-0.0033312585613267665
1981.0,-0.0033743540197499478
1980.0,-0.0033743540197499478
1979.0,-0.0033743540197499478
1978.0,-0.0033743540197499478
1977.0,-0.0033743540197499478
1976.0,-0.0033312585613267665
1975.0,-0.0033312585613267665
1974.0,-0.0033312585613267665
1973.0,-0.0032881588260753603
1972.0,-0.0032881588260753603
1971.0,-0.0032450548131470747
1970.0,-0.0032450548131470747
1969.0,-0.0032450548131470747
1968.0,-0.0032881588260753603
1967.0,-0.0033743540197499478
1966.0,-0.0034174452021935586
1965.0,-0.0034605321095062536
1964.0,-0.0034605321095062536
1963.0,-0.0034174452021935586
1962.0,-0.0033743540197499478
1961.0,-0.0033312585613267665
1960.0,-0.0033312585613267665
1959.0,-0.0033312585613267665
1958.0,-0.0033743540197499478
1957.0,-0.0034605321095062536
1956.0,-0.003503614742536687
1955.0,-0.0035897671891400584
1954.0,-0.003675902548784027
1953.0,-0.003675902548784027
1952.0,-0.003632837004408529
1951.0,-0.003632837004408529
1950.0,-0.003546693102131737
1949.0,-0.0034605321095062536
1948.0,-0.0033743540197499478
1947.0,-0.0033312585613267665
1946.0,-0.0033743540197499478
1945.0,-0.0034605321095062536
1944.0,-0.003546693102131737
1943.0,-0.003632837004408529
1942.0,-0.0037189638231147626
1941.0,-0.0037189638231147626
1940.0,-0.003675902548784027
1939.0,-0.003632837004408529
1938.0,-0.003632837004408529
1937.0,-0.003632837004408529
1936.0,-0.003675902548784027
1935.0,-0.003632837004408529
1934.0,-0.0035897671891400584
1933.0,-0.003546693102131737
1932.0,-0.003546693102131737
1931.0,-0.003546693102131737
1930.0,-0.003546693102131737
1929.0,-0.003546693102131737
1928.0,-0.0035897671891400584
1927.0,-0.003675902548784027
1926.0,-0.003805073565025019
1925.0,-0.0038481220342978517
1924.0,-0.0038481220342978517
1923.0,-0.003805073565025019
1922.0,-0.003762020828246282
1921.0,-0.0037189638231147626
1920.0,-0.0037189638231147626
1919.0,-0.0037189638231147626
1918.0,-0.0037189638231147626
1917.0,-0.003675902548784027
1916.0,-0.003632837004408529
1915.0,-0.003632837004408529
1914.0,-0.003675902548784027
1913.0,-0.003675902548784027
1912.0,-0.0037189638231147626
1911.0,-0.0037189638231147626
1910.0,-0.003762020828246282
1909.0,-0.0037189638231147626
1908.0,-0.003632837004408529
1907.0,-0.0035897671891400584
1906.0,-0.003546693102131737
1905.0,-0.003503614742536687
1904.0,-0.0034174452021935586
1903.0,-0.0033743540197499478
1902.0,-0.0033743540197499478
1901.0,-0.0034605321095062536
1900.0,-0.003503614742536687
1899.0,-0.003546693102131737
1898.0,-0.003546693102131737
1897.0,-0.003546693102131737
1896.0,-0.0035897671891400584
1895.0,-0.003632837004408529
1894.0,-0.0037189638231147626
1893.0,-0.003805073565025019
1892.0,-0.0038481220342978517
1891.0,-0.0039772418455368275
1890.0,-0.004020273253241502
1889.0,-0.0039772418455368275
1888.0,-0.003891166236910326
1887.0,-0.0038481220342978517
1886.0,-0.003805073565025019
1885.0,-0.003762020828246282
1884.0,-0.0037189638231147626
1883.0,-0.003675902548784027
1882.0,-0.003632837004408529
1881.0,-0.0035897671891400584
1880.0,-0.0035897671891400584
1879.0,-0.0035897671891400584
1878.0,-0.0035897671891400584
1877.0,-0.003546693102131737
1876.0,-0.003546693102131737
1875.0,-0.0035897671891400584
1874.0,-0.003675902548784027
1873.0,-0.0037189638231147626
1872.0,-0.003762020828246282
1871.0,-0.003762020828246282
1870.0,-0.003762020828246282
1869.0,-0.0037189638231147626
1868.0,-0.003675902548784027
1867.0,-0.003632837004408529
1866.0,-0.003632837004408529
1865.0,-0.003632837004408529
1864.0,-0.003632837004408529
1863.0,-0.003632837004408529
1862.0,-0.003632837004408529
1861.0,-0.003632837004408529
1860.0,-0.003546693102131737
1859.0,-0.003503614742536687
1858.0,-0.003503614742536687
1857.0,-0.0034605321095062536
1856.0,-0.0033743540197499478
1855.0,-0.0033743540197499478
1854.0,-0.0034174452021935586
1853.0,-0.0034605321095062536
1852.0,-0.0034605321095062536
1851.0,-0.0034605321095062536
1850.0,-0.0034605321095062536
1849.0,-0.0034174452021935586
1848.0,-0.0033312585613267665
1847.0,-0.0032881588260753603
1846.0,-0.0032450548131470747
1845.0,-0.0032450548131470747
1844.0,-0.003201946521692367
1843.0,-0.003158833950862139
1842.0,-0.003115717099805959
1841.0,-0.0030725959676747294
1840.0,-0.0029863408567849525
1839.0,-0.002900068611387585
1838.0,-0.002856926061120646
1837.0,-0.0028137792246734072
1836.0,-0.0028137792246734072
1835.0,-0.0028137792246734072
1834.0,-0.0028137792246734072
1833.0,-0.0027706281011936618
1832.0,-0.002684312989729598
1831.0,-0.002597980719908577
1830.0,-0.002597980719908577
1829.0,-0.0025548081484823015
1828.0,-0.0024684501283323
1827.0,-0.0024252646779014952
1826.0,-0.0024252646779014952
1825.0,-0.0024252646779014952
1824.0,-0.0023820749327607693
1823.0,-0.0024252646779014952
1822.0,-0.0024252646779014952
1821.0,-0.0024252646779014952
1820.0,-0.002338880892056583
1819.0,-0.0022092729880145434
1818.0,-0.0020796263931210923
1817.0,-0.0019931738235303698
1816.0,-0.0018634626925240205
1815.0,-0.0018202170383281313
1814.0,-0.001776967077439462
1813.0,-0.001733712809000476
1812.0,-0.0016471913460383014
1811.0,-0.0016039241497978196
1810.0,-0.0015606526425728795
1809.0,-0.001474096691732818
1808.0,-0.001344230411601366
1807.0,-0.00121432528617893
1806.0,-0.0011710149414008164
1805.0,-0.0011277002770349043
1804.0,-0.0011710149414008164
1803.0,-0.0011710149414008164
1802.0,-0.0011710149414008164
1801.0,-0.0009977303577937136
1800.0,-0.0006943158663546001
1799.0,-0.0004774613744551459
1798.0,-0.00030389978481260016
1797.0,-4.3427276862573194e-05
1796.0,0.00026065489343207737
1795.0,0.000521466320689834
1794.0,0.0007824344698965646
1793.0,0.0012612837441823288
1792.0,0.001915112063444413
1791.0,0.002569926202528716
1790.0,0.0030944893043338695
1789.0,0.0037510854308679953
1788.0,0.004540313378935901
1787.0,0.005550862985963967
1786.0,0.006696062080525422
1785.0,0.008065450281052211
1784.0,0.00939478857608056
1783.0,0.010683695010048622
1782.0,0.012065734767841452
1781.0,0.01381070026317599
1780.0,0.015697768020096703
1779.0,0.017367005605150476
1778.0,0.018815862601645694
1777.0,0.02022406727031445
1776.0,0.02168250325324883
1775.0,0.023054249440757957
1774.0,0.02461415101053266
1773.0,0.02682594731702781
1772.0,0.02960662792039992
1771.0,0.03207779326948268
1770.0,0.03414006319292828
1769.0,0.03644826642590382
1768.0,0.039338992729018196
1767.0,0.042344833056508824
1766.0,0.04503426894157925
1765.0,0.04754660357696672
1764.0,0.050463626623857394
1763.0,0.054186873412661596
1762.0,0.05858795962645047
1761.0,0.06283329628496737
1760.0,0.06600683616875758
1759.0,0.06844043290919477
1758.0,0.07093887591523451
1757.0,0.07391491307485598
1756.0,0.07644514193245056
1755.0,0.07789763319239285
1754.0,0.07852161962430992
1753.0,0.079094395835976
1752.0,0.08008551934056851
1751.0,0.08139308485501817
1750.0,0.08254700807033655
1749.0,0.08328292240118751
1748.0,0.08344078069888616
1747.0,0.08286224724355584
1746.0,0.08181233864107451
1745.0,0.08039897621588898
1744.0,0.07867775641617802
1743.0,0.07649693305789551
1742.0,0.07386342893255127
1741.0,0.07078549626260622
1740.0,0.06712054217620067
1739.0,0.06338573802478864
1738.0,0.05998184499233683
1737.0,0.05685187064143715
1736.0,0.05340037498486727
1735.0,0.049245818406496555
1734.0,0.04513062893352182
1733.0,0.042057664554595586
1732.0,0.03957679292217042
1731.0,0.037251946641359446
1730.0,0.03503362516890207
1729.0,0.0329671178412978
1728.0,0.031143625385307683
1727.0,0.029560137048236124
1726.0,0.02812138297373412
1725.0,0.02682594731702781
1724.0,0.02558042614771394
1723.0,0.024476287039668643
1722.0,0.02355831062115543
1721.0,0.022733787572707387
1720.0,0.021865152601710403
1719.0,0.0209982515252789
1718.0,0.02022406727031445
1717.0,0.01954210772389997
1716.0,0.018770512579999288
1715.0,0.01800028587012159
1714.0,0.017321806616515723
1713.0,0.016734647433454652
1712.0,0.016058141016111804
1711.0,0.01538268676325183
1710.0,0.014663358264387139
1709.0,0.01403492169512921
1708.0,0.013452186585275916
1707.0,0.012870232340102872
1706.0,0.012378417874516323
1705.0,0.0119764380713403
1704.0,0.011574829993696856
1703.0,0.01117359295472431
1702.0,0.010728208358306901
1701.0,0.010194349063173958
1700.0,0.009794384815193347
1699.0,0.009616741093766423
1698.0,0.009572341514736404
1697.0,0.009527946474380489
1696.0,0.009306039320248427
1695.0,0.008995559669244813
1694.0,0.008685301823389224
1693.0,0.00850811108984062
1692.0,0.008286724286910463
1691.0,0.008109696063975047
1690.0,0.007932739972333236
1689.0,0.007800070204414977
1688.0,0.007711646202907652
1687.0,0.00762324020119709
1686.0,0.0074464821678643656
1685.0,0.007269796045857202
1684.0,0.007225635744644521
1683.0,0.007181479933320523
1682.0,0.007181479933320523
1681.0,0.007181479933320523
1680.0,0.007181479933320523
1679.0,0.007181479933320523
1678.0,0.007137328610972382
1677.0,0.007093181776687496
1676.0,0.007049039429553483
1675.0,0.007004901568658406
1674.0,0.007004901568658406
1673.0,0.007004901568658406
1672.0,0.007004901568658406
1671.0,0.007004901568658406
1670.0,0.007049039429553483
1669.0,0.007049039429553483
1668.0,0.00696076819309055
1667.0,0.006828394969235152
1666.0,0.006696062080525422
1665.0,0.006607862550997545
1664.0,0.00656376950238835
1663.0,0.00656376950238835
1662.0,0.006651960076740071
1661.0,0.006651960076740071
1660.0,0.00656376950238835
1659.0,0.006475596832934416
1658.0,0.006343371384537999
1657.0,0.006299305179649828
1656.0,0.00625524344553785
1655.0,0.006299305179649828
1654.0,0.006607862550997545
1653.0,0.007137328610972382
1652.0,0.007181479933320523
1651.0,0.006916639301937977
1650.0,0.006784279525863024
1649.0,0.006740168563263094
1648.0,0.006740168563263094
1647.0,0.006828394969235152
1646.0,0.006828394969235152
1645.0,0.006696062080525422
1644.0,0.00656376950238835
1643.0,0.006519680930003435
1642.0,0.006519680930003435
1641.0,0.006475596832934416
1640.0,0.006431517210272464
1639.0,0.006343371384537999
1638.0,0.006299305179649828
1637.0,0.006299305179649828
1636.0,0.00625524344553785
1635.0,0.00612308505878878
1634.0,0.005946936412324799
1633.0,0.005814871797682919
1632.0,0.005726851026829571
1631.0,0.005638848091999105
1630.0,0.005506877116487674
1629.0,0.005330978174470591
1628.0,0.005155150446602086
1627.0,0.004979393875242044
1626.0,0.00484762310854614
1625.0,0.004759798137184523
1624.0,0.004671990922590297
1623.0,0.00458420145758498
1622.0,0.0044964297349936455
1621.0,0.004452550524862486
1620.0,0.004452550524862486
1619.0,0.0044964297349936455
1618.0,0.0044964297349936455
1617.0,0.0043648054024501
1616.0,0.004101676353562844
1615.0,0.003794893821675638
1614.0,0.003619686766589858
1613.0,0.003488327845821315
1612.0,0.0034007772998332353
1611.0,0.0033570086445275926
1610.0,0.0032694845648473247
1609.0,0.0032257291386954545
1608.0,0.0030944893043338695
1607.0,0.0030070181092942683
1606.0,0.0029195645282691363
1605.0,0.0028321285541661467
1604.0,0.0027447101798967477
1603.0,0.002701007590486082
1602.0,0.0026573093983774942
1601.0,0.0025262411970197185
1600.0,0.002395212539545666
1599.0,0.0022642234021015284
1598.0,0.0021332737608552588
1597.0,0.0020023635919956817
1596.0,0.0018278780605593958
1595.0,0.0016534626036355249
1594.0,0.0015226969634936083
1593.0,0.0014791171649619628
1592.0,0.0014355417390583547
1591.0,0.0013919706849057079
1590.0,0.001348404001626502
1589.0,0.001304841688344327
1588.0,0.0012177301682640973
1587.0,0.0011741809597138886
1586.0,0.0011306361176557367
1585.0,0.0010435595295137379
1584.0,0.0009565003968372565
1583.0,0.000869458712629001
1582.0,0.0008259444115150671
1581.0,0.0008259444115150671
1580.0,0.0007824344698965646
1579.0,0.0007824344698965646
1578.0,0.0007389288868995258
1577.0,0.0006954276616513155
1576.0,0.0006519307932786322
1575.0,0.0006084382809090627
1574.0,0.0004779868710962365
1573.0,0.0003910410285830057
1572.0,0.00030411258916074324
1571.0,0.00021720154586435392
1570.0,0.00017375254558760211
1569.0,0.00017375254558760211
1568.0,0.0001303078917322953
1567.0,8.686758342868472e-05
1566.0,0.0
1565.0,-8.685021164911433e-05
1564.0,-0.00013026880522692963
1563.0,-0.00013026880522692963
1562.0,-4.3427276862573194e-05
1561.0,-8.685021164911433e-05
1560.0,-0.00017368305846510168
1559.0,-0.00021709297223004853
1558.0,-0.00021709297223004853
1557.0,-0.00030389978481260016
1556.0,-0.0003472966853634851
1555.0,-0.0003906892499099257
1554.0,-0.0004774613744551459
1553.0,-0.0005208409361854294
1552.0,-0.00043407747931878404
1551.0,-0.00030389978481260016
1550.0,-0.0002604985473904087
1549.0,-0.00030389978481260016
1548.0,-0.0004774613744551459
1547.0,-0.0006075870628903246
1546.0,-0.0006509536295951079
1545.0,-0.0006509536295951079
1544.0,-0.0005642161653756084
1543.0,-0.00043407747931878404
1542.0,-0.0003472966853634851
1541.0,-0.0003906892499099257
1540.0,-0.0004774613744551459
1539.0,-0.00043407747931878404
1538.0,-0.00043407747931878404
1537.0,-0.0003472966853634851
1536.0,-0.00030389978481260016
1535.0,-0.00030389978481260016
1534.0,-0.0003906892499099257
1533.0,-0.00043407747931878404
1532.0,-0.0004774613744551459
1531.0,-0.0005208409361854294
1530.0,-0.0005642161653756084
1529.0,-0.0006509536295951079
1528.0,-0.0006943158663546001
1527.0,-0.0007810273534953893
1526.0,-0.0008243766056055257
1525.0,-0.0008677215312267172
1524.0,-0.0009110621312231615
1523.0,-0.0009110621312231615
1522.0,-0.0008677215312267172
1521.0,-0.0007810273534953893
1520.0,-0.0006943158663546001
1519.0,-0.0006943158663546001
1518.0,-0.0006075870628903246
1517.0,-0.0005208409361854294
1516.0,-0.0004774613744551459
1515.0,-0.0005642161653756084
1514.0,-0.0006509536295951079
1513.0,-0.0006943158663546001
1512.0,-0.0006943158663546001
1511.0,-0.0006509536295951079
1510.0,-0.0006075870628903246
1509.0,-0.0005642161653756084
1508.0,-0.0006075870628903246
1507.0,-0.0006509536295951079
1506.0,-0.0006075870628903246
1505.0,-0.0006075870628903246
1504.0,-0.0005642161653756084
1503.0,-0.0005642161653756084
1502.0,-0.0005642161653756084
1501.0,-0.0006075870628903246
1500.0,-0.0006943158663546001
1499.0,-0.0007810273534953893
1498.0,-0.0008677215312267172
1497.0,-0.0008677215312267172
1496.0,-0.0008243766056055257
1495.0,-0.0007810273534953893
1494.0,-0.0006943158663546001
1493.0,-0.0006075870628903246
1492.0,-0.0004774613744551459
1491.0,-0.00043407747931878404
1490.0,-0.00043407747931878404
1489.0,-0.0004774613744551459
1488.0,-0.0005642161653756084
1487.0,-0.0006509536295951079
1486.0,-0.0006943158663546001
1485.0,-0.0006075870628903246
1484.0,-0.0005642161653756084
1483.0,-0.0005208409361854294
1482.0,-0.0005208409361854294
1481.0,-0.0005208409361854294
1480.0,-0.0004774613744551459
1479.0,-0.0003906892499099257
1478.0,-0.00030389978481260016
1477.0,-0.00013026880522692963
1476.0,0.00017375254558760211
1475.0,0.0004779868710962365
1474.0,0.0008259444115150671
1473.0,0.0014355417390583547
1472.0,0.0021332737608552588
1471.0,0.0027884171674950053
1470.0,0.0034007772998332353
1469.0,0.004101676353562844
1468.0,0.00484762310854614
1467.0,0.005858888873877532
1466.0,0.007313960837872058
1465.0,0.009350411681145587
1464.0,0.011396456654336085
1463.0,0.013004460275618523
1462.0,0.014304140310157809
1461.0,0.015517693597737248
1460.0,0.016689514205884493
1459.0,0.01809082990920774
1458.0,0.020087589665283012
1457.0,0.02255077261765881
1456.0,0.024154774532432866
1455.0,0.024706084643793647
1454.0,0.024936003904763915
1453.0,0.02512002699306959
1452.0,0.02521206778644225
1451.0,0.02512002699306959
1450.0,0.024890010313838973
1449.0,0.024430342106337877
1448.0,0.023695883447997224
1447.0,0.022688026603074007
1446.0,0.02140867317992523
1445.0,0.01990568621470623
1444.0,0.018136109008649592
1443.0,0.016238439713835096
1442.0,0.014214382227394795
1441.0,0.012289056869694281
1440.0,0.010594681998483901
1439.0,0.009128595198514056
1438.0,0.007800070204414977
1437.0,0.006475596832934416
1436.0,0.00541891874010525
1435.0,0.004715892310740433
1434.0,0.004189368323957332
1433.0,0.0036634819042162814
1432.0,0.0031819781204844855
1431.0,0.0027884171674950053
1430.0,0.002395212539545666
1429.0,0.002089632653256679
1428.0,0.0017842676290416026
1427.0,0.001609869681952425
1426.0,0.0015226969634936083
1425.0,0.0013919706849057079
1424.0,0.001304841688344327
1423.0,0.0012612837441823288
1422.0,0.0011741809597138886
1421.0,0.0010000277816797354
1420.0,0.0007824344698965646
1419.0,0.0006084382809090627
1418.0,0.000521466320689834
1417.0,0.0004779868710962365
1416.0,0.0004779868710962365
1415.0,0.000521466320689834
1414.0,0.0004779868710962365
1413.0,0.00043451177401765406
1412.0,0.0003910410285830057
1411.0,0.0003910410285830057
1410.0,0.0003910410285830057
1409.0,0.00043451177401765406
1408.0,0.0004779868710962365
1407.0,0.000521466320689834
1406.0,0.0006519307932786322
1405.0,0.0008259444115150671
1404.0,0.0009565003968372565
1403.0,0.0010870956412141197
1402.0,0.0012177301682640973
1401.0,0.001348404001626502
1400.0,0.001609869681952425
1399.0,0.0020023635919956817
1398.0,0.002482560585275184
1397.0,0.0031382315093266833
1396.0,0.004101676353562844
1395.0,0.00541891874010525
1394.0,0.006916639301937977
1393.0,0.008286724286910463
1392.0,0.009572341514736404
1391.0,0.010906307389674463
1390.0,0.012289056869694281
1389.0,0.013900374944870508
1388.0,0.015742798294583915
1387.0,0.017638298366853045
1386.0,0.019178833355664393
1385.0,0.02026956933771462
1384.0,0.021089422824428272
1383.0,0.02168250325324883
1382.0,0.021910826943857264
1381.0,0.021728158389364705
1380.0,0.021135015652343103
1379.0,0.020178569969774962
1378.0,0.019042683770379876
1377.0,0.017864505196230507
1376.0,0.016870075265299933
1375.0,0.016238439713835096
1374.0,0.016148281008528276
1373.0,0.016509028184833463
1372.0,0.017141057687924732
1371.0,0.017909760704207134
1370.0,0.018679826740892747
1369.0,0.01940584422377989
1368.0,0.019996628416253603
1367.0,0.020406104151069693
1366.0,0.02067930261797568
1365.0,0.020861530453190058
1364.0,0.021135015652343103
1363.0,0.021499930688540836
1362.0,0.021910826943857264
1361.0,0.0221849739168134
1360.0,0.022367834754000393
1359.0,0.022413561996148967
1358.0,0.022322112326006227
1357.0,0.022139270735302752
1356.0,0.021819483062586187
1355.0,0.021363051615525652
1354.0,0.020770406977844713
1353.0,0.02013307743509718
1352.0,0.019451260640229506
1351.0,0.018725167293411005
1350.0,0.017955020928509757
1349.0,0.017186237868137555
1348.0,0.016418813294209356
1347.0,0.015697768020096703
1346.0,0.015022873584506602
1345.0,0.014438812226654996
1344.0,0.01385553528947936
1343.0,0.013317820220494436
1342.0,0.012780770091995297
1341.0,0.012333735073725371
1340.0,0.0119764380713403
1339.0,0.011664044143949504
1338.0,0.011396456654336085
1337.0,0.011129033935354915
1336.0,0.01086177578421088
1335.0,0.010550182333308289
1334.0,0.010283280051895272
1333.0,0.01001654169860089
1332.0,0.009838807101520963
1331.0,0.00966114521239847
1330.0,0.009572341514736404
1329.0,0.009483555971770974
1328.0,0.00939478857608056
1327.0,0.009306039320248427
1326.0,0.009306039320248427
1325.0,0.009261671492462709
1324.0,0.009306039320248427
1323.0,0.009261671492462709
1322.0,0.009261671492462709
1321.0,0.009261671492462709
1320.0,0.009306039320248427
1319.0,0.009350411681145587
1318.0,0.00939478857608056
1317.0,0.00939478857608056
1316.0,0.009350411681145587
1315.0,0.009261671492462709
1314.0,0.009261671492462709
1313.0,0.009261671492462709
1312.0,0.009261671492462709
1311.0,0.009306039320248427
1310.0,0.009350411681145587
1309.0,0.00939478857608056
1308.0,0.00939478857608056
1307.0,0.009439170005980158
1306.0,0.009483555971770974
1305.0,0.009527946474380489
1304.0,0.009527946474380489
1303.0,0.009483555971770974
1302.0,0.00939478857608056
1301.0,0.009261671492462709
1300.0,0.009128595198514056
1299.0,0.008995559669244813
1298.0,0.008818242332126802
1297.0,0.008596697419959609
1296.0,0.008330992620051436
1295.0,0.008021209005416363
1294.0,0.007800070204414977
1293.0,0.0075790439479759275
1292.0,0.007402303897961815
1291.0,0.007313960837872058
1290.0,0.007358130121602358
1289.0,0.00762324020119709
1288.0,0.008021209005416363
1287.0,0.008596697419959609
1286.0,0.009306039320248427
1285.0,0.010105436281226954
1284.0,0.010995384301463185
1283.0,0.0119764380713403
1282.0,0.013093968619278806
1281.0,0.014214382227394795
1280.0,0.01538268676325183
1279.0,0.016599261819461697
1278.0,0.01781925440359733
1277.0,0.018951941086827073
1276.0,0.01995115493504329
1275.0,0.02081596632558158
1274.0,0.021545566634771474
1273.0,0.02227639471115217
1272.0,0.02296266477531872
1271.0,0.02355831062115543
1270.0,0.02406295751688936
1269.0,0.024338466818941473
1268.0,0.024522236834125355
1267.0,0.024568191490736968
1266.0,0.024522236834125355
1265.0,0.024338466818941473
1264.0,0.024154774532432866
1263.0,0.023879381700184332
1262.0,0.02351246269481
1261.0,0.02314585342378117
1260.0,0.022688026603074007
1259.0,0.022230681908425698
1258.0,0.021773818325474092
1257.0,0.021271822861508305
1256.0,0.02081596632558158
1255.0,0.02036058777709271
1254.0,0.01995115493504329
1253.0,0.01958753839310856
1252.0,0.019315025636685412
1251.0,0.019133445417920836
1250.0,0.018951941086827073
1249.0,0.018861217359339655
1248.0,0.018770512579999288
1247.0,0.018770512579999288
1246.0,0.018770512579999288
1245.0,0.018861217359339655
1244.0,0.018951941086827073
1243.0,0.0190880622231564
1242.0,0.019269623464054586
1241.0,0.01949668180660491
1240.0,0.019769308608968306
1239.0,0.020087589665283012
1238.0,0.02045162529590483
1237.0,0.020952673052035298
1236.0,0.021545566634771474
1235.0,0.0221849739168134
1234.0,0.02291687968414724
1233.0,0.02365002099672653
1232.0,0.024430342106337877
1231.0,0.025304128090317013
1230.0,0.026318081496016443
1229.0,0.027426919073445077
1228.0,0.028677754757187035
1227.0,0.030071810571884017
1226.0,0.03151705144606498
1225.0,0.03301397488206215
1224.0,0.03456310022373987
1223.0,0.03621217265444465
1222.0,0.03791491948264003
1221.0,0.03967194946985697
1220.0,0.041436116778032606
1219.0,0.04325545471730896
1218.0,0.04508244626504121
1217.0,0.0469171560879138
1216.0,0.04871106272232795
1215.0,0.05036607620073763
1214.0,0.0518316382728683
1213.0,0.0531548860393769
1212.0,0.05438372077326825
1211.0,0.05546797900801881
1210.0,0.056406567231630955
1209.0,0.05729763111133224
1208.0,0.05809122563440061
1207.0,0.05868737463933793
1206.0,0.05918479134919874
1205.0,0.05963295401433477
1204.0,0.060081579630943294
1203.0,0.06058059667068294
1202.0,0.0611301784870133
1201.0,0.061780582187257016
1200.0,0.06263258248271053
1199.0,0.0636873663378068
1198.0,0.06494641076893504
1197.0,0.06641148980334699
1196.0,0.0681862960408608
1195.0,0.0702746216219956
1194.0,0.0725783049495814
1193.0,0.07520400420208784
1192.0,0.07800156869172903
1191.0,0.08113125661901543
1190.0,0.08454739831152125
1189.0,0.08830984124613894
1188.0,0.09231997575758011
1187.0,0.0964759355287379
1186.0,0.1005078038618683
1185.0,0.10435649517592083
1184.0,0.10773839308446487
1183.0,0.11041819785037621
1182.0,0.11215773489264302
1181.0,0.11277666863747693
1180.0,0.11198908775497118
1179.0,0.10957898119908571
1178.0,0.10562854614376227
1177.0,0.10045306890913297
1176.0,0.09431203228814788
1175.0,0.08756536662442538
1174.0,0.08060807322614072
1173.0,0.07381195089279391
1172.0,0.06742477650170953
1171.0,0.06148027482350815
1170.0,0.05606053552778367
1169.0,0.05119595406718891
1168.0,0.04686877481655505
1167.0,0.043063586155803746
1166.0,0.039719535563357944
1165.0,0.036779013477011624
1164.0,0.03428102975577918
1163.0,0.03207779326948268
1162.0,0.030164906924202484
1161.0,0.028538594975413334
1160.0,0.027195677663422346
1159.0,0.026041313893296225
1158.0,0.025074013910237447
1157.0,0.024292536462819925
1156.0,0.023787622882622816
1155.0,0.02351246269481
1154.0,0.02351246269481
1153.0,0.02365002099672653
1152.0,0.023925268380126097
1151.0,0.02438440203310499
1150.0,0.02512002699306959
1149.0,0.02617967564731627
1148.0,0.027612000892527133
1147.0,0.029467170231675777
1146.0,0.03179733185715028
1145.0,0.03456310022373987
1144.0,0.03777276864991497
1143.0,0.041340572947066834
1142.0,0.04527520902093718
1141.0,0.04948910701400333
1140.0,0.05389176956309405
1139.0,0.058190526991161784
1138.0,0.062281556382736136
1137.0,0.06610796423578891
1136.0,0.06971335275448043
1135.0,0.0729891310243489
1134.0,0.07587584681417514
1133.0,0.07836553894629472
1132.0,0.08045124103115198
1131.0,0.08212704480115218
1130.0,0.08328292240118751
1129.0,0.08402008585977572
1128.0,0.08423093401631587
1127.0,0.08380934001946239
1126.0,0.08286224724355584
1125.0,0.08149786036382611
1124.0,0.07972010536705154
1123.0,0.0777417765670334
1122.0,0.07577241873988227
1121.0,0.07396640332115534
1120.0,0.07237303755504598
1119.0,0.0710411591191702
1118.0,0.06996838504902692
1117.0,0.06925467168888666
1116.0,0.0688982543673613
1115.0,0.06879647454924775
1114.0,0.0690000580438479
1113.0,0.06961138175567827
1112.0,0.07073438174693436
1111.0,0.07242434530888953
1110.0,0.07468790850035045
1109.0,0.07743023101428781
1108.0,0.0805035121369384
1107.0,0.08375666953466032
1106.0,0.08719360733870762
1105.0,0.0908185240221473
1104.0,0.09458193129745807
1103.0,0.09832376867362447
1102.0,0.10209812573177213
1101.0,0.10573933555301185
1100.0,0.10941133229451272
1099.0,0.112945621949043
1098.0,0.1163953390777075
1097.0,0.11975822410451964
1096.0,0.12314735239865637
1095.0,0.12650501774383094
1094.0,0.12971317100740865
1093.0,0.13288622016802298
1092.0,0.1360232160956132
1091.0,0.1390633792999063
1090.0,0.14200450443907608
1089.0,0.14490504884137811
1088.0,0.14764201633217278
1087.0,0.1500894416985039
1086.0,0.15218065270476067
1085.0,0.15397232463562127
1084.0,0.15527437202677397
1083.0,0.15614457737683884
1082.0,0.15639352807548912
1081.0,0.15614457737683884
1080.0,0.15546069787099204
1079.0,0.15440590683997568
1078.0,0.15292113793428452
1077.0,0.15101079374883275
1076.0,0.14861933203440336
1075.0,0.1456332219591303
1074.0,0.14224547794055775
1073.0,0.1384058553561347
1072.0,0.13424477592854833
1071.0,0.12971317100740865
1070.0,0.1249387366082999
1069.0,0.12004441487725082
1068.0,0.11509140583739286
1067.0,0.11013827874181148
1066.0,0.10535169620648288
1065.0,0.10089114180660053
1064.0,0.09696430321150284
1063.0,0.0935033402006471
1062.0,0.09071147583774919
1061.0,0.08857603462370545
1060.0,0.08714052483764512
1059.0,0.08634506491338012
1058.0,0.0861331881037608
1057.0,0.08645104209348209
1056.0,0.0870343792958963
1055.0,0.0877779434675845
1054.0,0.0885227828938977
1053.0,0.08942895151874142
1052.0,0.0905509530187334
1051.0,0.0919441259012328
1050.0,0.09339562827501968
1049.0,0.09490603167212863
1048.0,0.09636748391576244
1047.0,0.09783387072894878
1046.0,0.09919606518963042
1045.0,0.10039834085387778
1044.0,0.10127481841050656
1043.0,0.10182351650232357
1042.0,0.10198826120249849
1041.0,0.10182351650232357
1040.0,0.10132965703447017
1039.0,0.10028890542885538
1038.0,0.09892328427374508
1037.0,0.0972358560759139
1036.0,0.09539263618455207
1035.0,0.09328794305703592
1034.0,0.0910326995816122
1033.0,0.08873582900163002
1032.0,0.08655704514060414
1031.0,0.08460016478773014
1030.0,0.08291480935943274
1029.0,0.08149786036382611
1028.0,0.08034671768963575
1027.0,0.07935499859321249
1026.0,0.07826151631540124
1025.0,0.07717078033335123
1024.0,0.07592757008963713
1023.0,0.07458476291575367
1022.0,0.07319468988839395
1021.0,0.0716553647351379
1020.0,0.06996838504902692
1019.0,0.06813548650796819
1018.0,0.06625970050306473
1017.0,0.06444235490698613
1016.0,0.06263258248271053
1015.0,0.06083032037482261
1014.0,0.059035506507200575
1013.0,0.05729763111133224
1012.0,0.055566682299785564
1011.0,0.05394093961487645
1010.0,0.052419250695677544
1009.0,0.05100054597304693
1008.0,0.04973253198641148
1007.0,0.04851676924770687
1006.0,0.047352830241056854
1005.0,0.04628861957244457
1004.0,0.045323413081356456
1003.0,0.044360346976747955
1002.0,0.04339941178682327
1001.0,0.04253638427006878
1000.0,0.0417706858116178
999.0,0.041197296600497646
998.0,0.04062466342415694
997.0,0.04010041213405646
996.0,0.03957679292217042
995.0,0.038958783046687984
994.0,0.038341651362284734
993.0,0.03767802727041558
992.0,0.03701541568300293
991.0,0.03644826642590382
990.0,0.03597620715996652
989.0,0.03555179208333925
988.0,0.03512779136222477
987.0,0.03475124903287918
986.0,0.03432802877989327
985.0,0.033905220553829274
984.0,0.03343591590268957
983.0,0.032920265855503006
982.0,0.03249882527715853
981.0,0.03207779326948268
980.0,0.03161045815293173
979.0,0.031143625385307683
978.0,0.03067729388779794
977.0,0.03025802323714588
976.0,0.029792641193145286
975.0,0.02932775731028059
974.0,0.028816959143838528
973.0,0.02839947976994095
972.0,0.02812138297373412
971.0,0.027889771597169544
970.0,0.027658283674251827
969.0,0.02738066094037661
968.0,0.027056991894431892
967.0,0.02682594731702781
966.0,0.026733563891471412
965.0,0.02682594731702781
964.0,0.02691835039863255
963.0,0.02710321556345563
962.0,0.027426919073445077
961.0,0.027889771597169544
960.0,0.028445846553939003
959.0,0.02904906565457588
958.0,0.029513651152349718
957.0,0.029885677714903025
956.0,0.030071810571884017
955.0,0.03002526987828502
954.0,0.029885677714903025
953.0,0.02960662792039992
952.0,0.029281296279810798
951.0,0.028863370523193765
950.0,0.02839947976994095
949.0,0.027936083991977778
948.0,0.02751945012352408
947.0,0.027195677663422346
946.0,0.02691835039863255
945.0,0.02664120011360227
944.0,0.02636422658259252
943.0,0.026041313893296225
942.0,0.025718641122169483
941.0,0.02544225514642018
940.0,0.02521206778644225
939.0,0.025028005701930978
938.0,0.024798037742147727
937.0,0.02461415101053266
936.0,0.024430342106337877
935.0,0.024338466818941473
934.0,0.024246610963712723
933.0,0.024246610963712723
932.0,0.024246610963712723
931.0,0.024292536462819925
930.0,0.02438440203310499
929.0,0.024430342106337877
928.0,0.024430342106337877
927.0,0.024338466818941473
926.0,0.024200690320592466
925.0,0.024154774532432866
924.0,0.024200690320592466
923.0,0.024292536462819925
922.0,0.024476287039668643
921.0,0.024706084643793647
920.0,0.024890010313838973
919.0,0.02498200236711723
918.0,0.024936003904763915
917.0,0.02484402159331056
916.0,0.024660115394541604
915.0,0.024476287039668643
914.0,0.024292536462819925
913.0,0.024154774532432866
912.0,0.024154774532432866
911.0,0.024154774532432866
910.0,0.024200690320592466
909.0,0.024154774532432866
908.0,0.024017056287453542
907.0,0.023833499868024743
906.0,0.02365002099672653
905.0,0.023604163388120325
904.0,0.02365002099672653
903.0,0.023695883447997224
902.0,0.023741750742954926
901.0,0.023833499868024743
900.0,0.023971159908874107
899.0,0.024108863598207186
898.0,0.024200690320592466
897.0,0.024200690320592466
896.0,0.024108863598207186
895.0,0.024017056287453542
894.0,0.023925268380126097
893.0,0.023833499868024743
892.0,0.02365002099672653
891.0,0.023466619608062178
890.0,0.02314585342378117
889.0,0.022733787572707387
888.0,0.02227639471115217
887.0,0.021819483062586187
886.0,0.021545566634771474
885.0,0.021545566634771474
884.0,0.021865152601710403
883.0,0.02255077261765881
882.0,0.023466619608062178
881.0,0.024568191490736968
880.0,0.025810808881832736
879.0,0.02724191609646076
878.0,0.028863370523193765
877.0,0.03063068826647264
876.0,0.03245202378113787
875.0,0.034187046963396917
874.0,0.03578752703018084
873.0,0.0371573187987575
872.0,0.038199360808321536
871.0,0.03910132267333921
870.0,0.03995754427315856
869.0,0.04081545726880842
868.0,0.041436116778032606
867.0,0.04172287445230238
866.0,0.0417706858116178
865.0,0.041627267521392675
864.0,0.041436116778032606
863.0,0.04105406750606355
862.0,0.040338629726504704
861.0,0.039338992729018196
860.0,0.038151940981675736
859.0,0.03692083935817303
858.0,0.035646070707806565
857.0,0.03432802877989327
856.0,0.0329671178412978
855.0,0.031657169041054534
854.0,0.030537492025363155
853.0,0.02960662792039992
852.0,0.028956208163971375
851.0,0.028538594975413334
850.0,0.028306761050139073
849.0,0.028214062120885508
848.0,0.028075050815808744
847.0,0.027750864037404455
846.0,0.02724191609646076
845.0,0.026456531467510258
844.0,0.025672564576383117
843.0,0.025028005701930978
842.0,0.024568191490736968
841.0,0.024200690320592466
840.0,0.023787622882622816
839.0,0.023374947949272418
838.0,0.02296266477531872
837.0,0.022642270454698687
836.0,0.022367834754000393
835.0,0.022139270735302752
834.0,0.021865152601710403
833.0,0.021499930688540836
832.0,0.0211806132671577
831.0,0.0209982515252789
830.0,0.020907099361673565
829.0,0.02081596632558158
828.0,0.02067930261797568
827.0,0.020497151212598652
826.0,0.020315076172974234
825.0,0.02004210665933459
824.0,0.019678413991243593
823.0,0.01940584422377989
822.0,0.0192242260373785
821.0,0.019178833355664393
820.0,0.019133445417920836
819.0,0.01899731005860028
818.0,0.018861217359339655
817.0,0.018815862601645694
816.0,0.018725167293411005
815.0,0.01858915983411169
814.0,0.01845319495476394
813.0,0.018543833477873584
812.0,0.018815862601645694
811.0,0.019133445417920836
810.0,0.0192242260373785
809.0,0.0190880622231564
808.0,0.018906576854070378
807.0,0.018861217359339655
806.0,0.01899731005860028
805.0,0.0190880622231564
804.0,0.0190880622231564
803.0,0.018906576854070378
802.0,0.018725167293411005
801.0,0.018634490921455527
800.0,0.018679826740892747
799.0,0.018861217359339655
798.0,0.01899731005860028
797.0,0.019133445417920836
796.0,0.0192242260373785
795.0,0.019360432556262852
794.0,0.01949668180660491
793.0,0.019723858922159776
792.0,0.01990568621470623
791.0,0.02004210665933459
790.0,0.020087589665283012
789.0,0.02026956933771462
788.0,0.02058821736556471
787.0,0.0209982515252789
786.0,0.02140867317992523
785.0,0.021773818325474092
784.0,0.0221849739168134
783.0,0.022642270454698687
782.0,0.023237476732539397
781.0,0.023879381700184332
780.0,0.024476287039668643
779.0,0.025028005701930978
778.0,0.02544225514642018
777.0,0.025810808881832736
776.0,0.02636422658259252
775.0,0.02696455931306696
774.0,0.027612000892527133
773.0,0.02826040911222183
772.0,0.02890978686288448
771.0,0.029653123769906697
770.0,0.03058408764601861
769.0,0.031657169041054534
768.0,0.03263926003405038
767.0,0.03362357691107709
766.0,0.03461012978487776
765.0,0.03588185684851508
764.0,0.03739392707587297
763.0,0.03905380426616856
762.0,0.040529297924893015
761.0,0.041914151478914974
760.0,0.04325545471730896
759.0,0.04464904263234004
758.0,0.04599883231842972
757.0,0.04720755695590784
756.0,0.048225491918274965
755.0,0.048905443158337114
754.0,0.04900266601119507
753.0,0.048565334467987054
752.0,0.047885915093007325
751.0,0.04725597598510167
750.0,0.04682039893436585
749.0,0.04653025674659861
748.0,0.04633693625290869
747.0,0.046047116768076934
746.0,0.045660991397539874
745.0,0.04541983725624266
744.0,0.04537162249272897
743.0,0.04541983725624266
742.0,0.04541983725624266
741.0,0.04513062893352182
740.0,0.04460091336073302
739.0,0.0439276630048171
738.0,0.0431115453499229
737.0,0.04215336629184985
736.0,0.04086316882962593
735.0,0.039338992729018196
734.0,0.03767802727041558
733.0,0.036117771071222604
732.0,0.03470420418834386
731.0,0.03343591590268957
730.0,0.032311649546687526
729.0,0.03151705144606498
728.0,0.03133029827960798
727.0,0.03161045815293173
726.0,0.032031037121307726
725.0,0.03226486821611996
724.0,0.03235843591698884
723.0,0.03277974021703267
722.0,0.03371743783253667
721.0,0.03484535401307465
720.0,0.035646070707806565
719.0,0.03602339000339416
718.0,0.03621217265444465
717.0,0.03663723389626394
716.0,0.03739392707587297
715.0,0.03829421599749461
714.0,0.03919637508823026
713.0,0.03995754427315856
712.0,0.04062466342415694
711.0,0.041149548320321694
710.0,0.041627267521392675
709.0,0.04210551278710151
708.0,0.04248848854552012
707.0,0.04253638427006878
706.0,0.042201225070002124
705.0,0.0417706858116178
704.0,0.04172287445230238
703.0,0.04224908912272074
702.0,0.0431115453499229
701.0,0.044071843103049346
700.0,0.04469717723830824
699.0,0.04484161307420642
698.0,0.04450467081587295
697.0,0.0439276630048171
696.0,0.043735497301724546
695.0,0.044071843103049346
694.0,0.044793462458058375
693.0,0.045612749855485024
692.0,0.04624030826677128
691.0,0.04657860031896477
690.0,0.04653025674659861
689.0,0.04599883231842972
688.0,0.04522701031028298
687.0,0.04440844959427559
686.0,0.04383156952463674
685.0,0.0439276630048171
684.0,0.04455278942230456
683.0,0.04508244626504121
682.0,0.04508244626504121
681.0,0.04464904263234004
680.0,0.044456557540257124
679.0,0.044793462458058375
678.0,0.04513062893352182
677.0,0.0451788169482068
676.0,0.04508244626504121
675.0,0.044937930324967956
674.0,0.04464904263234004
673.0,0.044456557540257124
672.0,0.044937930324967956
671.0,0.04643358574299339
670.0,0.048468209457651845
669.0,0.048808242065293994
668.0,0.04575749056067524
667.0,0.04248848854552012
666.0,0.04124505013091051
665.0,0.04105406750606355
664.0,0.041197296600497646
663.0,0.041627267521392675
662.0,0.04244059810252043
661.0,0.04359142880416744
660.0,0.04474531717982
659.0,0.045516282844447975
658.0,0.045902279520810385
657.0,0.046047116768076934
656.0,0.046047116768076934
655.0,0.045612749855485024
654.0,0.04460091336073302
653.0,0.043303435105349175
652.0,0.04244059810252043
651.0,0.042057664554595586
650.0,0.04124505013091051
649.0,0.039767126871487646
648.0,0.03886378261277468
647.0,0.03981472339538916
646.0,0.041914151478914974
645.0,0.043063586155803746
644.0,0.04224908912272074
643.0,0.04038628892895613
642.0,0.038958783046687984
641.0,0.03857890593355173
640.0,0.03876880295533702
639.0,0.03924390909822728
638.0,0.04019568349166214
637.0,0.04186632432376469
636.0,0.04397571771932274
635.0,0.04570923829887308
634.0,0.046047116768076934
633.0,0.044937930324967956
632.0,0.0433514207947967
631.0,0.04248848854552012
630.0,0.042392712939904875
629.0,0.042392712939904875
628.0,0.042057664554595586
627.0,0.041483896576958834
626.0,0.041197296600497646
625.0,0.04138834223512067
624.0,0.0417706858116178
623.0,0.04200982159316968
622.0,0.04200982159316968
621.0,0.04181850243505214
620.0,0.04181850243505214
619.0,0.04215336629184985
618.0,0.04244059810252043
617.0,0.042392712939904875
616.0,0.042201225070002124
615.0,0.042201225070002124
614.0,0.042344833056508824
613.0,0.042201225070002124
612.0,0.041579471947481794
611.0,0.04076775094900409
610.0,0.03986232513620536
609.0,0.038911280232103884
608.0,0.038341651362284734
607.0,0.03876880295533702
606.0,0.039909932095080425
605.0,0.04043395336207234
604.0,0.03948165721929198
603.0,0.03782014709123227
602.0,0.036779013477011624
601.0,0.03668448861388862
600.0,0.036731748473764814
