cm-1,A
4000.0,0.0043648054024501
3999.0,0.0043648054024501
3998.0,0.0043648054024501
3997.0,0.0043648054024501
3996.0,0.004408675747646695
3995.0,0.004408675747646695
3994.0,0.0043648054024501
3993.0,0.0043648054024501
3992.0,0.0043648054024501
3991.0,0.004408675747646695
3990.0,0.004408675747646695
3989.0,0.0043648054024501
3988.0,0.0043648054024501
3987.0,0.004320939488377862
3986.0,0.004277078004534696
3985.0,0.004277078004534696
3984.0,0.004277078004534696
3983.0,0.0043648054024501
3982.0,0.004408675747646695
3981.0,0.004408675747646695
3980.0,0.0043648054024501
3979.0,0.004320939488377862
3978.0,0.004233220950025984
3977.0,0.004189368323957332
3976.0,0.004233220950025984
3975.0,0.004320939488377862
3974.0,0.004408675747646695
3973.0,0.004452550524862486
3972.0,0.0044964297349936455
3971.0,0.004452550524862486
3970.0,0.0043648054024501
3969.0,0.004277078004534696
3968.0,0.004189368323957332
3967.0,0.004189368323957332
3966.0,0.004189368323957332
3965.0,0.004189368323957332
3964.0,0.004189368323957332
3963.0,0.004233220950025984
3962.0,0.004277078004534696
3961.0,0.004320939488377862
3960.0,0.004320939488377862
3959.0,0.004277078004534696
3958.0,0.004233220950025984
3957.0,0.004233220950025984
3956.0,0.004233220950025984
3955.0,0.004233220950025984
3954.0,0.004189368323957332
3953.0,0.004101676353562844
3952.0,0.003970171588923321
3951.0,0.0038387066319929275
3950.0,0.0037510854308679953
3949.0,0.003707281458678491
3948.0,0.0036634819042162814
3947.0,0.003619686766589858
3946.0,0.0036634819042162814
3945.0,0.003707281458678491
3944.0,0.0038387066319929275
3943.0,0.003926345514724705
3942.0,0.003970171588923321
3941.0,0.00401400208620073
3940.0,0.0040578370074493275
3939.0,0.004101676353562844
3938.0,0.004101676353562844
3937.0,0.0040578370074493275
3936.0,0.003970171588923321
3935.0,0.003970171588923321
3934.0,0.00401400208620073
3933.0,0.00401400208620073
3932.0,0.003970171588923321
3931.0,0.0038825238627120395
3930.0,0.0038387066319929275
3929.0,0.0038825238627120395
3928.0,0.003970171588923321
3927.0,0.0040578370074493275
3926.0,0.0040578370074493275
3925.0,0.003926345514724705
3924.0,0.0037510854308679953
3923.0,0.0035758960449088217
3922.0,0.003619686766589858
3921.0,0.0037510854308679953
3920.0,0.0038825238627120395
3919.0,0.00401400208620073
3918.0,0.004101676353562844
3917.0,0.004145520125434121
3916.0,0.0040578370074493275
3915.0,0.00401400208620073
3914.0,0.004101676353562844
3913.0,0.004189368323957332
3912.0,0.004277078004534696
3911.0,0.004320939488377862
3910.0,0.004277078004534696
3909.0,0.004145520125434121
3908.0,0.003970171588923321
3907.0,0.0038387066319929275
3906.0,0.0037510854308679953
3905.0,0.0037510854308679953
3904.0,0.0036634819042162814
3903.0,0.0035321097382827737
3902.0,0.003488327845821315
3901.0,0.003619686766589858
3900.0,0.003794893821675638
3899.0,0.0038825238627120395
3898.0,0.0038825238627120395
3897.0,0.003926345514724705
3896.0,0.00401400208620073
3895.0,0.0040578370074493275
3894.0,0.004145520125434121
3893.0,0.004233220950025984
3892.0,0.004320939488377862
3891.0,0.004101676353562844
3890.0,0.003707281458678491
3889.0,0.003488327845821315
3888.0,0.003619686766589858
3887.0,0.0038825238627120395
3886.0,0.004101676353562844
3885.0,0.00401400208620073
3884.0,0.0038387066319929275
3883.0,0.003926345514724705
3882.0,0.004189368323957332
3881.0,0.004408675747646695
3880.0,0.004320939488377862
3879.0,0.0040578370074493275
3878.0,0.0038825238627120395
3877.0,0.003970171588923321
3876.0,0.004101676353562844
3875.0,0.0040578370074493275
3874.0,0.003794893821675638
3873.0,0.003488327845821315
3872.0,0.0034445503666347133
3871.0,0.0036634819042162814
3870.0,0.003794893821675638
3869.0,0.003619686766589858
3868.0,0.0034445503666347133
3867.0,0.0035321097382827737
3866.0,0.003794893821675638
3865.0,0.0038825238627120395
3864.0,0.0038825238627120395
3863.0,0.0038387066319929275
3862.0,0.0038387066319929275
3861.0,0.0038387066319929275
3860.0,0.0038825238627120395
3859.0,0.0038387066319929275
3858.0,0.0036634819042162814
3857.0,0.0033570086445275926
3856.0,0.0030944893043338695
3855.0,0.003050751504618754
3854.0,0.0033570086445275926
3853.0,0.0033570086445275926
3852.0,0.0030070181092942683
3851.0,0.003050751504618754
3850.0,0.003619686766589858
3849.0,0.00401400208620073
3848.0,0.004189368323957332
3847.0,0.004145520125434121
3846.0,0.004101676353562844
3845.0,0.003970171588923321
3844.0,0.003794893821675638
3843.0,0.0035758960449088217
3842.0,0.0033570086445275926
3841.0,0.0032694845648473247
3840.0,0.0033570086445275926
3839.0,0.003488327845821315
3838.0,0.0034445503666347133
3837.0,0.0032694845648473247
3836.0,0.0032257291386954545
3835.0,0.0034445503666347133
3834.0,0.0038387066319929275
3833.0,0.004189368323957332
3832.0,0.004408675747646695
3831.0,0.0043648054024501
3830.0,0.004233220950025984
3829.0,0.004189368323957332
3828.0,0.004145520125434121
3827.0,0.004101676353562844
3826.0,0.0038825238627120395
3825.0,0.003619686766589858
3824.0,0.003488327845821315
3823.0,0.0035758960449088217
3822.0,0.0038387066319929275
3821.0,0.0038387066319929275
3820.0,0.0034445503666347133
3819.0,0.0031819781204844855
3818.0,0.0034445503666347133
3817.0,0.0038387066319929275
3816.0,0.00401400208620073
3815.0,0.0038825238627120395
3814.0,0.003794893821675638
3813.0,0.00401400208620073
3812.0,0.004189368323957332
3811.0,0.004233220950025984
3810.0,0.004145520125434121
3809.0,0.004233220950025984
3808.0,0.0044964297349936455
3807.0,0.004540313378935901
3806.0,0.004189368323957332
3805.0,0.003794893821675638
3804.0,0.0036634819042162814
3803.0,0.003794893821675638
3802.0,0.003926345514724705
3801.0,0.003707281458678491
3800.0,0.0033570086445275926
3799.0,0.0034445503666347133
3798.0,0.0038825238627120395
3797.0,0.004320939488377862
3796.0,0.0044964297349936455
3795.0,0.0044964297349936455
3794.0,0.0044964297349936455
3793.0,0.004540313378935901
3792.0,0.004540313378935901
3791.0,0.0044964297349936455
3790.0,0.0043648054024501
3789.0,0.004277078004534696
3788.0,0.004189368323957332
3787.0,0.004145520125434121
3786.0,0.004233220950025984
3785.0,0.004320939488377862
3784.0,0.004320939488377862
3783.0,0.004277078004534696
3782.0,0.004320939488377862
3781.0,0.004408675747646695
3780.0,0.004452550524862486
3779.0,0.004452550524862486
3778.0,0.0043648054024501
3777.0,0.004320939488377862
3776.0,0.004408675747646695
3775.0,0.004452550524862486
3774.0,0.004408675747646695
3773.0,0.004277078004534696
3772.0,0.004320939488377862
3771.0,0.004408675747646695
3770.0,0.004408675747646695
3769.0,0.004320939488377862
3768.0,0.004277078004534696
3767.0,0.0043648054024501
3766.0,0.004452550524862486
3765.0,0.004408675747646695
3764.0,0.004277078004534696
3763.0,0.004189368323957332
3762.0,0.004189368323957332
3761.0,0.004189368323957332
3760.0,0.004189368323957332
3759.0,0.004145520125434121
3758.0,0.0040578370074493275
3757.0,0.0038825238627120395
3756.0,0.0037510854308679953
3755.0,0.0035321097382827737
3754.0,0.0033132443998284966
3753.0,0.003050751504618754
3752.0,0.0029632891174733444
3751.0,0.0030944893043338695
3750.0,0.0030070181092942683
3749.0,0.0027447101798967477
3748.0,0.002613615602686581
3747.0,0.0028321285541661467
3746.0,0.0033132443998284966
3745.0,0.0037510854308679953
3744.0,0.003707281458678491
3743.0,0.0033132443998284966
3742.0,0.0032694845648473247
3741.0,0.0034445503666347133
3740.0,0.0033570086445275926
3739.0,0.0029195645282691363
3738.0,0.002482560585275184
3737.0,0.0022205691343961664
3736.0,0.0022205691343961664
3735.0,0.002351545103793873
3734.0,0.0025262411970197185
3733.0,0.0027884171674950053
3732.0,0.003050751504618754
3731.0,0.0031819781204844855
3730.0,0.0032694845648473247
3729.0,0.0034007772998332353
3728.0,0.0035321097382827737
3727.0,0.0035321097382827737
3726.0,0.0034445503666347133
3725.0,0.0033132443998284966
3724.0,0.0032694845648473247
3723.0,0.0033570086445275926
3722.0,0.003488327845821315
3721.0,0.0036634819042162814
3720.0,0.003926345514724705
3719.0,0.004101676353562844
3718.0,0.004189368323957332
3717.0,0.0040578370074493275
3716.0,0.003794893821675638
3715.0,0.0035758960449088217
3714.0,0.0034445503666347133
3713.0,0.003488327845821315
3712.0,0.0036634819042162814
3711.0,0.0037510854308679953
3710.0,0.003707281458678491
3709.0,0.003707281458678491
3708.0,0.0038387066319929275
3707.0,0.003970171588923321
3706.0,0.004101676353562844
3705.0,0.004233220950025984
3704.0,0.0043648054024501
3703.0,0.0044964297349936455
3702.0,0.0044964297349936455
3701.0,0.0043648054024501
3700.0,0.004233220950025984
3699.0,0.004233220950025984
3698.0,0.0043648054024501
3697.0,0.0044964297349936455
3696.0,0.0044964297349936455
3695.0,0.004452550524862486
3694.0,0.004408675747646695
3693.0,0.004320939488377862
3692.0,0.004277078004534696
3691.0,0.004320939488377862
3690.0,0.004452550524862486
3689.0,0.004452550524862486
3688.0,0.004233220950025984
3687.0,0.004145520125434121
3686.0,0.004320939488377862
3685.0,0.004715892310740433
3684.0,0.004979393875242044
3683.0,0.005067263269958211
3682.0,0.005023326350308999
3681.0,0.00489154225525934
3680.0,0.00458420145758498
3679.0,0.004145520125434121
3678.0,0.0038825238627120395
3677.0,0.0040578370074493275
3676.0,0.0044964297349936455
3675.0,0.004540313378935901
3674.0,0.004189368323957332
3673.0,0.004233220950025984
3672.0,0.004671990922590297
3671.0,0.005111204635089406
3670.0,0.00537494623139545
3669.0,0.0052870145684298375
3668.0,0.005199100705396198
3667.0,0.00537494623139545
3666.0,0.005638848091999105
3665.0,0.005814871797682919
3664.0,0.00590291041179003
3663.0,0.005946936412324799
3662.0,0.00590291041179003
3661.0,0.005814871797682919
3660.0,0.005682847330363394
3659.0,0.005594853310833647
3658.0,0.005726851026829571
3657.0,0.005946936412324799
3656.0,0.005990966876386672
3655.0,0.005814871797682919
3654.0,0.005550862985963967
3653.0,0.005330978174470591
3652.0,0.005111204635089406
3651.0,0.005023326350308999
3650.0,0.005243055412371911
3649.0,0.005506877116487674
3648.0,0.005594853310833647
3647.0,0.005726851026829571
3646.0,0.005990966876386672
3645.0,0.00625524344553785
3644.0,0.006475596832934416
3643.0,0.00656376950238835
3642.0,0.006519680930003435
3641.0,0.006475596832934416
3640.0,0.006431517210272464
3639.0,0.006387442061109638
3638.0,0.006387442061109638
3637.0,0.006387442061109638
3636.0,0.006387442061109638
3635.0,0.006387442061109638
3634.0,0.00625524344553785
3633.0,0.005990966876386672
3632.0,0.00577085918230158
3631.0,0.00577085918230158
3630.0,0.006079041198713275
3629.0,0.006431517210272464
3628.0,0.006431517210272464
3627.0,0.006299305179649828
3626.0,0.006431517210272464
3625.0,0.006696062080525422
3624.0,0.006740168563263094
3623.0,0.006607862550997545
3622.0,0.006475596832934416
3621.0,0.006387442061109638
3620.0,0.006387442061109638
3619.0,0.006343371384537999
3618.0,0.00625524344553785
3617.0,0.00621118618129457
3616.0,0.006343371384537999
3615.0,0.00656376950238835
3614.0,0.006740168563263094
3613.0,0.006696062080525422
3612.0,0.00656376950238835
3611.0,0.006387442061109638
3610.0,0.006387442061109638
3609.0,0.006519680930003435
3608.0,0.006740168563263094
3607.0,0.006916639301937977
3606.0,0.007004901568658406
3605.0,0.007049039429553483
3604.0,0.007004901568658406
3603.0,0.006916639301937977
3602.0,0.006872514894289861
3601.0,0.006872514894289861
3600.0,0.006828394969235152
3599.0,0.006784279525863024
3598.0,0.006740168563263094
3597.0,0.006740168563263094
3596.0,0.006828394969235152
3595.0,0.007004901568658406
3594.0,0.007137328610972382
3593.0,0.007181479933320523
3592.0,0.007181479933320523
3591.0,0.007093181776687496
3590.0,0.007004901568658406
3589.0,0.007004901568658406
3588.0,0.007181479933320523
3587.0,0.007313960837872058
3586.0,0.007358130121602358
3585.0,0.0074464821678643656
3584.0,0.007711646202907652
3583.0,0.007976972236149349
3582.0,0.008153946355103248
3581.0,0.008242460465651913
3580.0,0.008242460465651913
3579.0,0.008153946355103248
3578.0,0.008109696063975047
3577.0,0.008153946355103248
3576.0,0.008330992620051436
3575.0,0.008463824699968647
3574.0,0.008596697419959609
3573.0,0.008596697419959609
3572.0,0.00850811108984062
3571.0,0.008330992620051436
3570.0,0.008153946355103248
3569.0,0.008065450281052211
3568.0,0.008153946355103248
3567.0,0.008242460465651913
3566.0,0.008242460465651913
3565.0,0.008286724286910463
3564.0,0.008552401996197112
3563.0,0.008818242332126802
3562.0,0.009039900317800775
3561.0,0.009172949432521227
3560.0,0.009306039320248427
3559.0,0.00939478857608056
3558.0,0.009483555971770974
3557.0,0.009527946474380489
3556.0,0.009572341514736404
3555.0,0.009572341514736404
3554.0,0.009572341514736404
3553.0,0.009572341514736404
3552.0,0.009483555971770974
3551.0,0.009350411681145587
3550.0,0.009261671492462709
3549.0,0.009306039320248427
3548.0,0.009439170005980158
3547.0,0.009616741093766423
3546.0,0.009705553871561357
3545.0,0.00966114521239847
3544.0,0.009572341514736404
3543.0,0.009483555971770974
3542.0,0.009483555971770974
3541.0,0.009527946474380489
3540.0,0.009616741093766423
3539.0,0.009705553871561357
3538.0,0.009794384815193347
3537.0,0.009838807101520963
3536.0,0.009838807101520963
3535.0,0.009883233932095559
3534.0,0.009927665307847056
3533.0,0.01001654169860089
3532.0,0.010105436281226954
3531.0,0.010060986715464404
3530.0,0.009972101229705377
3529.0,0.009838807101520963
3528.0,0.00974996707218323
3527.0,0.00974996707218323
3526.0,0.009794384815193347
3525.0,0.009883233932095559
3524.0,0.009927665307847056
3523.0,0.009883233932095559
3522.0,0.009883233932095559
3521.0,0.009838807101520963
3520.0,0.009883233932095559
3519.0,0.009972101229705377
3518.0,0.010105436281226954
3517.0,0.010149890396819572
3516.0,0.010194349063173958
3515.0,0.010194349063173958
3514.0,0.010149890396819572
3513.0,0.010105436281226954
3512.0,0.010105436281226954
3511.0,0.010149890396819572
3510.0,0.010194349063173958
3509.0,0.010194349063173958
3508.0,0.010149890396819572
3507.0,0.010060986715464404
3506.0,0.009927665307847056
3505.0,0.009883233932095559
3504.0,0.009838807101520963
3503.0,0.009883233932095559
3502.0,0.009927665307847056
3501.0,0.01001654169860089
3500.0,0.010060986715464404
3499.0,0.010105436281226954
3498.0,0.010105436281226954
3497.0,0.010149890396819572
3496.0,0.010194349063173958
3495.0,0.01023881228122181
3494.0,0.010283280051895272
3493.0,0.010283280051895272
3492.0,0.01023881228122181
3491.0,0.010149890396819572
3490.0,0.010105436281226954
3489.0,0.010060986715464404
3488.0,0.010149890396819572
3487.0,0.01023881228122181
3486.0,0.01037222925484893
3485.0,0.01046119667949763
3484.0,0.010550182333308289
3483.0,0.010639186223752484
3482.0,0.010728208358306901
3481.0,0.01077272626946324
3480.0,0.010817248744452446
3479.0,0.01086177578421088
3478.0,0.010950843561779777
3477.0,0.011039929609661936
3476.0,0.011129033935354915
3475.0,0.011129033935354915
3474.0,0.011084479487313281
3473.0,0.011084479487313281
3472.0,0.011129033935354915
3471.0,0.011129033935354915
3470.0,0.011129033935354915
3469.0,0.011084479487313281
3468.0,0.011084479487313281
3467.0,0.01117359295472431
3466.0,0.011307297450183107
3465.0,0.011441043121384498
3464.0,0.011530229790124524
3463.0,0.011574829993696856
3462.0,0.011530229790124524
3461.0,0.011441043121384498
3460.0,0.011351874764248926
3459.0,0.011396456654336085
3458.0,0.011485634166333858
3457.0,0.011664044143949504
3456.0,0.011842527443247208
3455.0,0.011931796607364653
3454.0,0.012021084124518078
3453.0,0.012065734767841452
3452.0,0.01215504982870197
3451.0,0.012289056869694281
3450.0,0.012378417874516323
3449.0,0.012512493866907004
3448.0,0.012691326268817527
3447.0,0.012825498912458322
3446.0,0.013004460275618523
3445.0,0.013093968619278806
3444.0,0.01322826573375524
3443.0,0.013317820220494436
3442.0,0.013407393177789162
3441.0,0.013496984613259544
3440.0,0.013586594534531482
3439.0,0.013676222949234651
3438.0,0.013765869865004277
3437.0,0.01381070026317599
3436.0,0.01385553528947936
3435.0,0.013900374944870508
3434.0,0.01403492169512921
3433.0,0.014124642691606404
3432.0,0.014259258949925524
3431.0,0.014304140310157809
3430.0,0.014304140310157809
3429.0,0.014304140310157809
3428.0,0.014259258949925524
3427.0,0.014214382227394795
3426.0,0.014124642691606404
3425.0,0.013945219230304673
3424.0,0.013765869865004277
3423.0,0.013631406429727155
3422.0,0.013586594534531482
3421.0,0.013586594534531482
3420.0,0.013586594534531482
3419.0,0.013541787262693505
3418.0,0.013496984613259544
3417.0,0.013452186585275916
3416.0,0.013407393177789162
3415.0,0.013407393177789162
3414.0,0.013317820220494436
3413.0,0.01322826573375524
3412.0,0.013138729709955221
3411.0,0.013004460275618523
3410.0,0.012914970375878188
3409.0,0.012825498912458322
3408.0,0.012736045877764557
3407.0,0.01264661126420652
3406.0,0.012557195064198723
3405.0,0.012467797270160563
3404.0,0.012378417874516323
3403.0,0.012333735073725371
3402.0,0.012289056869694281
3401.0,0.012289056869694281
3400.0,0.012333735073725371
3399.0,0.012378417874516323
3398.0,0.012423105273012602
3397.0,0.012333735073725371
3396.0,0.012244383261476699
3395.0,0.012110390002254778
3394.0,0.012021084124518078
3393.0,0.012065734767841452
3392.0,0.012199714248127602
3391.0,0.012333735073725371
3390.0,0.012423105273012602
3389.0,0.012378417874516323
3388.0,0.012244383261476699
3387.0,0.012110390002254778
3386.0,0.012021084124518078
3385.0,0.012065734767841452
3384.0,0.01215504982870197
3383.0,0.01215504982870197
3382.0,0.012110390002254778
3381.0,0.012065734767841452
3380.0,0.012065734767841452
3379.0,0.01215504982870197
3378.0,0.012199714248127602
3377.0,0.012199714248127602
3376.0,0.01215504982870197
3375.0,0.012065734767841452
3374.0,0.0119764380713403
3373.0,0.011931796607364653
3372.0,0.011887159731648111
3371.0,0.011842527443247208
3370.0,0.011797899741219142
3369.0,0.011797899741219142
3368.0,0.011753276624621556
3367.0,0.011753276624621556
3366.0,0.011797899741219142
3365.0,0.011842527443247208
3364.0,0.011887159731648111
3363.0,0.011887159731648111
3362.0,0.011931796607364653
3361.0,0.011931796607364653
3360.0,0.011931796607364653
3359.0,0.011931796607364653
3358.0,0.011887159731648111
3357.0,0.011842527443247208
3356.0,0.011842527443247208
3355.0,0.011842527443247208
3354.0,0.011931796607364653
3353.0,0.012021084124518078
3352.0,0.012110390002254778
3351.0,0.012199714248127602
3350.0,0.012244383261476699
3349.0,0.012244383261476699
3348.0,0.012244383261476699
3347.0,0.01215504982870197
3346.0,0.012065734767841452
3345.0,0.0119764380713403
3344.0,0.011931796607364653
3343.0,0.011931796607364653
3342.0,0.0119764380713403
3341.0,0.0119764380713403
3340.0,0.012021084124518078
3339.0,0.012065734767841452
3338.0,0.012110390002254778
3337.0,0.01215504982870197
3336.0,0.01215504982870197
3335.0,0.012110390002254778
3334.0,0.012110390002254778
3333.0,0.012110390002254778
3332.0,0.012110390002254778
3331.0,0.012110390002254778
3330.0,0.012110390002254778
3329.0,0.012110390002254778
3328.0,0.012065734767841452
3327.0,0.012021084124518078
3326.0,0.011931796607364653
3325.0,0.011842527443247208
3324.0,0.011842527443247208
3323.0,0.011887159731648111
3322.0,0.0119764380713403
3321.0,0.012065734767841452
3320.0,0.01215504982870197
3319.0,0.012199714248127602
3318.0,0.01215504982870197
3317.0,0.012110390002254778
3316.0,0.012021084124518078
3315.0,0.011931796607364653
3314.0,0.011887159731648111
3313.0,0.011797899741219142
3312.0,0.011753276624621556
3311.0,0.011708658092512314
3310.0,0.011664044143949504
3309.0,0.011619434777991433
3308.0,0.011619434777991433
3307.0,0.011619434777991433
3306.0,0.011664044143949504
3305.0,0.011708658092512314
3304.0,0.011753276624621556
3303.0,0.011753276624621556
3302.0,0.011753276624621556
3301.0,0.011797899741219142
3300.0,0.011842527443247208
3299.0,0.011887159731648111
3298.0,0.0119764380713403
3297.0,0.012021084124518078
3296.0,0.012110390002254778
3295.0,0.01215504982870197
3294.0,0.012110390002254778
3293.0,0.012065734767841452
3292.0,0.012065734767841452
3291.0,0.012065734767841452
3290.0,0.012065734767841452
3289.0,0.0119764380713403
3288.0,0.011797899741219142
3287.0,0.011619434777991433
3286.0,0.011530229790124524
3285.0,0.011530229790124524
3284.0,0.011619434777991433
3283.0,0.011664044143949504
3282.0,0.011708658092512314
3281.0,0.011708658092512314
3280.0,0.011619434777991433
3279.0,0.011441043121384498
3278.0,0.011262724711199823
3277.0,0.011129033935354915
3276.0,0.011129033935354915
3275.0,0.011218156546359825
3274.0,0.011441043121384498
3273.0,0.011619434777991433
3272.0,0.011753276624621556
3271.0,0.011797899741219142
3270.0,0.011753276624621556
3269.0,0.011619434777991433
3268.0,0.011485634166333858
3267.0,0.011307297450183107
3266.0,0.011218156546359825
3265.0,0.011129033935354915
3264.0,0.011084479487313281
3263.0,0.011039929609661936
3262.0,0.011039929609661936
3261.0,0.011039929609661936
3260.0,0.011084479487313281
3259.0,0.01117359295472431
3258.0,0.011218156546359825
3257.0,0.011262724711199823
3256.0,0.011218156546359825
3255.0,0.01117359295472431
3254.0,0.011129033935354915
3253.0,0.011084479487313281
3252.0,0.011084479487313281
3251.0,0.011129033935354915
3250.0,0.011129033935354915
3249.0,0.011129033935354915
3248.0,0.011084479487313281
3247.0,0.011039929609661936
3246.0,0.011084479487313281
3245.0,0.011129033935354915
3244.0,0.01117359295472431
3243.0,0.011218156546359825
3242.0,0.011218156546359825
3241.0,0.01117359295472431
3240.0,0.011129033935354915
3239.0,0.011039929609661936
3238.0,0.010950843561779777
3237.0,0.010995384301463185
3236.0,0.011039929609661936
3235.0,0.011084479487313281
3234.0,0.011084479487313281
3233.0,0.011039929609661936
3232.0,0.010995384301463185
3231.0,0.010950843561779777
3230.0,0.010950843561779777
3229.0,0.010950843561779777
3228.0,0.010950843561779777
3227.0,0.010995384301463185
3226.0,0.011039929609661936
3225.0,0.010995384301463185
3224.0,0.010906307389674463
3223.0,0.01077272626946324
3222.0,0.010639186223752484
3221.0,0.010594681998483901
3220.0,0.010639186223752484
3219.0,0.010683695010048622
3218.0,0.010728208358306901
3217.0,0.010728208358306901
3216.0,0.010728208358306901
3215.0,0.010728208358306901
3214.0,0.01077272626946324
3213.0,0.01077272626946324
3212.0,0.010817248744452446
3211.0,0.01086177578421088
3210.0,0.010817248744452446
3209.0,0.01077272626946324
3208.0,0.010639186223752484
3207.0,0.010550182333308289
3206.0,0.010505687227290839
3205.0,0.010505687227290839
3204.0,0.010594681998483901
3203.0,0.010683695010048622
3202.0,0.01077272626946324
3201.0,0.01077272626946324
3200.0,0.010728208358306901
3199.0,0.010639186223752484
3198.0,0.01046119667949763
3197.0,0.010327752376126709
3196.0,0.010283280051895272
3195.0,0.010283280051895272
3194.0,0.010327752376126709
3193.0,0.01037222925484893
3192.0,0.010416710688994968
3191.0,0.010416710688994968
3190.0,0.01037222925484893
3189.0,0.010283280051895272
3188.0,0.01023881228122181
3187.0,0.010149890396819572
3186.0,0.010149890396819572
3185.0,0.010194349063173958
3184.0,0.01023881228122181
3183.0,0.010283280051895272
3182.0,0.010327752376126709
3181.0,0.010283280051895272
3180.0,0.010283280051895272
3179.0,0.01023881228122181
3178.0,0.01023881228122181
3177.0,0.010194349063173958
3176.0,0.010105436281226954
3175.0,0.01001654169860089
3174.0,0.009972101229705377
3173.0,0.009927665307847056
3172.0,0.009972101229705377
3171.0,0.010060986715464404
3170.0,0.010060986715464404
3169.0,0.01001654169860089
3168.0,0.009927665307847056
3167.0,0.009883233932095559
3166.0,0.009838807101520963
3165.0,0.009838807101520963
3164.0,0.009838807101520963
3163.0,0.009794384815193347
3162.0,0.009794384815193347
3161.0,0.009838807101520963
3160.0,0.009883233932095559
3159.0,0.01001654169860089
3158.0,0.010060986715464404
3157.0,0.010060986715464404
3156.0,0.009972101229705377
3155.0,0.009927665307847056
3154.0,0.009883233932095559
3153.0,0.009883233932095559
3152.0,0.009927665307847056
3151.0,0.009972101229705377
3150.0,0.009927665307847056
3149.0,0.009883233932095559
3148.0,0.009794384815193347
3147.0,0.00974996707218323
3146.0,0.00974996707218323
3145.0,0.00974996707218323
3144.0,0.009838807101520963
3143.0,0.009927665307847056
3142.0,0.01001654169860089
3141.0,0.010060986715464404
3140.0,0.010060986715464404
3139.0,0.01001654169860089
3138.0,0.009972101229705377
3137.0,0.009927665307847056
3136.0,0.009883233932095559
3135.0,0.009927665307847056
3134.0,0.01001654169860089
3133.0,0.01001654169860089
3132.0,0.01001654169860089
3131.0,0.01001654169860089
3130.0,0.01001654169860089
3129.0,0.01001654169860089
3128.0,0.009972101229705377
3127.0,0.009927665307847056
3126.0,0.009838807101520963
3125.0,0.009838807101520963
3124.0,0.009794384815193347
3123.0,0.009838807101520963
3122.0,0.009838807101520963
3121.0,0.009883233932095559
3120.0,0.009838807101520963
3119.0,0.009838807101520963
3118.0,0.009794384815193347
3117.0,0.009838807101520963
3116.0,0.009927665307847056
3115.0,0.01001654169860089
3114.0,0.010149890396819572
3113.0,0.010194349063173958
3112.0,0.010283280051895272
3111.0,0.010327752376126709
3110.0,0.01037222925484893
3109.0,0.01046119667949763
3108.0,0.010550182333308289
3107.0,0.010639186223752484
3106.0,0.010639186223752484
3105.0,0.010683695010048622
3104.0,0.010728208358306901
3103.0,0.01077272626946324
3102.0,0.01077272626946324
3101.0,0.01077272626946324
3100.0,0.010728208358306901
3099.0,0.010639186223752484
3098.0,0.010550182333308289
3097.0,0.01046119667949763
3096.0,0.01037222925484893
3095.0,0.010327752376126709
3094.0,0.010327752376126709
3093.0,0.01037222925484893
3092.0,0.010416710688994968
3091.0,0.010416710688994968
3090.0,0.01046119667949763
3089.0,0.010505687227290839
3088.0,0.010594681998483901
3087.0,0.010683695010048622
3086.0,0.01077272626946324
3085.0,0.010906307389674463
3084.0,0.010995384301463185
3083.0,0.011039929609661936
3082.0,0.011039929609661936
3081.0,0.011039929609661936
3080.0,0.010995384301463185
3079.0,0.010950843561779777
3078.0,0.010906307389674463
3077.0,0.01086177578421088
3076.0,0.01086177578421088
3075.0,0.01086177578421088
3074.0,0.010950843561779777
3073.0,0.011039929609661936
3072.0,0.01117359295472431
3071.0,0.011262724711199823
3070.0,0.011307297450183107
3069.0,0.011218156546359825
3068.0,0.01117359295472431
3067.0,0.011129033935354915
3066.0,0.011129033935354915
3065.0,0.011129033935354915
3064.0,0.011084479487313281
3063.0,0.011039929609661936
3062.0,0.010950843561779777
3061.0,0.01086177578421088
3060.0,0.01086177578421088
3059.0,0.010950843561779777
3058.0,0.011039929609661936
3057.0,0.01117359295472431
3056.0,0.011218156546359825
3055.0,0.011218156546359825
3054.0,0.011129033935354915
3053.0,0.011039929609661936
3052.0,0.010950843561779777
3051.0,0.010817248744452446
3050.0,0.010639186223752484
3049.0,0.010416710688994968
3048.0,0.010194349063173958
3047.0,0.009927665307847056
3046.0,0.00966114521239847
3045.0,0.009439170005980158
3044.0,0.009306039320248427
3043.0,0.009172949432521227
3042.0,0.009128595198514056
3041.0,0.00908424549391551
3040.0,0.00908424549391551
3039.0,0.00908424549391551
3038.0,0.00908424549391551
3037.0,0.009039900317800775
3036.0,0.008995559669244813
3035.0,0.008951223547323472
3034.0,0.008951223547323472
3033.0,0.008951223547323472
3032.0,0.008951223547323472
3031.0,0.008951223547323472
3030.0,0.008951223547323472
3029.0,0.008906891951112605
3028.0,0.008906891951112605
3027.0,0.008995559669244813
3026.0,0.009128595198514056
3025.0,0.009261671492462709
3024.0,0.00939478857608056
3023.0,0.009483555971770974
3022.0,0.009572341514736404
3021.0,0.00974996707218323
3020.0,0.009927665307847056
3019.0,0.010105436281226954
3018.0,0.010194349063173958
3017.0,0.010283280051895272
3016.0,0.010416710688994968
3015.0,0.010639186223752484
3014.0,0.01086177578421088
3013.0,0.011084479487313281
3012.0,0.011351874764248926
3011.0,0.011574829993696856
3010.0,0.011842527443247208
3009.0,0.012110390002254778
3008.0,0.012289056869694281
3007.0,0.012423105273012602
3006.0,0.012512493866907004
3005.0,0.012691326268817527
3004.0,0.012870232340102872
3003.0,0.013049212141483357
3002.0,0.01322826573375524
3001.0,0.013362604389846044
3000.0,0.013541787262693505
2999.0,0.013631406429727155
2998.0,0.013765869865004277
2997.0,0.01385553528947936
2996.0,0.013945219230304673
2995.0,0.014124642691606404
2994.0,0.014304140310157809
2993.0,0.0144837121472845
2992.0,0.014663358264387139
2991.0,0.014753209197138295
2990.0,0.014843078722943437
2989.0,0.014932966849499074
2988.0,0.015202742910707112
2987.0,0.015517693597737248
2986.0,0.015922966097169144
2985.0,0.01628352608625061
2984.0,0.016599261819461697
2983.0,0.016870075265299933
2982.0,0.017186237868137555
2981.0,0.017502630802287644
2980.0,0.017864505196230507
2979.0,0.018226681372252695
2978.0,0.018543833477873584
2977.0,0.018906576854070378
2976.0,0.019269623464054586
2975.0,0.019678413991243593
2974.0,0.02004210665933459
2973.0,0.02036058777709271
2972.0,0.020633757603838898
2971.0,0.02081596632558158
2970.0,0.020907099361673565
2969.0,0.0209982515252789
2968.0,0.021043834782408455
2967.0,0.021089422824428272
2966.0,0.021135015652343103
2965.0,0.021135015652343103
2964.0,0.021043834782408455
2963.0,0.020952673052035298
2962.0,0.020770406977844713
2961.0,0.02058821736556471
2960.0,0.020315076172974234
2959.0,0.02004210665933459
2958.0,0.019723858922159776
2957.0,0.01940584422377989
2956.0,0.0190880622231564
2955.0,0.018725167293411005
2954.0,0.01831727262871463
2953.0,0.017909760704207134
2952.0,0.017457417697056554
2951.0,0.017095882207371904
2950.0,0.016734647433454652
2949.0,0.01632861713980338
2948.0,0.015922966097169144
2947.0,0.015517693597737248
2946.0,0.015157768594724175
2945.0,0.014753209197138295
2944.0,0.014393916947563534
2943.0,0.013990068146738865
2942.0,0.013586594534531482
2941.0,0.01318349541446362
2940.0,0.012870232340102872
2939.0,0.01264661126420652
2938.0,0.012467797270160563
2937.0,0.012333735073725371
2936.0,0.012244383261476699
2935.0,0.012199714248127602
2934.0,0.01215504982870197
2933.0,0.012110390002254778
2932.0,0.012021084124518078
2931.0,0.011887159731648111
2930.0,0.011842527443247208
2929.0,0.011797899741219142
2928.0,0.011797899741219142
2927.0,0.011797899741219142
2926.0,0.011753276624621556
2925.0,0.011664044143949504
2924.0,0.011664044143949504
2923.0,0.011664044143949504
2922.0,0.011753276624621556
2921.0,0.011887159731648111
2920.0,0.012021084124518078
2919.0,0.012199714248127602
2918.0,0.012333735073725371
2917.0,0.012423105273012602
2916.0,0.012557195064198723
2915.0,0.012736045877764557
2914.0,0.012959713020733288
2913.0,0.01322826573375524
2912.0,0.013452186585275916
2911.0,0.013676222949234651
2910.0,0.01385553528947936
2909.0,0.013990068146738865
2908.0,0.01403492169512921
2907.0,0.01403492169512921
2906.0,0.013945219230304673
2905.0,0.013765869865004277
2904.0,0.013496984613259544
2903.0,0.01322826573375524
2902.0,0.012959713020733288
2901.0,0.012736045877764557
2900.0,0.01260190086298274
2899.0,0.012557195064198723
2898.0,0.012467797270160563
2897.0,0.012333735073725371
2896.0,0.012199714248127602
2895.0,0.012110390002254778
2894.0,0.012065734767841452
2893.0,0.012065734767841452
2892.0,0.012021084124518078
2891.0,0.011931796607364653
2890.0,0.011842527443247208
2889.0,0.011797899741219142
2888.0,0.011753276624621556
2887.0,0.011708658092512314
2886.0,0.011664044143949504
2885.0,0.011530229790124524
2884.0,0.011441043121384498
2883.0,0.011307297450183107
2882.0,0.01117359295472431
2881.0,0.011084479487313281
2880.0,0.010995384301463185
2879.0,0.010906307389674463
2878.0,0.010817248744452446
2877.0,0.010728208358306901
2876.0,0.010639186223752484
2875.0,0.010639186223752484
2874.0,0.010639186223752484
2873.0,0.010639186223752484
2872.0,0.010550182333308289
2871.0,0.01046119667949763
2870.0,0.010327752376126709
2869.0,0.01023881228122181
2868.0,0.010149890396819572
2867.0,0.010149890396819572
2866.0,0.010105436281226954
2865.0,0.01001654169860089
2864.0,0.009972101229705377
2863.0,0.009927665307847056
2862.0,0.009927665307847056
2861.0,0.009927665307847056
2860.0,0.009972101229705377
2859.0,0.009972101229705377
2858.0,0.009972101229705377
2857.0,0.009883233932095559
2856.0,0.009794384815193347
2855.0,0.009705553871561357
2854.0,0.00966114521239847
2853.0,0.009616741093766423
2852.0,0.009527946474380489
2851.0,0.009439170005980158
2850.0,0.009306039320248427
2849.0,0.009172949432521227
2848.0,0.008995559669244813
2847.0,0.008862564879688284
2846.0,0.008685301823389224
2845.0,0.008552401996197112
2844.0,0.00850811108984062
2843.0,0.00850811108984062
2842.0,0.008463824699968647
2841.0,0.008375265465994541
2840.0,0.008242460465651913
2839.0,0.008153946355103248
2838.0,0.008021209005416363
2837.0,0.007976972236149349
2836.0,0.007888512213050314
2835.0,0.007888512213050314
2834.0,0.007888512213050314
2833.0,0.007888512213050314
2832.0,0.007844288957383316
2831.0,0.007844288957383316
2830.0,0.007800070204414977
2829.0,0.007800070204414977
2828.0,0.007711646202907652
2827.0,0.00762324020119709
2826.0,0.007534852191956709
2825.0,0.007490664932224611
2824.0,0.007402303897961815
2823.0,0.007313960837872058
2822.0,0.007269796045857202
2821.0,0.007313960837872058
2820.0,0.007402303897961815
2819.0,0.007490664932224611
2818.0,0.0075790439479759275
2817.0,0.00762324020119709
2816.0,0.007667440952535687
2815.0,0.007667440952535687
2814.0,0.00762324020119709
2813.0,0.007534852191956709
2812.0,0.0074464821678643656
2811.0,0.007402303897961815
2810.0,0.0074464821678643656
2809.0,0.007490664932224611
2808.0,0.007534852191956709
2807.0,0.0075790439479759275
2806.0,0.00762324020119709
2805.0,0.0075790439479759275
2804.0,0.007534852191956709
2803.0,0.0074464821678643656
2802.0,0.007402303897961815
2801.0,0.007358130121602358
2800.0,0.007358130121602358
2799.0,0.007269796045857202
2798.0,0.007181479933320523
2797.0,0.007049039429553483
2796.0,0.00696076819309055
2795.0,0.006916639301937977
2794.0,0.00696076819309055
2793.0,0.007004901568658406
2792.0,0.007093181776687496
2791.0,0.007137328610972382
2790.0,0.007093181776687496
2789.0,0.007093181776687496
2788.0,0.007049039429553483
2787.0,0.007004901568658406
2786.0,0.00696076819309055
2785.0,0.006872514894289861
2784.0,0.006784279525863024
2783.0,0.006740168563263094
2782.0,0.006696062080525422
2781.0,0.006651960076740071
2780.0,0.00656376950238835
2779.0,0.006519680930003435
2778.0,0.006475596832934416
2777.0,0.006431517210272464
2776.0,0.006475596832934416
2775.0,0.006519680930003435
2774.0,0.00656376950238835
2773.0,0.006607862550997545
2772.0,0.006651960076740071
2771.0,0.006651960076740071
2770.0,0.006651960076740071
2769.0,0.006651960076740071
2768.0,0.006607862550997545
2767.0,0.00656376950238835
2766.0,0.006475596832934416
2765.0,0.006431517210272464
2764.0,0.006431517210272464
2763.0,0.006431517210272464
2762.0,0.006431517210272464
2761.0,0.006387442061109638
2760.0,0.006387442061109638
2759.0,0.006387442061109638
2758.0,0.006431517210272464
2757.0,0.006475596832934416
2756.0,0.006519680930003435
2755.0,0.006475596832934416
2754.0,0.006387442061109638
2753.0,0.006343371384537999
2752.0,0.006299305179649828
2751.0,0.006299305179649828
2750.0,0.006299305179649828
2749.0,0.00625524344553785
2748.0,0.00621118618129457
2747.0,0.006167133386013823
2746.0,0.006167133386013823
2745.0,0.00621118618129457
2744.0,0.00625524344553785
2743.0,0.006299305179649828
2742.0,0.00625524344553785
2741.0,0.00621118618129457
2740.0,0.00621118618129457
2739.0,0.00621118618129457
2738.0,0.00621118618129457
2737.0,0.006167133386013823
2736.0,0.006167133386013823
2735.0,0.006167133386013823
2734.0,0.006167133386013823
2733.0,0.00612308505878878
2732.0,0.00612308505878878
2731.0,0.00612308505878878
2730.0,0.006167133386013823
2729.0,0.006167133386013823
2728.0,0.00612308505878878
2727.0,0.006079041198713275
2726.0,0.005990966876386672
2725.0,0.00590291041179003
2724.0,0.005814871797682919
2723.0,0.00577085918230158
2722.0,0.00577085918230158
2721.0,0.00577085918230158
2720.0,0.005814871797682919
2719.0,0.005814871797682919
2718.0,0.00577085918230158
2717.0,0.005726851026829571
2716.0,0.005682847330363394
2715.0,0.005638848091999105
2714.0,0.005638848091999105
2713.0,0.005682847330363394
2712.0,0.005682847330363394
2711.0,0.005726851026829571
2710.0,0.005726851026829571
2709.0,0.005682847330363394
2708.0,0.005682847330363394
2707.0,0.005682847330363394
2706.0,0.005638848091999105
2705.0,0.005594853310833647
2704.0,0.005550862985963967
2703.0,0.005550862985963967
2702.0,0.005550862985963967
2701.0,0.005550862985963967
2700.0,0.005506877116487674
2699.0,0.005462895701502157
2698.0,0.005462895701502157
2697.0,0.005462895701502157
2696.0,0.005462895701502157
2695.0,0.005506877116487674
2694.0,0.005550862985963967
2693.0,0.005550862985963967
2692.0,0.005506877116487674
2691.0,0.005462895701502157
2690.0,0.00541891874010525
2689.0,0.00541891874010525
2688.0,0.00541891874010525
2687.0,0.005462895701502157
2686.0,0.005462895701502157
2685.0,0.005462895701502157
2684.0,0.005462895701502157
2683.0,0.00541891874010525
2682.0,0.00537494623139545
2681.0,0.00537494623139545
2680.0,0.00537494623139545
2679.0,0.00537494623139545
2678.0,0.00537494623139545
2677.0,0.005330978174470591
2676.0,0.005330978174470591
2675.0,0.0052870145684298375
2674.0,0.005243055412371911
2673.0,0.005199100705396198
2672.0,0.005155150446602086
2671.0,0.005155150446602086
2670.0,0.005199100705396198
2669.0,0.005199100705396198
2668.0,0.005199100705396198
2667.0,0.005199100705396198
2666.0,0.005155150446602086
2665.0,0.005111204635089406
2664.0,0.005067263269958211
2663.0,0.005023326350308999
2662.0,0.004935465843858511
2661.0,0.00489154225525934
2660.0,0.00489154225525934
2659.0,0.004979393875242044
2658.0,0.005023326350308999
2657.0,0.005111204635089406
2656.0,0.005111204635089406
2655.0,0.005111204635089406
2654.0,0.005023326350308999
2653.0,0.004935465843858511
2652.0,0.00489154225525934
2651.0,0.00489154225525934
2650.0,0.004935465843858511
2649.0,0.004935465843858511
2648.0,0.004979393875242044
2647.0,0.004979393875242044
2646.0,0.004979393875242044
2645.0,0.005023326350308999
2644.0,0.005111204635089406
2643.0,0.005155150446602086
2642.0,0.005155150446602086
2641.0,0.005155150446602086
2640.0,0.005111204635089406
2639.0,0.005067263269958211
2638.0,0.005023326350308999
2637.0,0.004979393875242044
2636.0,0.004979393875242044
2635.0,0.005067263269958211
2634.0,0.005111204635089406
2633.0,0.005155150446602086
2632.0,0.005155150446602086
2631.0,0.005155150446602086
2630.0,0.005111204635089406
2629.0,0.005155150446602086
2628.0,0.005199100705396198
2627.0,0.005199100705396198
2626.0,0.005199100705396198
2625.0,0.005155150446602086
2624.0,0.005067263269958211
2623.0,0.005023326350308999
2622.0,0.005023326350308999
2621.0,0.005023326350308999
2620.0,0.005067263269958211
2619.0,0.005067263269958211
2618.0,0.005067263269958211
2617.0,0.005067263269958211
2616.0,0.005067263269958211
2615.0,0.005067263269958211
2614.0,0.005023326350308999
2613.0,0.004979393875242044
2612.0,0.004935465843858511
2611.0,0.004935465843858511
2610.0,0.004979393875242044
2609.0,0.004979393875242044
2608.0,0.004979393875242044
2607.0,0.004979393875242044
2606.0,0.004935465843858511
2605.0,0.004935465843858511
2604.0,0.004935465843858511
2603.0,0.004979393875242044
2602.0,0.004935465843858511
2601.0,0.004935465843858511
2600.0,0.004935465843858511
2599.0,0.004935465843858511
2598.0,0.004935465843858511
2597.0,0.004979393875242044
2596.0,0.004979393875242044
2595.0,0.004935465843858511
2594.0,0.00489154225525934
2593.0,0.00489154225525934
2592.0,0.004979393875242044
2591.0,0.005067263269958211
2590.0,0.005155150446602086
2589.0,0.005155150446602086
2588.0,0.005111204635089406
2587.0,0.005111204635089406
2586.0,0.005111204635089406
2585.0,0.005155150446602086
2584.0,0.005199100705396198
2583.0,0.005199100705396198
2582.0,0.005199100705396198
2581.0,0.005243055412371911
2580.0,0.0052870145684298375
2579.0,0.0052870145684298375
2578.0,0.0052870145684298375
2577.0,0.005199100705396198
2576.0,0.005155150446602086
2575.0,0.005155150446602086
2574.0,0.005155150446602086
2573.0,0.005155150446602086
2572.0,0.005155150446602086
2571.0,0.005199100705396198
2570.0,0.005199100705396198
2569.0,0.005243055412371911
2568.0,0.0052870145684298375
2567.0,0.0052870145684298375
2566.0,0.005243055412371911
2565.0,0.005199100705396198
2564.0,0.005155150446602086
2563.0,0.005155150446602086
2562.0,0.005155150446602086
2561.0,0.005155150446602086
2560.0,0.005111204635089406
2559.0,0.005023326350308999
2558.0,0.004979393875242044
2557.0,0.004935465843858511
2556.0,0.004979393875242044
2555.0,0.005023326350308999
2554.0,0.005067263269958211
2553.0,0.005067263269958211
2552.0,0.005067263269958211
2551.0,0.005067263269958211
2550.0,0.005067263269958211
2549.0,0.005067263269958211
2548.0,0.005023326350308999
2547.0,0.005023326350308999
2546.0,0.005023326350308999
2545.0,0.005067263269958211
2544.0,0.005067263269958211
2543.0,0.005067263269958211
2542.0,0.005067263269958211
2541.0,0.005155150446602086
2540.0,0.005199100705396198
2539.0,0.005111204635089406
2538.0,0.005023326350308999
2537.0,0.00489154225525934
2536.0,0.004803708402820517
2535.0,0.004803708402820517
2534.0,0.00484762310854614
2533.0,0.004935465843858511
2532.0,0.005023326350308999
2531.0,0.005067263269958211
2530.0,0.005067263269958211
2529.0,0.004979393875242044
2528.0,0.004935465843858511
2527.0,0.00489154225525934
2526.0,0.00484762310854614
2525.0,0.00489154225525934
2524.0,0.004935465843858511
2523.0,0.00489154225525934
2522.0,0.00484762310854614
2521.0,0.004803708402820517
2520.0,0.004715892310740433
2519.0,0.004671990922590297
2518.0,0.004671990922590297
2517.0,0.004671990922590297
2516.0,0.004715892310740433
2515.0,0.004715892310740433
2514.0,0.004715892310740433
2513.0,0.004671990922590297
2512.0,0.004628093971837721
2511.0,0.004628093971837721
2510.0,0.004628093971837721
2509.0,0.004628093971837721
2508.0,0.00458420145758498
2507.0,0.004540313378935901
2506.0,0.0044964297349936455
2505.0,0.004452550524862486
2504.0,0.004452550524862486
2503.0,0.004452550524862486
2502.0,0.004408675747646695
2501.0,0.0043648054024501
2500.0,0.004277078004534696
2499.0,0.004277078004534696
2498.0,0.004277078004534696
2497.0,0.004277078004534696
2496.0,0.004277078004534696
2495.0,0.004277078004534696
2494.0,0.004233220950025984
2493.0,0.004189368323957332
2492.0,0.004189368323957332
2491.0,0.004233220950025984
2490.0,0.004233220950025984
2489.0,0.004189368323957332
2488.0,0.004145520125434121
2487.0,0.004101676353562844
2486.0,0.0040578370074493275
2485.0,0.00401400208620073
2484.0,0.003970171588923321
2483.0,0.003926345514724705
2482.0,0.003926345514724705
2481.0,0.003926345514724705
2480.0,0.0038825238627120395
2479.0,0.0038825238627120395
2478.0,0.0038825238627120395
2477.0,0.003926345514724705
2476.0,0.003926345514724705
2475.0,0.0038825238627120395
2474.0,0.0038825238627120395
2473.0,0.0038387066319929275
2472.0,0.0038387066319929275
2471.0,0.0038825238627120395
2470.0,0.0038825238627120395
2469.0,0.0038825238627120395
2468.0,0.0038387066319929275
2467.0,0.003794893821675638
2466.0,0.003794893821675638
2465.0,0.0037510854308679953
2464.0,0.0037510854308679953
2463.0,0.0037510854308679953
2462.0,0.0037510854308679953
2461.0,0.003707281458678491
2460.0,0.003707281458678491
2459.0,0.003707281458678491
2458.0,0.003707281458678491
2457.0,0.0036634819042162814
2456.0,0.0035758960449088217
2455.0,0.0035758960449088217
2454.0,0.0035321097382827737
2453.0,0.0035321097382827737
2452.0,0.0035321097382827737
2451.0,0.0035321097382827737
2450.0,0.0035758960449088217
2449.0,0.0035758960449088217
2448.0,0.0035758960449088217
2447.0,0.0035758960449088217
2446.0,0.0035758960449088217
2445.0,0.0035321097382827737
2444.0,0.0035321097382827737
2443.0,0.003488327845821315
2442.0,0.003488327845821315
2441.0,0.003488327845821315
2440.0,0.0035321097382827737
2439.0,0.0035321097382827737
2438.0,0.003488327845821315
2437.0,0.003488327845821315
2436.0,0.003488327845821315
2435.0,0.003488327845821315
2434.0,0.003488327845821315
2433.0,0.003488327845821315
2432.0,0.003488327845821315
2431.0,0.0035321097382827737
2430.0,0.0035758960449088217
2429.0,0.003619686766589858
2428.0,0.0036634819042162814
2427.0,0.0036634819042162814
2426.0,0.0036634819042162814
2425.0,0.003707281458678491
2424.0,0.003707281458678491
2423.0,0.0037510854308679953
2422.0,0.003794893821675638
2421.0,0.003794893821675638
2420.0,0.003794893821675638
2419.0,0.0037510854308679953
2418.0,0.0037510854308679953
2417.0,0.0037510854308679953
2416.0,0.003794893821675638
2415.0,0.003794893821675638
2414.0,0.003794893821675638
2413.0,0.003794893821675638
2412.0,0.0038387066319929275
2411.0,0.0038387066319929275
2410.0,0.0038387066319929275
2409.0,0.003794893821675638
2408.0,0.0038387066319929275
2407.0,0.0038387066319929275
2406.0,0.0038387066319929275
2405.0,0.003794893821675638
2404.0,0.0037510854308679953
2403.0,0.003707281458678491
2402.0,0.003707281458678491
2401.0,0.0037510854308679953
2400.0,0.003794893821675638
2399.0,0.0038387066319929275
2398.0,0.0038825238627120395
2397.0,0.0038825238627120395
2396.0,0.0038387066319929275
2395.0,0.0038825238627120395
2394.0,0.0038825238627120395
2393.0,0.003926345514724705
2392.0,0.003926345514724705
2391.0,0.003926345514724705
2390.0,0.0038825238627120395
2389.0,0.0038387066319929275
2388.0,0.0037510854308679953
2387.0,0.0036634819042162814
2386.0,0.003488327845821315
2385.0,0.0032694845648473247
2384.0,0.0030070181092942683
2383.0,0.0028321285541661467
2382.0,0.002701007590486082
2381.0,0.002569926202528716
2380.0,0.002395212539545666
2379.0,0.0021332737608552588
2378.0,0.0018714928717336043
2377.0,0.0017406615763013722
2376.0,0.0016534626036355249
2375.0,0.001609869681952425
2374.0,0.0014355417390583547
2373.0,0.001348404001626502
2372.0,0.0013919706849057079
2371.0,0.0015662811355310335
2370.0,0.0015226969634936083
2369.0,0.0011741809597138886
2368.0,0.0006954276616513155
2367.0,0.00030411258916074324
2366.0,-0.00017368305846510168
2365.0,-0.0006075870628903246
2364.0,-0.0006075870628903246
2363.0,-0.00013026880522692963
2362.0,0.00043451177401765406
2361.0,0.0006084382809090627
2360.0,0.00043451177401765406
2359.0,0.00026065489343207737
2358.0,0.00021720154586435392
2357.0,0.00043451177401765406
2356.0,0.0008259444115150671
2355.0,0.0010870956412141197
2354.0,0.0011306361176557367
2353.0,0.0009129773741116676
2352.0,0.000521466320689834
2351.0,0.0001303078917322953
2350.0,-0.00030389978481260016
2349.0,-0.0007376737740329986
2348.0,-0.0011710149414008164
2347.0,-0.0016039241497978196
2346.0,-0.0019931738235303698
2345.0,-0.0023820749327607693
2344.0,-0.0025548081484823015
2343.0,-0.0022524799205383417
2342.0,-0.0013875234866409514
2341.0,-0.0003906892499099257
2340.0,0.0001303078917322953
2339.0,4.343161980746579e-05
2338.0,-0.0005642161653756084
2337.0,-0.0011277002770349043
2336.0,-0.001344230411601366
2335.0,-0.001041057986093552
2334.0,-0.0003906892499099257
2333.0,0.00026065489343207737
2332.0,0.0006954276616513155
2331.0,0.0007824344698965646
2330.0,0.0006519307932786322
2329.0,0.0004779868710962365
2328.0,0.0003910410285830057
2327.0,0.0004779868710962365
2326.0,0.0007389288868995258
2325.0,0.0010870956412141197
2324.0,0.001348404001626502
2323.0,0.0015662811355310335
2322.0,0.001609869681952425
2321.0,0.0015662811355310335
2320.0,0.0015662811355310335
2319.0,0.001609869681952425
2318.0,0.0017842676290416026
2317.0,0.001915112063444413
2316.0,0.0020023635919956817
2315.0,0.0020023635919956817
2314.0,0.001915112063444413
2313.0,0.0017842676290416026
2312.0,0.001609869681952425
2311.0,0.0014355417390583547
2310.0,0.0012612837441823288
2309.0,0.0012177301682640973
2308.0,0.0012612837441823288
2307.0,0.0013919706849057079
2306.0,0.0015226969634936083
2305.0,0.0015662811355310335
2304.0,0.0015662811355310335
2303.0,0.0014791171649619628
2302.0,0.0014791171649619628
2301.0,0.0015226969634936083
2300.0,0.0015662811355310335
2299.0,0.0016970599014589638
2298.0,0.0017842676290416026
2297.0,0.001915112063444413
2296.0,0.0020023635919956817
2295.0,0.0020459959305969555
2294.0,0.0021769192542746563
2293.0,0.0022642234021015284
2292.0,0.002351545103793873
2291.0,0.0024388843664115978
2290.0,0.0025262411970197185
2289.0,0.002613615602686581
2288.0,0.0027447101798967477
2287.0,0.0028758443407954637
2286.0,0.0029632891174733444
2285.0,0.0029632891174733444
2284.0,0.0029195645282691363
2283.0,0.0028758443407954637
2282.0,0.0027884171674950053
2281.0,0.002701007590486082
2280.0,0.002613615602686581
2279.0,0.002569926202528716
2278.0,0.002482560585275184
2277.0,0.0024388843664115978
2276.0,0.002395212539545666
2275.0,0.0024388843664115978
2274.0,0.0024388843664115978
2273.0,0.0024388843664115978
2272.0,0.002395212539545666
2271.0,0.0023078820582733695
2270.0,0.0022642234021015284
2269.0,0.0022205691343961664
2268.0,0.0022642234021015284
2267.0,0.0023078820582733695
2266.0,0.002351545103793873
2265.0,0.002351545103793873
2264.0,0.002395212539545666
2263.0,0.002395212539545666
2262.0,0.002395212539545666
2261.0,0.002395212539545666
2260.0,0.002395212539545666
2259.0,0.002395212539545666
2258.0,0.002395212539545666
2257.0,0.0024388843664115978
2256.0,0.002482560585275184
2255.0,0.002569926202528716
2254.0,0.002569926202528716
2253.0,0.002613615602686581
2252.0,0.002613615602686581
2251.0,0.002613615602686581
2250.0,0.0025262411970197185
2249.0,0.0024388843664115978
2248.0,0.002351545103793873
2247.0,0.002351545103793873
2246.0,0.0023078820582733695
2245.0,0.002351545103793873
2244.0,0.002351545103793873
2243.0,0.002351545103793873
2242.0,0.002395212539545666
2241.0,0.002482560585275184
2240.0,0.0025262411970197185
2239.0,0.002482560585275184
2238.0,0.0024388843664115978
2237.0,0.002395212539545666
2236.0,0.002395212539545666
2235.0,0.002395212539545666
2234.0,0.002395212539545666
2233.0,0.0023078820582733695
2232.0,0.0022205691343961664
2231.0,0.0021769192542746563
2230.0,0.0021332737608552588
2229.0,0.0021332737608552588
2228.0,0.0021332737608552588
2227.0,0.002089632653256679
2226.0,0.002089632653256679
2225.0,0.0020459959305969555
2224.0,0.002089632653256679
2223.0,0.0021332737608552588
2222.0,0.0021332737608552588
2221.0,0.002089632653256679
2220.0,0.0020023635919956817
2219.0,0.001915112063444413
2218.0,0.0018714928717336043
2217.0,0.0018278780605593958
2216.0,0.0018278780605593958
2215.0,0.0017842676290416026
2214.0,0.0017842676290416026
2213.0,0.0017842676290416026
2212.0,0.0017406615763013722
2211.0,0.0017406615763013722
2210.0,0.0017406615763013722
2209.0,0.0017406615763013722
2208.0,0.0016970599014589638
2207.0,0.0016534626036355249
2206.0,0.001609869681952425
2205.0,0.0015662811355310335
2204.0,0.0015226969634936083
2203.0,0.0015226969634936083
2202.0,0.0015226969634936083
2201.0,0.0015662811355310335
2200.0,0.0015662811355310335
2199.0,0.0015662811355310335
2198.0,0.001609869681952425
2197.0,0.001609869681952425
2196.0,0.001609869681952425
2195.0,0.0015662811355310335
2194.0,0.0015226969634936083
2193.0,0.0014355417390583547
2192.0,0.001348404001626502
2191.0,0.001304841688344327
2190.0,0.0012612837441823288
2189.0,0.0012177301682640973
2188.0,0.0011741809597138886
2187.0,0.0012177301682640973
2186.0,0.0012177301682640973
2185.0,0.0012177301682640973
2184.0,0.0012177301682640973
2183.0,0.0012177301682640973
2182.0,0.0012612837441823288
2181.0,0.0012612837441823288
2180.0,0.001304841688344327
2179.0,0.001348404001626502
2178.0,0.0013919706849057079
2177.0,0.001348404001626502
2176.0,0.001304841688344327
2175.0,0.001304841688344327
2174.0,0.001304841688344327
2173.0,0.0012612837441823288
2172.0,0.0012612837441823288
2171.0,0.0012612837441823288
2170.0,0.0012612837441823288
2169.0,0.0012612837441823288
2168.0,0.0012177301682640973
2167.0,0.0012177301682640973
2166.0,0.0012177301682640973
2165.0,0.0012612837441823288
2164.0,0.001304841688344327
2163.0,0.001348404001626502
2162.0,0.001348404001626502
2161.0,0.0013919706849057079
2160.0,0.0013919706849057079
2159.0,0.0014355417390583547
2158.0,0.0014355417390583547
2157.0,0.0014791171649619628
2156.0,0.0015226969634936083
2155.0,0.0015662811355310335
2154.0,0.0015662811355310335
2153.0,0.0015662811355310335
2152.0,0.0015226969634936083
2151.0,0.0014791171649619628
2150.0,0.0014791171649619628
2149.0,0.0015226969634936083
2148.0,0.0015662811355310335
2147.0,0.0015662811355310335
2146.0,0.0015226969634936083
2145.0,0.0014355417390583547
2144.0,0.0013919706849057079
2143.0,0.0013919706849057079
2142.0,0.0014355417390583547
2141.0,0.0014791171649619628
2140.0,0.0014791171649619628
2139.0,0.0015226969634936083
2138.0,0.0015226969634936083
2137.0,0.0015226969634936083
2136.0,0.0015226969634936083
2135.0,0.0015226969634936083
2134.0,0.0015226969634936083
2133.0,0.0015662811355310335
2132.0,0.001609869681952425
2131.0,0.0016534626036355249
2130.0,0.001609869681952425
2129.0,0.0015662811355310335
2128.0,0.0015226969634936083
2127.0,0.0015226969634936083
2126.0,0.0015226969634936083
2125.0,0.0015662811355310335
2124.0,0.001609869681952425
2123.0,0.0016534626036355249
2122.0,0.0016970599014589638
2121.0,0.0016970599014589638
2120.0,0.0016970599014589638
2119.0,0.0016534626036355249
2118.0,0.001609869681952425
2117.0,0.001609869681952425
2116.0,0.001609869681952425
2115.0,0.0016534626036355249
2114.0,0.0017406615763013722
2113.0,0.0017842676290416026
2112.0,0.0018278780605593958
2111.0,0.0018278780605593958
2110.0,0.0017842676290416026
2109.0,0.0017842676290416026
2108.0,0.0017842676290416026
2107.0,0.0017842676290416026
2106.0,0.0018278780605593958
2105.0,0.0018278780605593958
2104.0,0.0018278780605593958
2103.0,0.0017842676290416026
2102.0,0.0017406615763013722
2101.0,0.0016970599014589638
2100.0,0.0016534626036355249
2099.0,0.0016534626036355249
2098.0,0.001609869681952425
2097.0,0.0015662811355310335
2096.0,0.0015662811355310335
2095.0,0.0015662811355310335
2094.0,0.0015662811355310335
2093.0,0.0015662811355310335
2092.0,0.0015662811355310335
2091.0,0.0015226969634936083
2090.0,0.0015226969634936083
2089.0,0.0014791171649619628
2088.0,0.0013919706849057079
2087.0,0.001304841688344327
2086.0,0.0012612837441823288
2085.0,0.0011741809597138886
2084.0,0.0011741809597138886
2083.0,0.0011741809597138886
2082.0,0.0011741809597138886
2081.0,0.0011741809597138886
2080.0,0.0012177301682640973
2079.0,0.0012177301682640973
2078.0,0.0011306361176557367
2077.0,0.0010435595295137379
2076.0,0.0009129773741116676
2075.0,0.0008259444115150671
2074.0,0.0007824344698965646
2073.0,0.0007389288868995258
2072.0,0.0007389288868995258
2071.0,0.0006954276616513155
2070.0,0.0006519307932786322
2069.0,0.0005649501236701937
2068.0,0.0004779868710962365
2067.0,0.00043451177401765406
2066.0,0.0003475746339209884
2065.0,0.00026065489343207737
2064.0,0.00021720154586435392
2063.0,0.00026065489343207737
2062.0,0.00026065489343207737
2061.0,0.00026065489343207737
2060.0,0.00017375254558760211
2059.0,8.686758342868472e-05
2058.0,0.0
2057.0,-4.3427276862573194e-05
2056.0,-4.3427276862573194e-05
2055.0,-8.685021164911433e-05
2054.0,-0.00013026880522692963
2053.0,-0.00021709297223004853
2052.0,-0.0002604985473904087
2051.0,-0.00030389978481260016
2050.0,-0.00030389978481260016
2049.0,-0.0003906892499099257
2048.0,-0.00043407747931878404
2047.0,-0.0004774613744551459
2046.0,-0.0005208409361854294
2045.0,-0.0005208409361854294
2044.0,-0.0005208409361854294
2043.0,-0.0005208409361854294
2042.0,-0.0005208409361854294
2041.0,-0.0005642161653756084
2040.0,-0.0006075870628903246
2039.0,-0.0006075870628903246
2038.0,-0.0006075870628903246
2037.0,-0.0006509536295951079
2036.0,-0.0006509536295951079
2035.0,-0.0006509536295951079
2034.0,-0.0006509536295951079
2033.0,-0.0006509536295951079
2032.0,-0.0006509536295951079
2031.0,-0.0006075870628903246
2030.0,-0.0006509536295951079
2029.0,-0.0006943158663546001
2028.0,-0.0007810273534953893
2027.0,-0.0008677215312267172
2026.0,-0.0008677215312267172
2025.0,-0.0009110621312231615
2024.0,-0.0009543984064577238
2023.0,-0.0009977303577937136
2022.0,-0.001041057986093552
2021.0,-0.001041057986093552
2020.0,-0.0009977303577937136
2019.0,-0.0009977303577937136
2018.0,-0.0009977303577937136
2017.0,-0.001041057986093552
2016.0,-0.001041057986093552
2015.0,-0.0009977303577937136
2014.0,-0.0009543984064577238
2013.0,-0.0009110621312231615
2012.0,-0.0008677215312267172
2011.0,-0.0008243766056055257
2010.0,-0.0007810273534953893
2009.0,-0.0008243766056055257
2008.0,-0.0008243766056055257
2007.0,-0.0008243766056055257
2006.0,-0.0008243766056055257
2005.0,-0.0008243766056055257
2004.0,-0.0007810273534953893
2003.0,-0.0007810273534953893
2002.0,-0.0007376737740329986
2001.0,-0.0007376737740329986
2000.0,-0.0006943158663546001
1999.0,-0.0006509536295951079
1998.0,-0.0005642161653756084
1997.0,-0.0005208409361854294
1996.0,-0.0004774613744551459
1995.0,-0.0005208409361854294
1994.0,-0.0005642161653756084
1993.0,-0.0006509536295951079
1992.0,-0.0006943158663546001
1991.0,-0.0006943158663546001
1990.0,-0.0006509536295951079
1989.0,-0.0005642161653756084
1988.0,-0.0004774613744551459
1987.0,-0.0003472966853634851
1986.0,-0.0002604985473904087
1985.0,-0.00021709297223004853
1984.0,-0.00017368305846510168
1983.0,-0.00013026880522692963
1982.0,-0.00013026880522692963
1981.0,-8.685021164911433e-05
1980.0,-8.685021164911433e-05
1979.0,-4.3427276862573194e-05
1978.0,-4.3427276862573194e-05
1977.0,0.0
1976.0,8.686758342868472e-05
1975.0,0.00017375254558760211
1974.0,0.00026065489343207737
1973.0,0.00030411258916074324
1972.0,0.0003910410285830057
1971.0,0.0004779868710962365
1970.0,0.0005649501236701937
1969.0,0.0006084382809090627
1968.0,0.0006519307932786322
1967.0,0.0006954276616513155
1966.0,0.0007824344698965646
1965.0,0.0009129773741116676
1964.0,0.0010870956412141197
1963.0,0.0012612837441823288
1962.0,0.0013919706849057079
1961.0,0.0014791171649619628
1960.0,0.0015662811355310335
1959.0,0.0016970599014589638
1958.0,0.0017406615763013722
1957.0,0.0017842676290416026
1956.0,0.0017842676290416026
1955.0,0.0017842676290416026
1954.0,0.0017842676290416026
1953.0,0.0017842676290416026
1952.0,0.0017842676290416026
1951.0,0.0017842676290416026
1950.0,0.0017406615763013722
1949.0,0.001609869681952425
1948.0,0.0014791171649619628
1947.0,0.001304841688344327
1946.0,0.0011306361176557367
1945.0,0.0010000277816797354
1944.0,0.0008259444115150671
1943.0,0.0006519307932786322
1942.0,0.0003910410285830057
1941.0,0.00017375254558760211
1940.0,4.343161980746579e-05
1939.0,0.0
1938.0,-0.00013026880522692963
1937.0,-0.0002604985473904087
1936.0,-0.00043407747931878404
1935.0,-0.0005642161653756084
1934.0,-0.0006943158663546001
1933.0,-0.0008243766056055257
1932.0,-0.0009543984064577238
1931.0,-0.001041057986093552
1930.0,-0.0011710149414008164
1929.0,-0.001344230411601366
1928.0,-0.0015173768235041685
1927.0,-0.0016471913460383014
1926.0,-0.001776967077439462
1925.0,-0.0019067040408846658
1924.0,-0.0020796263931210923
1923.0,-0.002338880892056583
1922.0,-0.0025548081484823015
1921.0,-0.0026411490000399773
1920.0,-0.002597980719908577
1919.0,-0.0025116312849080558
1918.0,-0.0025548081484823015
1917.0,-0.002684312989729598
1916.0,-0.0027706281011936618
1915.0,-0.0027706281011936618
1914.0,-0.0027274726898296464
1913.0,-0.0028137792246734072
1912.0,-0.002900068611387585
1911.0,-0.003029470553618019
1910.0,-0.003158833950862139
1909.0,-0.0032881588260753603
1908.0,-0.0033312585613267665
1907.0,-0.0033312585613267665
1906.0,-0.0032881588260753603
1905.0,-0.0033312585613267665
1904.0,-0.0033743540197499478
1903.0,-0.0034605321095062536
1902.0,-0.003546693102131737
1901.0,-0.0035897671891400584
1900.0,-0.003632837004408529
1899.0,-0.003675902548784027
1898.0,-0.003762020828246282
1897.0,-0.0038481220342978517
1896.0,-0.0039772418455368275
1895.0,-0.004063300397667113
1894.0,-0.004149341900058889
1893.0,-0.004149341900058889
1892.0,-0.004149341900058889
1891.0,-0.004106323279658319
1890.0,-0.004192356259714369
1889.0,-0.004364371107751008
1888.0,-0.004493337547274212
1887.0,-0.004536317851322913
1886.0,-0.004536317851322913
1885.0,-0.004536317851322913
1884.0,-0.004536317851322913
1883.0,-0.004536317851322913
1882.0,-0.004536317851322913
1881.0,-0.004622265700782613
1880.0,-0.004665233247877154
1879.0,-0.004708196544336296
1878.0,-0.004708196544336296
1877.0,-0.004665233247877154
1876.0,-0.004665233247877154
1875.0,-0.004622265700782613
1874.0,-0.004665233247877154
1873.0,-0.004708196544336296
1872.0,-0.004794110388711914
1871.0,-0.00488000724063431
1870.0,-0.004965887106823441
1869.0,-0.005180512503780488
1868.0,-0.005395031886706203
1867.0,-0.0054379230508221355
1866.0,-0.005352136486216796
1865.0,-0.005180512503780488
1864.0,-0.005094675072548682
1863.0,-0.005051749993995713
1862.0,-0.005008820672367076
1861.0,-0.004965887106823441
1860.0,-0.004922949296525481
1859.0,-0.004837060938309712
1858.0,-0.004794110388711914
1857.0,-0.004751155591001144
1856.0,-0.004665233247877154
1855.0,-0.0045792939022115675
1854.0,-0.004493337547274212
1853.0,-0.00445035298922436
1852.0,-0.004407364176330919
1851.0,-0.004364371107751008
1850.0,-0.004364371107751008
1849.0,-0.004407364176330919
1848.0,-0.00445035298922436
1847.0,-0.004364371107751008
1846.0,-0.004192356259714369
1845.0,-0.004106323279658319
1844.0,-0.004192356259714369
1843.0,-0.0042783722001624724
1842.0,-0.004192356259714369
1841.0,-0.003891166236910326
1840.0,-0.003632837004408529
1839.0,-0.0034605321095062536
1838.0,-0.0034174452021935586
1837.0,-0.0034174452021935586
1836.0,-0.0033743540197499478
1835.0,-0.0032881588260753603
1834.0,-0.003158833950862139
1833.0,-0.0029863408567849525
1832.0,-0.0028137792246734072
1831.0,-0.002684312989729598
1830.0,-0.0026411490000399773
1829.0,-0.0027274726898296464
1828.0,-0.0027274726898296464
1827.0,-0.0026411490000399773
1826.0,-0.0025548081484823015
1825.0,-0.002597980719908577
1824.0,-0.0026411490000399773
1823.0,-0.0025548081484823015
1822.0,-0.0023820749327607693
1821.0,-0.0022956825549340643
1820.0,-0.0022092729880145434
1819.0,-0.0021660617565077978
1818.0,-0.0022092729880145434
1817.0,-0.0022092729880145434
1816.0,-0.0022092729880145434
1815.0,-0.0021660617565077978
1814.0,-0.0022092729880145434
1813.0,-0.002338880892056583
1812.0,-0.0025116312849080558
1811.0,-0.002597980719908577
1810.0,-0.0026411490000399773
1809.0,-0.0026411490000399773
1808.0,-0.0026411490000399773
1807.0,-0.002597980719908577
1806.0,-0.0025116312849080558
1805.0,-0.0025548081484823015
1804.0,-0.0026411490000399773
1803.0,-0.002684312989729598
1802.0,-0.0028137792246734072
1801.0,-0.0029432068763250996
1800.0,-0.0029863408567849525
1799.0,-0.002900068611387585
1798.0,-0.002856926061120646
1797.0,-0.0029432068763250996
1796.0,-0.003029470553618019
1795.0,-0.0029863408567849525
1794.0,-0.002900068611387585
1793.0,-0.003029470553618019
1792.0,-0.003201946521692367
1791.0,-0.0032450548131470747
1790.0,-0.003115717099805959
1789.0,-0.002856926061120646
1788.0,-0.002597980719908577
1787.0,-0.0024252646779014952
1786.0,-0.002338880892056583
1785.0,-0.0024684501283323
1784.0,-0.002597980719908577
1783.0,-0.0025116312849080558
1782.0,-0.0023820749327607693
1781.0,-0.0023820749327607693
1780.0,-0.0024252646779014952
1779.0,-0.0023820749327607693
1778.0,-0.0022092729880145434
1777.0,-0.0020796263931210923
1776.0,-0.0019499410842680476
1775.0,-0.001733712809000476
1774.0,-0.0015606526425728795
1773.0,-0.0015606526425728795
1772.0,-0.0016039241497978196
1771.0,-0.0014308122463981832
1770.0,-0.0011277002770349043
1769.0,-0.0008677215312267172
1768.0,-0.0006509536295951079
1767.0,-0.00030389978481260016
1766.0,0.0001303078917322953
1765.0,0.0006084382809090627
1764.0,0.0011306361176557367
1763.0,0.0016970599014589638
1762.0,0.0021769192542746563
1761.0,0.002482560585275184
1760.0,0.0029195645282691363
1759.0,0.003707281458678491
1758.0,0.004715892310740433
1757.0,0.005682847330363394
1756.0,0.006651960076740071
1755.0,0.007755855953228474
1754.0,0.008951223547323472
1753.0,0.010149890396819572
1752.0,0.011708658092512314
1751.0,0.014124642691606404
1750.0,0.017367005605150476
1749.0,0.0211806132671577
1748.0,0.02558042614771394
1747.0,0.030490901403433135
1746.0,0.035646070707806565
1745.0,0.04129280891271536
1744.0,0.047934409814949674
1743.0,0.055270639696704205
1742.0,0.06298389253518577
1741.0,0.07175781684269089
1740.0,0.08244197917456386
1739.0,0.09312646527792956
1738.0,0.10083635852278117
1737.0,0.10573933555301185
1736.0,0.11142740314240007
1735.0,0.1236666709136196
1734.0,0.14284849731250704
1733.0,0.1583902878315646
1732.0,0.16819419132560887
1731.0,0.17802818235795725
1730.0,0.1902383348928749
1729.0,0.2033562962148836
1728.0,0.21545402594547736
1727.0,0.22657927670938993
1726.0,0.23807216157947098
1725.0,0.2511145599904834
1724.0,0.26600071346161314
1723.0,0.2808345059107866
1722.0,0.29242982390206373
1721.0,0.29955589897224844
1720.0,0.3051316720175439
1719.0,0.3166827380781174
1718.0,0.3397038397292702
1717.0,0.3643152374527774
1716.0,0.3773715738706751
1715.0,0.38142897187987024
1714.0,0.37986394502624243
1713.0,0.3719177390093207
1712.0,0.3581294545236873
1711.0,0.34132097141755136
1710.0,0.3236722661186797
1709.0,0.3051316720175439
1708.0,0.2855864077128789
1707.0,0.2654401784205238
1706.0,0.2461106685401666
1705.0,0.22892721677880523
1704.0,0.21381665443236653
1703.0,0.20003947259401644
1702.0,0.18635230465310326
1701.0,0.17295398299526576
1700.0,0.16127680996862814
1699.0,0.15168769637271562
1698.0,0.14351278713136928
1697.0,0.1360826230421397
1696.0,0.12924505510985984
1695.0,0.12320502379929943
1694.0,0.11821604440661537
1693.0,0.11390426756225258
1692.0,0.10974669484546551
1691.0,0.10551778498990938
1690.0,0.10165883427249067
1689.0,0.09848719087006019
1688.0,0.0955549589230904
1687.0,0.09215885741705532
1686.0,0.08857603462370545
1685.0,0.08655704514060414
1684.0,0.086239113587677
1683.0,0.08512818245994969
1682.0,0.0830725338870073
1681.0,0.08086958613938555
1680.0,0.07857365898473456
1679.0,0.07618627890881036
1678.0,0.07386342893255127
1677.0,0.0718090519612431
1676.0,0.07007043991541217
1675.0,0.0684912781333824
1674.0,0.06661395809694559
1673.0,0.06449273417528723
1672.0,0.06258241852286206
1671.0,0.06093025007657582
1670.0,0.05978244440026481
1669.0,0.05858795962645047
1668.0,0.057049929922901255
1667.0,0.055172003656783764
1666.0,0.05330216275425803
1665.0,0.0515870342213991
1664.0,0.05002482217034632
1663.0,0.04866248120408234
1662.0,0.047352830241056854
1661.0,0.04599883231842972
1660.0,0.04464904263234004
1659.0,0.043303435105349175
1658.0,0.04200982159316968
1657.0,0.04072004986906119
1656.0,0.03924390909822728
1655.0,0.037583306554248797
1654.0,0.03682628362474838
1653.0,0.03692083935817303
1652.0,0.035693217696063595
1651.0,0.03437503289075727
1650.0,0.033952178923546183
1649.0,0.0338113190438627
1648.0,0.03352973627071565
1647.0,0.033201453616638954
1646.0,0.03277974021703267
1645.0,0.03217132066984485
1644.0,0.03151705144606498
1643.0,0.03105031901865729
1642.0,0.03063068826647264
1641.0,0.030164906924202484
1640.0,0.02960662792039992
1639.0,0.028863370523193765
1638.0,0.028167720075074953
1637.0,0.027750864037404455
1636.0,0.027750864037404455
1635.0,0.027612000892527133
1634.0,0.027056991894431892
1633.0,0.02654885597506529
1632.0,0.02613355016462182
1631.0,0.025672564576383117
1630.0,0.025258095499050004
1629.0,0.02498200236711723
1628.0,0.024706084643793647
1627.0,0.024246610963712723
1626.0,0.023787622882622816
1625.0,0.02342078135989012
1624.0,0.023283295636617574
1623.0,0.023191662661933732
1622.0,0.023054249440757957
1621.0,0.022871099419317753
1620.0,0.022733787572707387
1619.0,0.022642270454698687
1618.0,0.02282532397981263
1617.0,0.02355831062115543
1616.0,0.024246610963712723
1615.0,0.024522236834125355
1614.0,0.024660115394541604
1613.0,0.02475205875931885
1612.0,0.024522236834125355
1611.0,0.023971159908874107
1610.0,0.023237476732539397
1609.0,0.022367834754000393
1608.0,0.021499930688540836
1607.0,0.02067930261797568
1606.0,0.019860222254245663
1605.0,0.019178833355664393
1604.0,0.018498511851753108
1603.0,0.01781925440359733
1602.0,0.017141057687924732
1601.0,0.016554142658660398
1600.0,0.016013078034810446
1599.0,0.01547268665620738
1598.0,0.015067833932588037
1597.0,0.014708281407112
1596.0,0.014438812226654996
1595.0,0.014214382227394795
1594.0,0.014079779876432497
1593.0,0.013990068146738865
1592.0,0.013990068146738865
1591.0,0.013945219230304673
1590.0,0.013990068146738865
1589.0,0.014079779876432497
1588.0,0.014259258949925524
1587.0,0.014573525916998342
1586.0,0.015067833932588037
1585.0,0.015877917138889863
1584.0,0.017050711425501408
1583.0,0.018498511851753108
1582.0,0.02004210665933459
1581.0,0.021499930688540836
1580.0,0.02255077261765881
1579.0,0.02300845469384938
1578.0,0.02277955336461468
1577.0,0.021865152601710403
1576.0,0.020406104151069693
1575.0,0.018861217359339655
1574.0,0.017864505196230507
1573.0,0.017231422748988034
1572.0,0.016599261819461697
1571.0,0.015697768020096703
1570.0,0.014708281407112
1569.0,0.01372104409400876
1568.0,0.012959713020733288
1567.0,0.012378417874516323
1566.0,0.012021084124518078
1565.0,0.011664044143949504
1564.0,0.011307297450183107
1563.0,0.01086177578421088
1562.0,0.010194349063173958
1561.0,0.009306039320248427
1560.0,0.0087296108049002
1559.0,0.008818242332126802
1558.0,0.008463824699968647
1557.0,0.008286724286910463
1556.0,0.008330992620051436
1555.0,0.008375265465994541
1554.0,0.008286724286910463
1553.0,0.008109696063975047
1552.0,0.007932739972333236
1551.0,0.007711646202907652
1550.0,0.007534852191956709
1549.0,0.007402303897961815
1548.0,0.007402303897961815
1547.0,0.007358130121602358
1546.0,0.007093181776687496
1545.0,0.006696062080525422
1544.0,0.006167133386013823
1543.0,0.00577085918230158
1542.0,0.005462895701502157
1541.0,0.005462895701502157
1540.0,0.005462895701502157
1539.0,0.005155150446602086
1538.0,0.005023326350308999
1537.0,0.00541891874010525
1536.0,0.006079041198713275
1535.0,0.006519680930003435
1534.0,0.006916639301937977
1533.0,0.007181479933320523
1532.0,0.007313960837872058
1531.0,0.007358130121602358
1530.0,0.007490664932224611
1529.0,0.007667440952535687
1528.0,0.007711646202907652
1527.0,0.007490664932224611
1526.0,0.007269796045857202
1525.0,0.007093181776687496
1524.0,0.00696076819309055
1523.0,0.006696062080525422
1522.0,0.00625524344553785
1521.0,0.005726851026829571
1520.0,0.00537494623139545
1519.0,0.00537494623139545
1518.0,0.005682847330363394
1517.0,0.005990966876386672
1516.0,0.00625524344553785
1515.0,0.006519680930003435
1514.0,0.007137328610972382
1513.0,0.007932739972333236
1512.0,0.008951223547323472
1511.0,0.010060986715464404
1510.0,0.011441043121384498
1509.0,0.013631406429727155
1508.0,0.018679826740892747
1507.0,0.027056991894431892
1506.0,0.03273290844021437
1505.0,0.03334211579824231
1504.0,0.03128362253321426
1503.0,0.028075050815808744
1502.0,0.024338466818941473
1501.0,0.020497151212598652
1500.0,0.017005545341335804
1499.0,0.013990068146738865
1498.0,0.011574829993696856
1497.0,0.009705553871561357
1496.0,0.008375265465994541
1495.0,0.007534852191956709
1494.0,0.007225635744644521
1493.0,0.007358130121602358
1492.0,0.0075790439479759275
1491.0,0.00762324020119709
1490.0,0.007755855953228474
1489.0,0.008286724286910463
1488.0,0.009261671492462709
1487.0,0.01037222925484893
1486.0,0.011619434777991433
1485.0,0.012959713020733288
1484.0,0.014304140310157809
1483.0,0.015697768020096703
1482.0,0.017231422748988034
1481.0,0.018861217359339655
1480.0,0.020315076172974234
1479.0,0.021499930688540836
1478.0,0.02259651912656535
1477.0,0.02365002099672653
1476.0,0.024476287039668643
1475.0,0.02498200236711723
1474.0,0.02544225514642018
1473.0,0.026087429580295085
1472.0,0.026502691267936695
1471.0,0.026502691267936695
1470.0,0.026318081496016443
1469.0,0.02617967564731627
1468.0,0.025995203102585407
1467.0,0.025949097207122573
1466.0,0.026318081496016443
1465.0,0.027195677663422346
1464.0,0.028214062120885508
1463.0,0.02890978686288448
1462.0,0.029374223311705583
1461.0,0.029792641193145286
1460.0,0.030118356253500123
1459.0,0.030444315779156517
1458.0,0.03128362253321426
1457.0,0.032545631817259224
1456.0,0.033060836978886954
1455.0,0.033060836978886954
1454.0,0.03310770413286357
1453.0,0.033154576345083564
1452.0,0.032920265855503006
1451.0,0.03235843591698884
1450.0,0.03170388495374454
1449.0,0.03105031901865729
1448.0,0.030351159519274695
1447.0,0.029746130405213123
1446.0,0.029234840219232394
1445.0,0.028816959143838528
1444.0,0.02839947976994095
1443.0,0.028028723600243666
1442.0,0.027612000892527133
1441.0,0.027195677663422346
1440.0,0.02664120011360227
1439.0,0.025856900097785074
1438.0,0.024798037742147727
1437.0,0.023374947949272418
1436.0,0.021819483062586187
1435.0,0.02036058777709271
1434.0,0.019178833355664393
1433.0,0.018045555530026514
1432.0,0.016824927962187042
1431.0,0.01547268665620738
1430.0,0.014214382227394795
1429.0,0.01318349541446362
1428.0,0.012467797270160563
1427.0,0.012065734767841452
1426.0,0.011842527443247208
1425.0,0.011887159731648111
1424.0,0.012199714248127602
1423.0,0.012825498912458322
1422.0,0.013676222949234651
1421.0,0.014932966849499074
1420.0,0.017502630802287644
1419.0,0.021728158389364705
1418.0,0.02710321556345563
1417.0,0.033201453616638954
1416.0,0.04038628892895613
1415.0,0.04875964967565971
1414.0,0.05843887976392925
1413.0,0.06935655895783555
1412.0,0.08076496207674921
1411.0,0.09092559859909577
1410.0,0.09816040794877057
1409.0,0.10165883427249067
1408.0,0.10127481841050656
1407.0,0.09691001300805646
1406.0,0.08953568400438638
1405.0,0.08055578953476306
1404.0,0.0718090519612431
1403.0,0.06424089625468832
1402.0,0.05784307153250956
1401.0,0.05222329153526162
1400.0,0.0469171560879138
1399.0,0.042057664554595586
1398.0,0.038057116858612794
1397.0,0.0349394793888016
1396.0,0.03240522732811035
1395.0,0.030118356253500123
1394.0,0.02826040911222183
1393.0,0.02691835039863255
1392.0,0.025949097207122573
1391.0,0.02516604495145991
1390.0,0.024476287039668643
1389.0,0.023833499868024743
1388.0,0.02342078135989012
1387.0,0.023283295636617574
1386.0,0.02342078135989012
1385.0,0.023741750742954926
1384.0,0.024200690320592466
1383.0,0.02461415101053266
1382.0,0.025074013910237447
1381.0,0.02553436426275746
1380.0,0.026087429580295085
1379.0,0.026687379547098322
1378.0,0.02724191609646076
1377.0,0.027843464140506313
1376.0,0.028538594975413334
1375.0,0.029374223311705583
1374.0,0.030211462585061133
1373.0,0.030863766403287585
1372.0,0.031236951802751545
1371.0,0.031190286087141805
1370.0,0.03067729388779794
1369.0,0.029746130405213123
1368.0,0.02839947976994095
1367.0,0.02677975314776626
1366.0,0.024936003904763915
1365.0,0.02291687968414724
1364.0,0.02081596632558158
1363.0,0.018770512579999288
1362.0,0.017186237868137555
1361.0,0.01628352608625061
1360.0,0.015922966097169144
1359.0,0.015877917138889863
1358.0,0.016013078034810446
1357.0,0.016373712875465518
1356.0,0.016960383953898095
1355.0,0.017864505196230507
1354.0,0.0190880622231564
1353.0,0.020770406977844713
1352.0,0.02296266477531872
1351.0,0.025718641122169483
1350.0,0.029141943003497595
1349.0,0.033482823553208085
1348.0,0.038721320914956836
1347.0,0.044986096961949995
1346.0,0.05227227303668425
1345.0,0.06048074738138154
1344.0,0.0691018855898955
1343.0,0.07753405470158659
1342.0,0.08528671302637614
1341.0,0.09210516458371698
1340.0,0.09734452478207412
1339.0,0.09952362861074304
1338.0,0.09794268919153337
1337.0,0.09280368972839836
1336.0,0.08512818245994969
1335.0,0.07572071393811841
1334.0,0.06550154875643233
1333.0,0.05541863577307371
1332.0,0.04624030826677128
1331.0,0.03857890593355173
1330.0,0.032686081712916426
1329.0,0.02839947976994095
1328.0,0.02558042614771394
1327.0,0.023879381700184332
1326.0,0.023054249440757957
1325.0,0.022871099419317753
1324.0,0.023100049017062307
1323.0,0.023695883447997224
1322.0,0.024476287039668643
1321.0,0.02539620791296726
1320.0,0.026456531467510258
1319.0,0.027658283674251827
1318.0,0.029002634427514717
1317.0,0.030397735151460825
1316.0,0.03184406285002961
1315.0,0.03338901331806565
1314.0,0.03503362516890207
1313.0,0.03692083935817303
1312.0,0.038958783046687984
1311.0,0.041149548320321694
1310.0,0.04344740808260106
1309.0,0.04585401117045196
1308.0,0.048225491918274965
1307.0,0.05056119896349576
1306.0,0.05281143447390635
1305.0,0.05502409158795207
1304.0,0.057396751157843484
1303.0,0.05998184499233683
1302.0,0.06293368798257193
1301.0,0.06636088747507496
1300.0,0.07017251876930874
1299.0,0.07437854520917098
1298.0,0.0788860261633193
1297.0,0.08365134772453975
1296.0,0.08857603462370545
1295.0,0.0935033402006471
1294.0,0.09832376867362447
1293.0,0.10303309806684524
1292.0,0.10768273927751948
1291.0,0.11215773489264302
1290.0,0.11633856484638239
1289.0,0.12050271275057156
1288.0,0.12464930342071079
1287.0,0.12866061890013913
1286.0,0.13241467345296387
1285.0,0.1360826230421397
1284.0,0.13978181533124334
1283.0,0.14333151638846497
1282.0,0.14672777597931685
1281.0,0.1502121757623145
1280.0,0.1538485234711846
1279.0,0.15751557558842988
1278.0,0.1614027471833437
1277.0,0.16564288728159493
1276.0,0.1705032502798176
1275.0,0.17587416608345108
1274.0,0.18177410638604452
1273.0,0.18869315991866387
1272.0,0.19661117501638659
1271.0,0.2054422487452383
1270.0,0.2148838049780799
1269.0,0.22482661457521314
1268.0,0.23522628308895954
1267.0,0.24565166428898122
1266.0,0.25594183412116456
1265.0,0.26600071346161314
1264.0,0.2755602766029255
1263.0,0.2841637248350062
1262.0,0.29166409731773646
1261.0,0.2981730696028606
1260.0,0.30381841283147626
1259.0,0.30829979170983846
1258.0,0.31166918188773374
1257.0,0.31461659019851274
1256.0,0.3178549236261683
1255.0,0.3214816209598861
1254.0,0.32569011105852286
1253.0,0.3308691526266674
1252.0,0.33714776673520386
1251.0,0.34380593782081426
1250.0,0.3506651412878581
1249.0,0.35773338109732644
1248.0,0.3648179513437324
1247.0,0.37130461728597663
1246.0,0.37664731846200805
1245.0,0.38080228420705264
1244.0,0.3836295277087305
1243.0,0.38404994834359907
1242.0,0.3819519032879073
1241.0,0.3774751375964318
1240.0,0.37099838071300817
1239.0,0.3623101808815987
1238.0,0.35163998901906846
1237.0,0.3397038397292702
1236.0,0.32716354582860285
1235.0,0.3139002280040841
1234.0,0.3005959181846627
1233.0,0.2876870913186347
1232.0,0.2755602766029255
1231.0,0.26408188346870287
1230.0,0.25328797748333964
1229.0,0.24321180123188202
1228.0,0.23381030668984004
1227.0,0.22475374025976347
1226.0,0.2160964207272651
1225.0,0.20788859091283163
1224.0,0.20003947259401644
1223.0,0.19253262431572216
1222.0,0.18508681872492616
1221.0,0.1778973313530796
1220.0,0.17082492608291244
1219.0,0.1637391971415132
1218.0,0.15664262156204445
1217.0,0.14966014541652073
1216.0,0.14290884532648618
1215.0,0.13643923547375736
1214.0,0.13018179202067182
1213.0,0.12441789567211425
1212.0,0.1190150095132465
1211.0,0.11401718864502697
1210.0,0.10929960230112479
1209.0,0.10490910306560064
1208.0,0.10089114180660053
1207.0,0.09707290398273716
1206.0,0.09328794305703592
1205.0,0.08969583193143116
1204.0,0.08634506491338012
1203.0,0.08312512146131668
1202.0,0.08008551934056851
1201.0,0.0772226580712021
1200.0,0.07448164182257
1199.0,0.07175781684269089
1198.0,0.0691018855898955
1197.0,0.06656333217371957
1196.0,0.06419054619006714
1195.0,0.061880730805688344
1194.0,0.05973260855398799
1193.0,0.05769424710410598
1192.0,0.05586292684190197
1191.0,0.05423607688882637
1190.0,0.052762392129333646
1189.0,0.05144033789103841
1188.0,0.050317309204795935
1187.0,0.04948910701400333
1186.0,0.04905128560059957
1185.0,0.048954051864180226
1184.0,0.049245818406496555
1183.0,0.04987865248862655
1182.0,0.05075640943173498
1181.0,0.05192951848105887
1180.0,0.053351266093323746
1179.0,0.05482695382609992
1178.0,0.05625823416868636
1177.0,0.05744631966579017
1176.0,0.0583891978463662
1175.0,0.058836539841526925
1174.0,0.058737090681050264
1173.0,0.05804158346918653
1172.0,0.05665390164340933
1171.0,0.054679159207724926
1170.0,0.05237025261564554
1169.0,0.04997609347667353
1168.0,0.04774046340917959
1167.0,0.045902279520810385
1166.0,0.04440844959427559
1165.0,0.0433514207947967
1164.0,0.04268010314465909
1163.0,0.042392712939904875
1162.0,0.04229695845116854
1161.0,0.04244059810252043
1160.0,0.04272802000705722
1159.0,0.04325545471730896
1158.0,0.0439276630048171
1157.0,0.04474531717982
1156.0,0.04580574818413763
1155.0,0.04701393480294458
1154.0,0.048468209457651845
1153.0,0.050171041064686284
1152.0,0.05222329153526162
1151.0,0.05453141486818014
1150.0,0.057049929922901255
1149.0,0.05978244440026481
1148.0,0.06278310913729457
1147.0,0.06600683616875758
1146.0,0.06940751155740177
1145.0,0.0729891310243489
1144.0,0.07685964397479927
1143.0,0.08102656950704579
1142.0,0.0854453014823664
1141.0,0.0900697402471693
1140.0,0.0950141189006366
1139.0,0.10017949757290379
1138.0,0.10562854614376227
1137.0,0.11159583226295333
1136.0,0.11810202642698875
1135.0,0.125054563914468
1134.0,0.13241467345296387
1133.0,0.1402014525194344
1132.0,0.14837479684669086
1131.0,0.15676722190199066
1130.0,0.16532502553725603
1129.0,0.17418455501479646
1128.0,0.1832285876666535
1127.0,0.19232969876951622
1126.0,0.20128031481499375
1125.0,0.2102078322693246
1124.0,0.21903497039168318
1123.0,0.22738495015082916
1122.0,0.23500240071511946
1121.0,0.24184537803260997
1120.0,0.24756739073852607
1119.0,0.25173442733125917
1118.0,0.25422278211024096
1117.0,0.25500332596143993
1116.0,0.25422278211024096
1115.0,0.25219990913563106
1114.0,0.24956875133979795
1113.0,0.24756739073852607
1112.0,0.24726030606467186
1111.0,0.2491060796178748
1110.0,0.25328797748333964
1109.0,0.2599532759485059
1108.0,0.2688142923659995
1107.0,0.27901425584626094
1106.0,0.2897979853446153
1105.0,0.3005959181846627
1104.0,0.31104653736258214
1103.0,0.32048125630421054
1102.0,0.32873456705284165
1101.0,0.3359224098149254
1100.0,0.3418931644936072
1099.0,0.34620881261218805
1098.0,0.3488189375553121
1097.0,0.34988683555642863
1096.0,0.3496924768680636
1095.0,0.3478503945983471
1094.0,0.3444774037465823
1093.0,0.33998877871066924
1092.0,0.3347005005001029
1091.0,0.3283644033978703
1090.0,0.3212995650016959
1089.0,0.3140792078054646
1088.0,0.3068888845378588
1087.0,0.29972906264356314
1086.0,0.29242982390206373
1085.0,0.28516748756666743
1084.0,0.27785987454258443
1083.0,0.27010659603676235
1082.0,0.261615876487844
1081.0,0.2527436025578558
1080.0,0.243439956993317
1079.0,0.23373590934800448
1078.0,0.22373478173189043
1077.0,0.21381665443236653
1076.0,0.20418947533259169
1075.0,0.1948390984005659
1074.0,0.18588564387087447
1073.0,0.17743966305730785
1072.0,0.16966800654803826
1071.0,0.16247469055039865
1070.0,0.1558335895497993
1069.0,0.14978275820161047
1068.0,0.14435971910985468
1067.0,0.13936258322624528
1066.0,0.13471831500438958
1065.0,0.13053358991913355
1064.0,0.1267375405612734
1063.0,0.12326270285933538
1062.0,0.12004441487725082
1061.0,0.11719095860756013
1060.0,0.11475189221861393
1059.0,0.1125514997500463
1058.0,0.1106422631110684
1057.0,0.10924374808178183
1056.0,0.1082953237608173
1055.0,0.10773839308446487
1054.0,0.10746019534136453
1053.0,0.10746019534136453
1052.0,0.10773839308446487
1051.0,0.1081838804751396
1050.0,0.10862982530385179
1049.0,0.10924374808178183
1048.0,0.1098585399354226
1047.0,0.11047420332880886
1046.0,0.11086644403327606
1045.0,0.11109074073646874
1044.0,0.11097857790477517
1043.0,0.11047420332880886
1042.0,0.10957898119908571
1041.0,0.10846254232743546
1040.0,0.10718217569042365
1039.0,0.10557316203581202
1038.0,0.10369429253391926
1037.0,0.10182351650232357
1036.0,0.09990609845660159
1035.0,0.09799710864927058
1034.0,0.09598811640261173
1033.0,0.09415017335768128
1032.0,0.09258863922541383
1031.0,0.09140776115243066
1030.0,0.0908185240221473
1029.0,0.09135416109288674
1028.0,0.09366495819490939
1027.0,0.09821485469640057
1026.0,0.10551778498990938
1025.0,0.11588463798833115
1024.0,0.12912810493225724
1023.0,0.1447838052666366
1022.0,0.16209605540705763
1021.0,0.18025870272698952
1020.0,0.1976368256904526
1019.0,0.21169018789295002
1018.0,0.2195386671382824
1017.0,0.2193227255666319
1016.0,0.21098367320662526
1015.0,0.1962698290254561
1014.0,0.17835548245778288
1013.0,0.1603334431175667
1012.0,0.14429916916456276
1011.0,0.13100309751286465
1010.0,0.12027350336042275
1009.0,0.11182050608167504
1008.0,0.10501970907203151
1007.0,0.09957824654226233
1006.0,0.09506817260434741
1005.0,0.09140776115243066
1004.0,0.08830984124613894
1003.0,0.08560394787021397
1002.0,0.0832303157168639
1001.0,0.08107890990866418
1000.0,0.07925073872429178
999.0,0.07763790321520991
998.0,0.07613452481449845
997.0,0.07473949048056472
996.0,0.07350321072677968
995.0,0.07242434530888953
994.0,0.07155293679081787
993.0,0.07088774334533943
992.0,0.07047889936889606
991.0,0.07022356719509815
990.0,0.07001940948448526
989.0,0.0699173666076287
988.0,0.06996838504902692
987.0,0.07007043991541217
986.0,0.07032568205141221
985.0,0.07078549626260622
984.0,0.07150173187630915
983.0,0.07242434530888953
982.0,0.07360609973031784
981.0,0.07494587968815725
980.0,0.07644514193245056
979.0,0.07800156869172903
978.0,0.07956359344924135
977.0,0.08107890990866418
976.0,0.08249449044745338
975.0,0.08365134772453975
974.0,0.08444188458847957
973.0,0.08475850269380558
972.0,0.08475850269380558
971.0,0.08428366205400617
970.0,0.08333553545860273
969.0,0.08196966321511989
968.0,0.08029446545087904
967.0,0.07826151631540124
966.0,0.0760310351245288
965.0,0.07376047895413773
964.0,0.07145053299833615
963.0,0.0692037370166998
962.0,0.06696850489759454
961.0,0.06479513257341862
960.0,0.0627329277885873
959.0,0.06083032037482261
958.0,0.059035506507200575
957.0,0.057396751157843484
956.0,0.055961719945581745
955.0,0.05458065739693696
954.0,0.05325306496641513
953.0,0.05197846685889629
952.0,0.05085404758005607
951.0,0.04978123335813667
950.0,0.048905443158337114
949.0,0.04817696468408794
948.0,0.04749815213697639
947.0,0.04686877481655505
946.0,0.04633693625290869
945.0,0.04580574818413763
944.0,0.04527520902093718
943.0,0.04474531717982
942.0,0.044167989767578186
941.0,0.04368746915880539
940.0,0.04320747962950522
939.0,0.04287180232318688
938.0,0.042584285277331047
937.0,0.042344833056508824
936.0,0.04215336629184985
935.0,0.04186632432376469
934.0,0.041483896576958834
933.0,0.04105406750606355
932.0,0.04062466342415694
931.0,0.040243327009005014
930.0,0.039909932095080425
929.0,0.03967194946985697
928.0,0.03943409718180235
927.0,0.03910132267333921
926.0,0.038721320914956836
925.0,0.038341651362284734
924.0,0.03791491948264003
923.0,0.03753595394209874
922.0,0.03720463014276687
921.0,0.036873558918095295
920.0,0.03668448861388862
919.0,0.036542739883292485
918.0,0.036401037402758574
917.0,0.03621217265444465
916.0,0.0360705779734416
915.0,0.03597620715996652
914.0,0.036117771071222604
913.0,0.036401037402758574
912.0,0.03682628362474838
911.0,0.03739392707587297
910.0,0.038057116858612794
909.0,0.03886378261277468
908.0,0.039767126871487646
907.0,0.04081545726880842
906.0,0.041914151478914974
905.0,0.0431115453499229
904.0,0.04426415772233416
903.0,0.04537162249272897
902.0,0.04628861957244457
901.0,0.04696554274964315
900.0,0.04744970610179822
899.0,0.0478374257855374
898.0,0.047982909952573705
897.0,0.047982909952573705
896.0,0.0478374257855374
895.0,0.047595060422975566
894.0,0.047352830241056854
893.0,0.04715914332429838
892.0,0.04696554274964315
891.0,0.04686877481655505
890.0,0.04696554274964315
889.0,0.04749815213697639
888.0,0.04851676924770687
887.0,0.050171041064686284
886.0,0.0525172634430815
885.0,0.05566540802921782
884.0,0.05983228596592505
883.0,0.06504729218214189
882.0,0.07119462910671581
881.0,0.07826151631540124
880.0,0.08602728844902896
879.0,0.09441997176475758
878.0,0.10325338439259446
877.0,0.11260778102815316
876.0,0.12239832027072817
875.0,0.13200248965504868
874.0,0.1400815147992842
873.0,0.14454141961396383
872.0,0.14381507327283027
871.0,0.13763006287711765
870.0,0.12761061158217912
869.0,0.11628179803604044
868.0,0.10568393731556158
867.0,0.09685572959046151
866.0,0.0900163050601559
865.0,0.08496970974083906
864.0,0.08134070657817682
863.0,0.07872981449018734
862.0,0.07670415934449615
861.0,0.07525564752005143
860.0,0.07417242537525759
859.0,0.07350321072677968
858.0,0.07319468988839395
857.0,0.0732460948102629
856.0,0.07350321072677968
855.0,0.07386342893255127
854.0,0.07427547306393745
853.0,0.07504911108438939
852.0,0.07618627890881036
851.0,0.07743023101428781
850.0,0.07862570458152551
849.0,0.07956359344924135
848.0,0.08018997982980403
847.0,0.08029446545087904
846.0,0.07977228854307139
845.0,0.07867775641617802
844.0,0.07717078033335123
843.0,0.07525564752005143
842.0,0.07319468988839395
841.0,0.07109230975604719
840.0,0.0691018855898955
839.0,0.06722192993944942
838.0,0.0654005617819271
837.0,0.06363708040225546
836.0,0.061830653609679764
835.0,0.05993198626064755
834.0,0.05794231615860479
833.0,0.05610995175152733
832.0,0.05443294655761144
831.0,0.05286048235717078
830.0,0.05139145012356372
829.0,0.04997609347667353
828.0,0.04866248120408234
827.0,0.04744970610179822
826.0,0.04633693625290869
825.0,0.04537162249272897
824.0,0.04455278942230456
823.0,0.0437835307566099
822.0,0.04315950984076644
821.0,0.042775942156833
820.0,0.04263219156847242
819.0,0.04244059810252043
818.0,0.042201225070002124
817.0,0.04196198390166317
816.0,0.04186632432376469
815.0,0.04181850243505214
814.0,0.04172287445230238
813.0,0.041627267521392675
812.0,0.04153168163305643
811.0,0.04129280891271536
810.0,0.041006334969674096
809.0,0.040672354027829094
808.0,0.04038628892895613
807.0,0.040243327009005014
806.0,0.04010041213405646
805.0,0.03986232513620536
804.0,0.03943409718180235
803.0,0.03886378261277468
802.0,0.03829421599749461
801.0,0.03786753070176463
800.0,0.03786753070176463
799.0,0.038673844065289176
798.0,0.040672354027829094
797.0,0.04383156952463674
796.0,0.047595060422975566
795.0,0.05095170768433621
794.0,0.05310580489767336
793.0,0.05354773498692689
792.0,0.052468254304406825
791.0,0.05021979163799939
790.0,0.047352830241056854
789.0,0.044456557540257124
788.0,0.04186632432376469
787.0,0.03962436858984186
786.0,0.037488606492403154
785.0,0.03550466044490741
784.0,0.03376437590141812
783.0,0.03217132066984485
782.0,0.030863766403287585
781.0,0.02969962459782227
780.0,0.028677754757187035
779.0,0.027843464140506313
778.0,0.027056991894431892
777.0,0.026318081496016443
776.0,0.025488307262671706
775.0,0.024660115394541604
774.0,0.023787622882622816
773.0,0.02296266477531872
772.0,0.022139270735302752
771.0,0.02122621566987748
770.0,0.02026956933771462
769.0,0.01940584422377989
768.0,0.018725167293411005
767.0,0.018136109008649592
766.0,0.017502630802287644
765.0,0.01677978535189717
764.0,0.016058141016111804
763.0,0.015517693597737248
762.0,0.015157768594724175
761.0,0.014798141635428141
760.0,0.014393916947563534
759.0,0.013900374944870508
758.0,0.013452186585275916
757.0,0.01318349541446362
756.0,0.013049212141483357
755.0,0.013093968619278806
754.0,0.01318349541446362
753.0,0.013273040668781544
752.0,0.013452186585275916
751.0,0.01381070026317599
750.0,0.014349026309051105
749.0,0.015022873584506602
748.0,0.015697768020096703
747.0,0.016554142658660398
746.0,0.017909760704207134
745.0,0.020087589665283012
744.0,0.023237476732539397
743.0,0.027612000892527133
742.0,0.033482823553208085
741.0,0.04124505013091051
740.0,0.051244819831730126
739.0,0.06353652599525317
738.0,0.07800156869172903
737.0,0.09441997176475758
736.0,0.11238269966426384
735.0,0.13100309751286465
734.0,0.14984407757790774
733.0,0.16902660267734948
732.0,0.18882730493344568
731.0,0.2093630380682967
730.0,0.23054882059796222
729.0,0.2527436025578558
728.0,0.2754783728814374
727.0,0.2967946293045136
726.0,0.3143478158844757
725.0,0.32605800136591223
724.0,0.33031129194379183
723.0,0.3273480771599975
722.0,0.31921138849331765
721.0,0.3090069679001306
720.0,0.2987775157434429
719.0,0.2886146209015483
718.0,0.2780245984140466
717.0,0.2669633170664205
716.0,0.2555505425532014
715.0,0.24389662841489446
714.0,0.23247310059161808
713.0,0.22184874961635637
712.0,0.21239785381766252
711.0,0.2036338450224786
710.0,0.19531548509305963
709.0,0.18735398376688117
708.0,0.17992996568767428
707.0,0.17276000049435458
706.0,0.16602462872009371
705.0,0.15964294079664376
704.0,0.15372475758778692
703.0,0.14776406058811253
702.0,0.1414628024303608
701.0,0.134659094375416
700.0,0.1275523522109867
699.0,0.12056003400478299
698.0,0.1141301390960936
697.0,0.10846254232743546
696.0,0.10363915453068362
695.0,0.09935981601739963
694.0,0.09566320779750503
693.0,0.09248115389337075
692.0,0.08969583193143116
691.0,0.08708744882390307
690.0,0.08460016478773014
689.0,0.08228448344050654
688.0,0.08018997982980403
687.0,0.07846958649875768
686.0,0.07727454200674
685.0,0.07680780957933253
684.0,0.07696333132921396
683.0,0.07727454200674
682.0,0.07732643214144574
681.0,0.07680780957933253
680.0,0.07566901529132153
679.0,0.07401789967289685
678.0,0.07196279359311708
677.0,0.06971335275448043
676.0,0.0675769736232612
675.0,0.0655520510510299
674.0,0.06373765809652254
673.0,0.061880730805688344
672.0,0.05993198626064755
671.0,0.05794231615860479
670.0,0.05625823416868636
669.0,0.05531996611868961
668.0,0.05551732784983132
667.0,0.055566682299785564
666.0,0.054088483180726676
665.0,0.0515870342213991
664.0,0.049294465226138895
663.0,0.04778894189133087
662.0,0.04682039893436585
661.0,0.046047116768076934
660.0,0.0454680573730859
659.0,0.04508244626504121
658.0,0.044793462458058375
657.0,0.044312249686494276
656.0,0.04344740808260106
655.0,0.04229695845116854
654.0,0.04105406750606355
653.0,0.0400527842915015
652.0,0.03948165721929198
651.0,0.03938654235209116
650.0,0.039909932095080425
649.0,0.04086316882962593
648.0,0.0417706858116178
647.0,0.04215336629184985
646.0,0.0417706858116178
645.0,0.04076775094900409
644.0,0.03948165721929198
643.0,0.038057116858612794
642.0,0.036873558918095295
641.0,0.03621217265444465
640.0,0.03630659476198117
639.0,0.03701541568300293
638.0,0.03800971255993524
637.0,0.03919637508823026
636.0,0.04105406750606355
635.0,0.044071843103049346
634.0,0.0478374257855374
633.0,0.050805225762017736
632.0,0.05144033789103841
631.0,0.04982994019179987
630.0,0.04725597598510167
629.0,0.044986096961949995
628.0,0.04359142880416744
627.0,0.04291974034210022
626.0,0.04287180232318688
625.0,0.0431115453499229
624.0,0.0433514207947967
623.0,0.0435434165901003
622.0,0.04363944632667782
621.0,0.04359142880416744
620.0,0.04315950984076644
619.0,0.04196198390166317
618.0,0.0402909757535701
617.0,0.038816290187564384
616.0,0.03772539537668518
615.0,0.036873558918095295
614.0,0.03635381351515665
613.0,0.03630659476198117
612.0,0.03635381351515665
611.0,0.03592902944204468
610.0,0.03489241415094413
609.0,0.03385826726096752
608.0,0.033295223342125535
607.0,0.033060836978886954
606.0,0.032686081712916426
605.0,0.03217132066984485
604.0,0.03175060589208267
603.0,0.03128362253321426
602.0,0.03063068826647264
601.0,0.029932203450862893
600.0,0.029467170231675777
