cm-1,A
4000.0,-0.00030389978481260016
3999.0,-0.00030389978481260016
3998.0,-0.00030389978481260016
3997.0,-0.00030389978481260016
3996.0,-0.0002604985473904087
3995.0,-0.0002604985473904087
3994.0,-0.00021709297223004853
3993.0,-0.00013026880522692963
3992.0,-8.685021164911433e-05
3991.0,0.0
3990.0,4.343161980746579e-05
3989.0,4.343161980746579e-05
3988.0,0.0
3987.0,0.0
3986.0,-4.3427276862573194e-05
3985.0,-4.3427276862573194e-05
3984.0,0.0
3983.0,0.0
3982.0,0.0
3981.0,-4.3427276862573194e-05
3980.0,-8.685021164911433e-05
3979.0,-8.685021164911433e-05
3978.0,-4.3427276862573194e-05
3977.0,-4.3427276862573194e-05
3976.0,-4.3427276862573194e-05
3975.0,-4.3427276862573194e-05
3974.0,-4.3427276862573194e-05
3973.0,-8.685021164911433e-05
3972.0,-8.685021164911433e-05
3971.0,-0.00013026880522692963
3970.0,-0.00017368305846510168
3969.0,-0.0002604985473904087
3968.0,-0.00030389978481260016
3967.0,-0.0003906892499099257
3966.0,-0.00043407747931878404
3965.0,-0.00043407747931878404
3964.0,-0.0003906892499099257
3963.0,-0.00030389978481260016
3962.0,-0.00021709297223004853
3961.0,-0.00013026880522692963
3960.0,-0.00013026880522692963
3959.0,-0.00013026880522692963
3958.0,-0.00013026880522692963
3957.0,-0.00013026880522692963
3956.0,-0.00013026880522692963
3955.0,-0.00013026880522692963
3954.0,-0.00013026880522692963
3953.0,-0.00013026880522692963
3952.0,-0.00017368305846510168
3951.0,-0.00017368305846510168
3950.0,-0.00013026880522692963
3949.0,-8.685021164911433e-05
3948.0,-8.685021164911433e-05
3947.0,-8.685021164911433e-05
3946.0,-4.3427276862573194e-05
3945.0,-4.3427276862573194e-05
3944.0,0.0
3943.0,-4.3427276862573194e-05
3942.0,-0.00013026880522692963
3941.0,-0.00017368305846510168
3940.0,-0.00013026880522692963
3939.0,-8.685021164911433e-05
3938.0,-4.3427276862573194e-05
3937.0,0.0
3936.0,-4.3427276862573194e-05
3935.0,-4.3427276862573194e-05
3934.0,-4.3427276862573194e-05
3933.0,-8.685021164911433e-05
3932.0,-0.00017368305846510168
3931.0,-0.00021709297223004853
3930.0,-0.00030389978481260016
3929.0,-0.00030389978481260016
3928.0,-0.00030389978481260016
3927.0,-0.0002604985473904087
3926.0,-0.0002604985473904087
3925.0,-0.00030389978481260016
3924.0,-0.0003906892499099257
3923.0,-0.00043407747931878404
3922.0,-0.0003906892499099257
3921.0,-0.0002604985473904087
3920.0,-0.00013026880522692963
3919.0,4.343161980746579e-05
3918.0,0.0001303078917322953
3917.0,0.0001303078917322953
3916.0,0.0
3915.0,-8.685021164911433e-05
3914.0,-0.00013026880522692963
3913.0,-8.685021164911433e-05
3912.0,-4.3427276862573194e-05
3911.0,4.343161980746579e-05
3910.0,4.343161980746579e-05
3909.0,0.0
3908.0,0.0
3907.0,4.343161980746579e-05
3906.0,0.0001303078917322953
3905.0,0.00026065489343207737
3904.0,0.00043451177401765406
3903.0,0.0006084382809090627
3902.0,0.0006954276616513155
3901.0,0.0006519307932786322
3900.0,0.0004779868710962365
3899.0,0.00026065489343207737
3898.0,0.0001303078917322953
3897.0,4.343161980746579e-05
3896.0,4.343161980746579e-05
3895.0,4.343161980746579e-05
3894.0,4.343161980746579e-05
3893.0,0.0
3892.0,-4.3427276862573194e-05
3891.0,-4.3427276862573194e-05
3890.0,0.0
3889.0,8.686758342868472e-05
3888.0,0.00021720154586435392
3887.0,0.00030411258916074324
3886.0,0.00026065489343207737
3885.0,0.00017375254558760211
3884.0,8.686758342868472e-05
3883.0,4.343161980746579e-05
3882.0,8.686758342868472e-05
3881.0,0.0001303078917322953
3880.0,0.0001303078917322953
3879.0,0.00017375254558760211
3878.0,0.00017375254558760211
3877.0,0.0001303078917322953
3876.0,4.343161980746579e-05
3875.0,-4.3427276862573194e-05
3874.0,-8.685021164911433e-05
3873.0,0.0
3872.0,0.00021720154586435392
3871.0,0.0003475746339209884
3870.0,0.0003910410285830057
3869.0,0.00030411258916074324
3868.0,0.00026065489343207737
3867.0,0.00030411258916074324
3866.0,0.0003475746339209884
3865.0,0.0003475746339209884
3864.0,0.00030411258916074324
3863.0,0.00026065489343207737
3862.0,0.00021720154586435392
3861.0,0.00021720154586435392
3860.0,0.00021720154586435392
3859.0,0.00030411258916074324
3858.0,0.0003910410285830057
3857.0,0.0005649501236701937
3856.0,0.0007389288868995258
3855.0,0.000869458712629001
3854.0,0.0008259444115150671
3853.0,0.0006519307932786322
3852.0,0.0005649501236701937
3851.0,0.000521466320689834
3850.0,0.00043451177401765406
3849.0,0.00026065489343207737
3848.0,0.0001303078917322953
3847.0,4.343161980746579e-05
3846.0,0.0
3845.0,4.343161980746579e-05
3844.0,4.343161980746579e-05
3843.0,0.0001303078917322953
3842.0,0.00017375254558760211
3841.0,0.00026065489343207737
3840.0,0.0003475746339209884
3839.0,0.00030411258916074324
3838.0,0.00026065489343207737
3837.0,0.0001303078917322953
3836.0,8.686758342868472e-05
3835.0,0.0001303078917322953
3834.0,0.00021720154586435392
3833.0,0.0003475746339209884
3832.0,0.0003910410285830057
3831.0,0.0003910410285830057
3830.0,0.0003475746339209884
3829.0,0.00030411258916074324
3828.0,0.00021720154586435392
3827.0,8.686758342868472e-05
3826.0,-4.3427276862573194e-05
3825.0,-8.685021164911433e-05
3824.0,4.343161980746579e-05
3823.0,0.00030411258916074324
3822.0,0.0004779868710962365
3821.0,0.0004779868710962365
3820.0,0.00043451177401765406
3819.0,0.0003910410285830057
3818.0,0.00043451177401765406
3817.0,0.0003910410285830057
3816.0,0.00026065489343207737
3815.0,0.0001303078917322953
3814.0,4.343161980746579e-05
3813.0,4.343161980746579e-05
3812.0,0.0
3811.0,0.0
3810.0,8.686758342868472e-05
3809.0,0.00021720154586435392
3808.0,0.00030411258916074324
3807.0,0.00030411258916074324
3806.0,0.00026065489343207737
3805.0,0.0003475746339209884
3804.0,0.000521466320689834
3803.0,0.0006519307932786322
3802.0,0.0007389288868995258
3801.0,0.0006519307932786322
3800.0,0.0005649501236701937
3799.0,0.0004779868710962365
3798.0,0.0003910410285830057
3797.0,0.00026065489343207737
3796.0,0.0001303078917322953
3795.0,4.343161980746579e-05
3794.0,0.0
3793.0,0.0
3792.0,-4.3427276862573194e-05
3791.0,-8.685021164911433e-05
3790.0,-0.00013026880522692963
3789.0,-0.00013026880522692963
3788.0,-8.685021164911433e-05
3787.0,-4.3427276862573194e-05
3786.0,-4.3427276862573194e-05
3785.0,-4.3427276862573194e-05
3784.0,-0.00013026880522692963
3783.0,-0.00013026880522692963
3782.0,-0.00013026880522692963
3781.0,-0.00013026880522692963
3780.0,-8.685021164911433e-05
3779.0,-0.00013026880522692963
3778.0,-8.685021164911433e-05
3777.0,-4.3427276862573194e-05
3776.0,4.343161980746579e-05
3775.0,8.686758342868472e-05
3774.0,0.0001303078917322953
3773.0,0.0001303078917322953
3772.0,8.686758342868472e-05
3771.0,4.343161980746579e-05
3770.0,0.0
3769.0,4.343161980746579e-05
3768.0,0.0001303078917322953
3767.0,0.00026065489343207737
3766.0,0.0003475746339209884
3765.0,0.00030411258916074324
3764.0,0.00021720154586435392
3763.0,8.686758342868472e-05
3762.0,0.0
3761.0,-0.00013026880522692963
3760.0,-0.00021709297223004853
3759.0,-0.0002604985473904087
3758.0,-0.0002604985473904087
3757.0,-0.00017368305846510168
3756.0,-8.685021164911433e-05
3755.0,4.343161980746579e-05
3754.0,0.00017375254558760211
3753.0,0.0003475746339209884
3752.0,0.000521466320689834
3751.0,0.0006954276616513155
3750.0,0.0008259444115150671
3749.0,0.0009129773741116676
3748.0,0.0009129773741116676
3747.0,0.000869458712629001
3746.0,0.000869458712629001
3745.0,0.000869458712629001
3744.0,0.000869458712629001
3743.0,0.0009129773741116676
3742.0,0.0009565003968372565
3741.0,0.000869458712629001
3740.0,0.0007389288868995258
3739.0,0.0006519307932786322
3738.0,0.0006519307932786322
3737.0,0.0006954276616513155
3736.0,0.0006954276616513155
3735.0,0.0005649501236701937
3734.0,0.000521466320689834
3733.0,0.0005649501236701937
3732.0,0.0006519307932786322
3731.0,0.0006519307932786322
3730.0,0.0006519307932786322
3729.0,0.0006519307932786322
3728.0,0.0006519307932786322
3727.0,0.0006954276616513155
3726.0,0.0007389288868995258
3725.0,0.0007389288868995258
3724.0,0.0007389288868995258
3723.0,0.0006519307932786322
3722.0,0.00043451177401765406
3721.0,0.00021720154586435392
3720.0,4.343161980746579e-05
3719.0,-4.3427276862573194e-05
3718.0,-4.3427276862573194e-05
3717.0,4.343161980746579e-05
3716.0,0.0001303078917322953
3715.0,0.00026065489343207737
3714.0,0.0003910410285830057
3713.0,0.00043451177401765406
3712.0,0.00043451177401765406
3711.0,0.0003475746339209884
3710.0,0.00026065489343207737
3709.0,0.00021720154586435392
3708.0,0.00017375254558760211
3707.0,8.686758342868472e-05
3706.0,-4.3427276862573194e-05
3705.0,-0.00017368305846510168
3704.0,-0.0002604985473904087
3703.0,-0.0002604985473904087
3702.0,-0.0002604985473904087
3701.0,-0.0002604985473904087
3700.0,-0.0002604985473904087
3699.0,-0.00021709297223004853
3698.0,-0.00017368305846510168
3697.0,-0.00017368305846510168
3696.0,-0.00013026880522692963
3695.0,-0.00013026880522692963
3694.0,-8.685021164911433e-05
3693.0,4.343161980746579e-05
3692.0,0.00017375254558760211
3691.0,0.0003910410285830057
3690.0,0.000521466320689834
3689.0,0.0004779868710962365
3688.0,0.0003475746339209884
3687.0,0.00017375254558760211
3686.0,0.0
3685.0,-0.00013026880522692963
3684.0,-0.00021709297223004853
3683.0,-0.00030389978481260016
3682.0,-0.0002604985473904087
3681.0,-0.00021709297223004853
3680.0,-0.00017368305846510168
3679.0,-0.00017368305846510168
3678.0,-8.685021164911433e-05
3677.0,-4.3427276862573194e-05
3676.0,-8.685021164911433e-05
3675.0,-0.00017368305846510168
3674.0,-0.00013026880522692963
3673.0,4.343161980746579e-05
3672.0,0.00021720154586435392
3671.0,0.00026065489343207737
3670.0,0.00021720154586435392
3669.0,8.686758342868472e-05
3668.0,0.0
3667.0,-4.3427276862573194e-05
3666.0,-8.685021164911433e-05
3665.0,-0.00013026880522692963
3664.0,-0.00021709297223004853
3663.0,-0.0002604985473904087
3662.0,-0.00030389978481260016
3661.0,-0.0003906892499099257
3660.0,-0.0003906892499099257
3659.0,-0.0003472966853634851
3658.0,-0.0002604985473904087
3657.0,-0.00013026880522692963
3656.0,-8.685021164911433e-05
3655.0,-4.3427276862573194e-05
3654.0,4.343161980746579e-05
3653.0,8.686758342868472e-05
3652.0,0.00017375254558760211
3651.0,0.00017375254558760211
3650.0,0.0001303078917322953
3649.0,0.0001303078917322953
3648.0,0.00017375254558760211
3647.0,0.00021720154586435392
3646.0,0.00017375254558760211
3645.0,8.686758342868472e-05
3644.0,4.343161980746579e-05
3643.0,-4.3427276862573194e-05
3642.0,-4.3427276862573194e-05
3641.0,-8.685021164911433e-05
3640.0,-8.685021164911433e-05
3639.0,-0.00013026880522692963
3638.0,-0.00017368305846510168
3637.0,-0.00017368305846510168
3636.0,-8.685021164911433e-05
3635.0,4.343161980746579e-05
3634.0,0.00017375254558760211
3633.0,0.00021720154586435392
3632.0,0.00026065489343207737
3631.0,0.00030411258916074324
3630.0,0.00030411258916074324
3629.0,0.00017375254558760211
3628.0,4.343161980746579e-05
3627.0,-4.3427276862573194e-05
3626.0,0.0
3625.0,0.0
3624.0,4.343161980746579e-05
3623.0,0.0001303078917322953
3622.0,0.00017375254558760211
3621.0,0.00017375254558760211
3620.0,8.686758342868472e-05
3619.0,-4.3427276862573194e-05
3618.0,-0.00013026880522692963
3617.0,-8.685021164911433e-05
3616.0,0.0
3615.0,0.0
3614.0,-4.3427276862573194e-05
3613.0,0.0
3612.0,8.686758342868472e-05
3611.0,0.00030411258916074324
3610.0,0.000521466320689834
3609.0,0.0005649501236701937
3608.0,0.0004779868710962365
3607.0,0.00030411258916074324
3606.0,0.00017375254558760211
3605.0,0.0001303078917322953
3604.0,8.686758342868472e-05
3603.0,8.686758342868472e-05
3602.0,8.686758342868472e-05
3601.0,0.0
3600.0,-8.685021164911433e-05
3599.0,-0.00017368305846510168
3598.0,-0.0002604985473904087
3597.0,-0.00030389978481260016
3596.0,-0.00030389978481260016
3595.0,-0.0002604985473904087
3594.0,-0.00017368305846510168
3593.0,-8.685021164911433e-05
3592.0,4.343161980746579e-05
3591.0,0.0001303078917322953
3590.0,0.0001303078917322953
3589.0,8.686758342868472e-05
3588.0,4.343161980746579e-05
3587.0,4.343161980746579e-05
3586.0,8.686758342868472e-05
3585.0,8.686758342868472e-05
3584.0,0.0
3583.0,-4.3427276862573194e-05
3582.0,-8.685021164911433e-05
3581.0,-8.685021164911433e-05
3580.0,-4.3427276862573194e-05
3579.0,-8.685021164911433e-05
3578.0,-0.00013026880522692963
3577.0,-0.00021709297223004853
3576.0,-0.00030389978481260016
3575.0,-0.0003906892499099257
3574.0,-0.0003906892499099257
3573.0,-0.0003906892499099257
3572.0,-0.00030389978481260016
3571.0,-0.00017368305846510168
3570.0,-4.3427276862573194e-05
3569.0,8.686758342868472e-05
3568.0,0.00017375254558760211
3567.0,0.0001303078917322953
3566.0,0.0
3565.0,-0.00013026880522692963
3564.0,-0.00021709297223004853
3563.0,-0.0002604985473904087
3562.0,-0.00021709297223004853
3561.0,-0.00013026880522692963
3560.0,-8.685021164911433e-05
3559.0,-4.3427276862573194e-05
3558.0,-4.3427276862573194e-05
3557.0,-8.685021164911433e-05
3556.0,-8.685021164911433e-05
3555.0,-4.3427276862573194e-05
3554.0,0.0
3553.0,0.0
3552.0,0.0
3551.0,-4.3427276862573194e-05
3550.0,-0.00013026880522692963
3549.0,-0.00017368305846510168
3548.0,-0.00021709297223004853
3547.0,-0.0002604985473904087
3546.0,-0.00021709297223004853
3545.0,-0.00017368305846510168
3544.0,-0.00013026880522692963
3543.0,-0.00013026880522692963
3542.0,-0.00013026880522692963
3541.0,-8.685021164911433e-05
3540.0,-8.685021164911433e-05
3539.0,-8.685021164911433e-05
3538.0,-8.685021164911433e-05
3537.0,-0.00013026880522692963
3536.0,-0.00017368305846510168
3535.0,-0.00013026880522692963
3534.0,-0.00013026880522692963
3533.0,-0.00013026880522692963
3532.0,-0.00017368305846510168
3531.0,-0.0002604985473904087
3530.0,-0.0003472966853634851
3529.0,-0.0003906892499099257
3528.0,-0.0003906892499099257
3527.0,-0.0003906892499099257
3526.0,-0.0003472966853634851
3525.0,-0.00030389978481260016
3524.0,-0.0002604985473904087
3523.0,-0.00021709297223004853
3522.0,-0.00017368305846510168
3521.0,-8.685021164911433e-05
3520.0,-4.3427276862573194e-05
3519.0,-4.3427276862573194e-05
3518.0,-0.00013026880522692963
3517.0,-0.00021709297223004853
3516.0,-0.00030389978481260016
3515.0,-0.0003472966853634851
3514.0,-0.0003472966853634851
3513.0,-0.0003472966853634851
3512.0,-0.0003472966853634851
3511.0,-0.0003472966853634851
3510.0,-0.0003906892499099257
3509.0,-0.00043407747931878404
3508.0,-0.0005208409361854294
3507.0,-0.0005208409361854294
3506.0,-0.0004774613744551459
3505.0,-0.0003906892499099257
3504.0,-0.0003472966853634851
3503.0,-0.00030389978481260016
3502.0,-0.0003472966853634851
3501.0,-0.0003472966853634851
3500.0,-0.0003472966853634851
3499.0,-0.00030389978481260016
3498.0,-0.00030389978481260016
3497.0,-0.0002604985473904087
3496.0,-0.00021709297223004853
3495.0,-0.0002604985473904087
3494.0,-0.0002604985473904087
3493.0,-0.0002604985473904087
3492.0,-0.0002604985473904087
3491.0,-0.00021709297223004853
3490.0,-0.00021709297223004853
3489.0,-0.00017368305846510168
3488.0,-0.00017368305846510168
3487.0,-0.00017368305846510168
3486.0,-0.00017368305846510168
3485.0,-0.00013026880522692963
3484.0,-4.3427276862573194e-05
3483.0,8.686758342868472e-05
3482.0,8.686758342868472e-05
3481.0,4.343161980746579e-05
3480.0,-8.685021164911433e-05
3479.0,-0.00021709297223004853
3478.0,-0.0002604985473904087
3477.0,-0.00021709297223004853
3476.0,-0.00017368305846510168
3475.0,-0.00017368305846510168
3474.0,-0.00021709297223004853
3473.0,-0.0002604985473904087
3472.0,-0.0003472966853634851
3471.0,-0.0003472966853634851
3470.0,-0.00030389978481260016
3469.0,-0.00021709297223004853
3468.0,-0.00017368305846510168
3467.0,-0.00021709297223004853
3466.0,-0.0002604985473904087
3465.0,-0.0003472966853634851
3464.0,-0.0003472966853634851
3463.0,-0.0003472966853634851
3462.0,-0.00030389978481260016
3461.0,-0.00030389978481260016
3460.0,-0.0002604985473904087
3459.0,-0.00021709297223004853
3458.0,-0.00021709297223004853
3457.0,-0.00021709297223004853
3456.0,-0.00021709297223004853
3455.0,-0.0002604985473904087
3454.0,-0.0002604985473904087
3453.0,-0.00030389978481260016
3452.0,-0.00030389978481260016
3451.0,-0.00030389978481260016
3450.0,-0.00021709297223004853
3449.0,-0.00017368305846510168
3448.0,-0.00017368305846510168
3447.0,-0.0002604985473904087
3446.0,-0.0003472966853634851
3445.0,-0.00043407747931878404
3444.0,-0.00043407747931878404
3443.0,-0.0003906892499099257
3442.0,-0.0003472966853634851
3441.0,-0.0003472966853634851
3440.0,-0.00030389978481260016
3439.0,-0.00030389978481260016
3438.0,-0.00030389978481260016
3437.0,-0.0003472966853634851
3436.0,-0.0003472966853634851
3435.0,-0.0003472966853634851
3434.0,-0.0003472966853634851
3433.0,-0.0002604985473904087
3432.0,-0.00017368305846510168
3431.0,-8.685021164911433e-05
3430.0,0.0
3429.0,0.0
3428.0,-4.3427276862573194e-05
3427.0,-0.00013026880522692963
3426.0,-0.00017368305846510168
3425.0,-0.00017368305846510168
3424.0,-0.00013026880522692963
3423.0,-0.00013026880522692963
3422.0,-0.00013026880522692963
3421.0,-0.00013026880522692963
3420.0,-0.00013026880522692963
3419.0,-0.00017368305846510168
3418.0,-0.0002604985473904087
3417.0,-0.00030389978481260016
3416.0,-0.00030389978481260016
3415.0,-0.00030389978481260016
3414.0,-0.00030389978481260016
3413.0,-0.0002604985473904087
3412.0,-0.00021709297223004853
3411.0,-0.00017368305846510168
3410.0,-0.00013026880522692963
3409.0,-0.00013026880522692963
3408.0,-0.00017368305846510168
3407.0,-0.00021709297223004853
3406.0,-0.0002604985473904087
3405.0,-0.0002604985473904087
3404.0,-0.00021709297223004853
3403.0,-0.00013026880522692963
3402.0,-8.685021164911433e-05
3401.0,-8.685021164911433e-05
3400.0,-0.00017368305846510168
3399.0,-0.00021709297223004853
3398.0,-0.00030389978481260016
3397.0,-0.0003472966853634851
3396.0,-0.0003906892499099257
3395.0,-0.0003472966853634851
3394.0,-0.0002604985473904087
3393.0,-0.00013026880522692963
3392.0,0.0
3391.0,4.343161980746579e-05
3390.0,0.0
3389.0,-0.00013026880522692963
3388.0,-0.0002604985473904087
3387.0,-0.0003472966853634851
3386.0,-0.0003472966853634851
3385.0,-0.00030389978481260016
3384.0,-0.0002604985473904087
3383.0,-0.0002604985473904087
3382.0,-0.0002604985473904087
3381.0,-0.0003472966853634851
3380.0,-0.00043407747931878404
3379.0,-0.00043407747931878404
3378.0,-0.00043407747931878404
3377.0,-0.0003472966853634851
3376.0,-0.00021709297223004853
3375.0,-8.685021164911433e-05
3374.0,0.0
3373.0,0.0
3372.0,-8.685021164911433e-05
3371.0,-0.00017368305846510168
3370.0,-0.00021709297223004853
3369.0,-0.0002604985473904087
3368.0,-0.0002604985473904087
3367.0,-0.00021709297223004853
3366.0,-0.00021709297223004853
3365.0,-0.00021709297223004853
3364.0,-0.00021709297223004853
3363.0,-0.00013026880522692963
3362.0,-8.685021164911433e-05
3361.0,-8.685021164911433e-05
3360.0,-8.685021164911433e-05
3359.0,-0.00017368305846510168
3358.0,-0.0002604985473904087
3357.0,-0.00030389978481260016
3356.0,-0.00030389978481260016
3355.0,-0.00021709297223004853
3354.0,-8.685021164911433e-05
3353.0,4.343161980746579e-05
3352.0,0.0001303078917322953
3351.0,0.0001303078917322953
3350.0,8.686758342868472e-05
3349.0,0.0
3348.0,-0.00013026880522692963
3347.0,-0.00017368305846510168
3346.0,-0.00021709297223004853
3345.0,-0.0002604985473904087
3344.0,-0.0002604985473904087
3343.0,-0.0002604985473904087
3342.0,-0.0002604985473904087
3341.0,-0.00030389978481260016
3340.0,-0.0003472966853634851
3339.0,-0.00043407747931878404
3338.0,-0.0004774613744551459
3337.0,-0.0004774613744551459
3336.0,-0.0003906892499099257
3335.0,-0.0002604985473904087
3334.0,-0.00017368305846510168
3333.0,-0.00017368305846510168
3332.0,-0.00021709297223004853
3331.0,-0.0002604985473904087
3330.0,-0.0003472966853634851
3329.0,-0.0003472966853634851
3328.0,-0.00030389978481260016
3327.0,-0.00017368305846510168
3326.0,-8.685021164911433e-05
3325.0,0.0
3324.0,4.343161980746579e-05
3323.0,4.343161980746579e-05
3322.0,0.0
3321.0,-8.685021164911433e-05
3320.0,-8.685021164911433e-05
3319.0,-4.3427276862573194e-05
3318.0,0.0
3317.0,4.343161980746579e-05
3316.0,0.0
3315.0,-4.3427276862573194e-05
3314.0,-8.685021164911433e-05
3313.0,-0.00013026880522692963
3312.0,-0.00013026880522692963
3311.0,-0.00013026880522692963
3310.0,-0.00017368305846510168
3309.0,-0.00021709297223004853
3308.0,-0.00021709297223004853
3307.0,-0.0002604985473904087
3306.0,-0.0002604985473904087
3305.0,-0.00021709297223004853
3304.0,-0.00017368305846510168
3303.0,-0.00013026880522692963
3302.0,-0.00017368305846510168
3301.0,-0.00021709297223004853
3300.0,-0.00021709297223004853
3299.0,-0.00021709297223004853
3298.0,-0.00017368305846510168
3297.0,-0.00013026880522692963
3296.0,-8.685021164911433e-05
3295.0,-0.00013026880522692963
3294.0,-0.00017368305846510168
3293.0,-0.0002604985473904087
3292.0,-0.0002604985473904087
3291.0,-0.0002604985473904087
3290.0,-0.00021709297223004853
3289.0,-0.00017368305846510168
3288.0,-0.00013026880522692963
3287.0,-0.00013026880522692963
3286.0,-0.00017368305846510168
3285.0,-0.0002604985473904087
3284.0,-0.00030389978481260016
3283.0,-0.00030389978481260016
3282.0,-0.0002604985473904087
3281.0,-0.00021709297223004853
3280.0,-0.00017368305846510168
3279.0,-0.00017368305846510168
3278.0,-0.00013026880522692963
3277.0,-0.00013026880522692963
3276.0,-0.00013026880522692963
3275.0,-0.00017368305846510168
3274.0,-0.00017368305846510168
3273.0,-0.00017368305846510168
3272.0,-0.00013026880522692963
3271.0,-0.00013026880522692963
3270.0,-8.685021164911433e-05
3269.0,-8.685021164911433e-05
3268.0,-8.685021164911433e-05
3267.0,-0.00013026880522692963
3266.0,-0.00013026880522692963
3265.0,-0.00013026880522692963
3264.0,-8.685021164911433e-05
3263.0,-8.685021164911433e-05
3262.0,-0.00017368305846510168
3261.0,-0.00021709297223004853
3260.0,-0.0002604985473904087
3259.0,-0.00030389978481260016
3258.0,-0.0002604985473904087
3257.0,-0.00017368305846510168
3256.0,-8.685021164911433e-05
3255.0,-4.3427276862573194e-05
3254.0,-4.3427276862573194e-05
3253.0,-0.00013026880522692963
3252.0,-0.00013026880522692963
3251.0,-0.00017368305846510168
3250.0,-0.00017368305846510168
3249.0,-0.00017368305846510168
3248.0,-0.00021709297223004853
3247.0,-0.0002604985473904087
3246.0,-0.0003472966853634851
3245.0,-0.0003906892499099257
3244.0,-0.00043407747931878404
3243.0,-0.00043407747931878404
3242.0,-0.0003906892499099257
3241.0,-0.00030389978481260016
3240.0,-0.0002604985473904087
3239.0,-0.00030389978481260016
3238.0,-0.0003472966853634851
3237.0,-0.0003906892499099257
3236.0,-0.0003906892499099257
3235.0,-0.0003472966853634851
3234.0,-0.0003472966853634851
3233.0,-0.00030389978481260016
3232.0,-0.00030389978481260016
3231.0,-0.00030389978481260016
3230.0,-0.0003472966853634851
3229.0,-0.0003906892499099257
3228.0,-0.0003906892499099257
3227.0,-0.0003472966853634851
3226.0,-0.0002604985473904087
3225.0,-0.00013026880522692963
3224.0,-8.685021164911433e-05
3223.0,-4.3427276862573194e-05
3222.0,-8.685021164911433e-05
3221.0,-0.00013026880522692963
3220.0,-0.00017368305846510168
3219.0,-0.00021709297223004853
3218.0,-0.0002604985473904087
3217.0,-0.00030389978481260016
3216.0,-0.0002604985473904087
3215.0,-0.00021709297223004853
3214.0,-0.00017368305846510168
3213.0,-0.00017368305846510168
3212.0,-0.00021709297223004853
3211.0,-0.00021709297223004853
3210.0,-0.00021709297223004853
3209.0,-0.00017368305846510168
3208.0,-0.00021709297223004853
3207.0,-0.0002604985473904087
3206.0,-0.00030389978481260016
3205.0,-0.00030389978481260016
3204.0,-0.0002604985473904087
3203.0,-0.00017368305846510168
3202.0,-0.00013026880522692963
3201.0,-0.00013026880522692963
3200.0,-0.00013026880522692963
3199.0,-0.00017368305846510168
3198.0,-0.00017368305846510168
3197.0,-0.00013026880522692963
3196.0,-8.685021164911433e-05
3195.0,-4.3427276862573194e-05
3194.0,0.0
3193.0,4.343161980746579e-05
3192.0,4.343161980746579e-05
3191.0,0.0
3190.0,-4.3427276862573194e-05
3189.0,0.0
3188.0,0.0
3187.0,4.343161980746579e-05
3186.0,4.343161980746579e-05
3185.0,0.0
3184.0,-8.685021164911433e-05
3183.0,-0.00013026880522692963
3182.0,-0.0002604985473904087
3181.0,-0.0003472966853634851
3180.0,-0.0003906892499099257
3179.0,-0.0003472966853634851
3178.0,-0.0002604985473904087
3177.0,-0.0002604985473904087
3176.0,-0.0002604985473904087
3175.0,-0.00030389978481260016
3174.0,-0.0002604985473904087
3173.0,-0.00021709297223004853
3172.0,-8.685021164911433e-05
3171.0,0.0
3170.0,8.686758342868472e-05
3169.0,8.686758342868472e-05
3168.0,0.0
3167.0,-8.685021164911433e-05
3166.0,-8.685021164911433e-05
3165.0,-8.685021164911433e-05
3164.0,-8.685021164911433e-05
3163.0,-0.00013026880522692963
3162.0,-0.00017368305846510168
3161.0,-0.00017368305846510168
3160.0,-0.00013026880522692963
3159.0,-4.3427276862573194e-05
3158.0,0.0
3157.0,4.343161980746579e-05
3156.0,4.343161980746579e-05
3155.0,0.0
3154.0,-8.685021164911433e-05
3153.0,-0.00021709297223004853
3152.0,-0.0002604985473904087
3151.0,-0.0002604985473904087
3150.0,-0.00017368305846510168
3149.0,-8.685021164911433e-05
3148.0,0.0
3147.0,4.343161980746579e-05
3146.0,8.686758342868472e-05
3145.0,4.343161980746579e-05
3144.0,0.0
3143.0,-8.685021164911433e-05
3142.0,-0.00017368305846510168
3141.0,-0.00030389978481260016
3140.0,-0.0003472966853634851
3139.0,-0.00030389978481260016
3138.0,-0.00017368305846510168
3137.0,-4.3427276862573194e-05
3136.0,4.343161980746579e-05
3135.0,4.343161980746579e-05
3134.0,0.0
3133.0,-4.3427276862573194e-05
3132.0,-8.685021164911433e-05
3131.0,-8.685021164911433e-05
3130.0,-8.685021164911433e-05
3129.0,-0.00013026880522692963
3128.0,-0.00017368305846510168
3127.0,-0.00017368305846510168
3126.0,-0.00013026880522692963
3125.0,-8.685021164911433e-05
3124.0,-4.3427276862573194e-05
3123.0,-4.3427276862573194e-05
3122.0,-8.685021164911433e-05
3121.0,-8.685021164911433e-05
3120.0,-4.3427276862573194e-05
3119.0,4.343161980746579e-05
3118.0,4.343161980746579e-05
3117.0,4.343161980746579e-05
3116.0,-4.3427276862573194e-05
3115.0,-0.00013026880522692963
3114.0,-0.00017368305846510168
3113.0,-0.00017368305846510168
3112.0,-0.00017368305846510168
3111.0,-0.00017368305846510168
3110.0,-0.00017368305846510168
3109.0,-0.00013026880522692963
3108.0,-0.00013026880522692963
3107.0,-0.00017368305846510168
3106.0,-0.00017368305846510168
3105.0,-0.00017368305846510168
3104.0,-0.00013026880522692963
3103.0,-4.3427276862573194e-05
3102.0,8.686758342868472e-05
3101.0,0.00017375254558760211
3100.0,0.0001303078917322953
3099.0,8.686758342868472e-05
3098.0,4.343161980746579e-05
3097.0,0.0
3096.0,0.0
3095.0,0.0
3094.0,-8.685021164911433e-05
3093.0,-0.00013026880522692963
3092.0,-0.00013026880522692963
3091.0,-0.00013026880522692963
3090.0,-8.685021164911433e-05
3089.0,-4.3427276862573194e-05
3088.0,0.0
3087.0,4.343161980746579e-05
3086.0,4.343161980746579e-05
3085.0,4.343161980746579e-05
3084.0,4.343161980746579e-05
3083.0,0.0
3082.0,0.0
3081.0,0.0
3080.0,0.0
3079.0,0.0
3078.0,-4.3427276862573194e-05
3077.0,-8.685021164911433e-05
3076.0,-8.685021164911433e-05
3075.0,-8.685021164911433e-05
3074.0,-4.3427276862573194e-05
3073.0,0.0
3072.0,0.0
3071.0,-4.3427276862573194e-05
3070.0,-4.3427276862573194e-05
3069.0,-8.685021164911433e-05
3068.0,-0.00017368305846510168
3067.0,-0.00021709297223004853
3066.0,-0.0002604985473904087
3065.0,-0.0002604985473904087
3064.0,-0.00017368305846510168
3063.0,-8.685021164911433e-05
3062.0,0.0
3061.0,0.0
3060.0,0.0
3059.0,-8.685021164911433e-05
3058.0,-0.00013026880522692963
3057.0,-0.00013026880522692963
3056.0,-0.00017368305846510168
3055.0,-0.00021709297223004853
3054.0,-0.00017368305846510168
3053.0,-0.00013026880522692963
3052.0,-8.685021164911433e-05
3051.0,0.0
3050.0,0.0
3049.0,0.0
3048.0,0.0
3047.0,0.0
3046.0,-4.3427276862573194e-05
3045.0,-4.3427276862573194e-05
3044.0,-4.3427276862573194e-05
3043.0,0.0
3042.0,0.0
3041.0,0.0
3040.0,0.0
3039.0,0.0
3038.0,-8.685021164911433e-05
3037.0,-0.00013026880522692963
3036.0,-0.00021709297223004853
3035.0,-0.0002604985473904087
3034.0,-0.0002604985473904087
3033.0,-0.00017368305846510168
3032.0,-0.00013026880522692963
3031.0,-8.685021164911433e-05
3030.0,-0.00013026880522692963
3029.0,-0.00013026880522692963
3028.0,-8.685021164911433e-05
3027.0,-4.3427276862573194e-05
3026.0,-4.3427276862573194e-05
3025.0,-0.00013026880522692963
3024.0,-0.00017368305846510168
3023.0,-0.00021709297223004853
3022.0,-0.0002604985473904087
3021.0,-0.0002604985473904087
3020.0,-0.00030389978481260016
3019.0,-0.0003472966853634851
3018.0,-0.0003906892499099257
3017.0,-0.0003906892499099257
3016.0,-0.00043407747931878404
3015.0,-0.0004774613744551459
3014.0,-0.0004774613744551459
3013.0,-0.0004774613744551459
3012.0,-0.00043407747931878404
3011.0,-0.0004774613744551459
3010.0,-0.0005208409361854294
3009.0,-0.0005642161653756084
3008.0,-0.0006075870628903246
3007.0,-0.0006075870628903246
3006.0,-0.0006075870628903246
3005.0,-0.0006509536295951079
3004.0,-0.0006943158663546001
3003.0,-0.0007376737740329986
3002.0,-0.0008243766056055257
3001.0,-0.0008677215312267172
3000.0,-0.0009110621312231615
2999.0,-0.0009110621312231615
2998.0,-0.0008677215312267172
2997.0,-0.0008243766056055257
2996.0,-0.0007810273534953893
2995.0,-0.0007810273534953893
2994.0,-0.0007810273534953893
2993.0,-0.0008243766056055257
2992.0,-0.0008677215312267172
2991.0,-0.0009543984064577238
2990.0,-0.0009977303577937136
2989.0,-0.0010843812922201046
2988.0,-0.0011277002770349043
2987.0,-0.0011277002770349043
2986.0,-0.0010843812922201046
2985.0,-0.0010843812922201046
2984.0,-0.0010843812922201046
2983.0,-0.0011277002770349043
2982.0,-0.0011277002770349043
2981.0,-0.0011710149414008164
2980.0,-0.0011277002770349043
2979.0,-0.0011277002770349043
2978.0,-0.0010843812922201046
2977.0,-0.0010843812922201046
2976.0,-0.0010843812922201046
2975.0,-0.0010843812922201046
2974.0,-0.0011277002770349043
2973.0,-0.0011277002770349043
2972.0,-0.0011277002770349043
2971.0,-0.0010843812922201046
2970.0,-0.001041057986093552
2969.0,-0.0010843812922201046
2968.0,-0.0011277002770349043
2967.0,-0.0011710149414008164
2966.0,-0.0011710149414008164
2965.0,-0.0011710149414008164
2964.0,-0.0011710149414008164
2963.0,-0.0010843812922201046
2962.0,-0.001041057986093552
2961.0,-0.0009977303577937136
2960.0,-0.0009977303577937136
2959.0,-0.0009977303577937136
2958.0,-0.001041057986093552
2957.0,-0.001041057986093552
2956.0,-0.0009977303577937136
2955.0,-0.0009977303577937136
2954.0,-0.0009543984064577238
2953.0,-0.0009110621312231615
2952.0,-0.0008677215312267172
2951.0,-0.0008243766056055257
2950.0,-0.0007810273534953893
2949.0,-0.0007376737740329986
2948.0,-0.0007376737740329986
2947.0,-0.0006943158663546001
2946.0,-0.0006509536295951079
2945.0,-0.0006509536295951079
2944.0,-0.0006943158663546001
2943.0,-0.0007376737740329986
2942.0,-0.0007810273534953893
2941.0,-0.0008243766056055257
2940.0,-0.0007810273534953893
2939.0,-0.0007810273534953893
2938.0,-0.0007810273534953893
2937.0,-0.0008243766056055257
2936.0,-0.0008677215312267172
2935.0,-0.0008677215312267172
2934.0,-0.0008677215312267172
2933.0,-0.0007810273534953893
2932.0,-0.0007376737740329986
2931.0,-0.0007376737740329986
2930.0,-0.0007810273534953893
2929.0,-0.0008243766056055257
2928.0,-0.0008677215312267172
2927.0,-0.0008677215312267172
2926.0,-0.0008243766056055257
2925.0,-0.0007376737740329986
2924.0,-0.0006943158663546001
2923.0,-0.0006509536295951079
2922.0,-0.0006075870628903246
2921.0,-0.0006509536295951079
2920.0,-0.0006943158663546001
2919.0,-0.0007376737740329986
2918.0,-0.0007376737740329986
2917.0,-0.0007376737740329986
2916.0,-0.0007810273534953893
2915.0,-0.0008243766056055257
2914.0,-0.0008243766056055257
2913.0,-0.0008243766056055257
2912.0,-0.0009110621312231615
2911.0,-0.0009543984064577238
2910.0,-0.0009543984064577238
2909.0,-0.0009543984064577238
2908.0,-0.0008677215312267172
2907.0,-0.0008243766056055257
2906.0,-0.0008243766056055257
2905.0,-0.0008677215312267172
2904.0,-0.0009110621312231615
2903.0,-0.0009110621312231615
2902.0,-0.0009110621312231615
2901.0,-0.0009110621312231615
2900.0,-0.0008677215312267172
2899.0,-0.0008243766056055257
2898.0,-0.0008243766056055257
2897.0,-0.0007810273534953893
2896.0,-0.0007810273534953893
2895.0,-0.0007810273534953893
2894.0,-0.0007810273534953893
2893.0,-0.0008243766056055257
2892.0,-0.0008243766056055257
2891.0,-0.0008677215312267172
2890.0,-0.0008677215312267172
2889.0,-0.0008677215312267172
2888.0,-0.0008677215312267172
2887.0,-0.0008243766056055257
2886.0,-0.0007810273534953893
2885.0,-0.0007376737740329986
2884.0,-0.0007376737740329986
2883.0,-0.0006943158663546001
2882.0,-0.0006943158663546001
2881.0,-0.0006509536295951079
2880.0,-0.0006075870628903246
2879.0,-0.0006075870628903246
2878.0,-0.0006943158663546001
2877.0,-0.0006943158663546001
2876.0,-0.0006943158663546001
2875.0,-0.0006943158663546001
2874.0,-0.0006509536295951079
2873.0,-0.0006509536295951079
2872.0,-0.0006943158663546001
2871.0,-0.0006509536295951079
2870.0,-0.0006509536295951079
2869.0,-0.0006075870628903246
2868.0,-0.0006075870628903246
2867.0,-0.0006075870628903246
2866.0,-0.0005642161653756084
2865.0,-0.0004774613744551459
2864.0,-0.00043407747931878404
2863.0,-0.0003906892499099257
2862.0,-0.0003906892499099257
2861.0,-0.00043407747931878404
2860.0,-0.0004774613744551459
2859.0,-0.0004774613744551459
2858.0,-0.0003906892499099257
2857.0,-0.00030389978481260016
2856.0,-0.0002604985473904087
2855.0,-0.00021709297223004853
2854.0,-0.00021709297223004853
2853.0,-0.00021709297223004853
2852.0,-0.00021709297223004853
2851.0,-0.00021709297223004853
2850.0,-0.0002604985473904087
2849.0,-0.0002604985473904087
2848.0,-0.0002604985473904087
2847.0,-0.00021709297223004853
2846.0,-0.00021709297223004853
2845.0,-0.00021709297223004853
2844.0,-0.0002604985473904087
2843.0,-0.00030389978481260016
2842.0,-0.0003472966853634851
2841.0,-0.0003472966853634851
2840.0,-0.0003472966853634851
2839.0,-0.0003472966853634851
2838.0,-0.00030389978481260016
2837.0,-0.0002604985473904087
2836.0,-0.00021709297223004853
2835.0,-0.00017368305846510168
2834.0,-0.00013026880522692963
2833.0,-8.685021164911433e-05
2832.0,-0.00013026880522692963
2831.0,-0.00021709297223004853
2830.0,-0.0002604985473904087
2829.0,-0.00021709297223004853
2828.0,-0.00017368305846510168
2827.0,-8.685021164911433e-05
2826.0,-4.3427276862573194e-05
2825.0,-8.685021164911433e-05
2824.0,-0.00017368305846510168
2823.0,-0.0002604985473904087
2822.0,-0.00030389978481260016
2821.0,-0.00030389978481260016
2820.0,-0.00030389978481260016
2819.0,-0.0002604985473904087
2818.0,-0.00021709297223004853
2817.0,-0.00021709297223004853
2816.0,-0.00021709297223004853
2815.0,-0.00017368305846510168
2814.0,-0.00021709297223004853
2813.0,-0.0002604985473904087
2812.0,-0.00030389978481260016
2811.0,-0.00030389978481260016
2810.0,-0.00030389978481260016
2809.0,-0.00021709297223004853
2808.0,-0.00017368305846510168
2807.0,-8.685021164911433e-05
2806.0,-4.3427276862573194e-05
2805.0,0.0
2804.0,4.343161980746579e-05
2803.0,4.343161980746579e-05
2802.0,0.0
2801.0,-4.3427276862573194e-05
2800.0,-8.685021164911433e-05
2799.0,-0.00017368305846510168
2798.0,-0.00021709297223004853
2797.0,-0.00021709297223004853
2796.0,-0.00021709297223004853
2795.0,-0.00021709297223004853
2794.0,-0.00017368305846510168
2793.0,-0.00017368305846510168
2792.0,-0.00013026880522692963
2791.0,-8.685021164911433e-05
2790.0,-8.685021164911433e-05
2789.0,-0.00013026880522692963
2788.0,-0.00013026880522692963
2787.0,-0.00017368305846510168
2786.0,-0.00013026880522692963
2785.0,-0.00013026880522692963
2784.0,-8.685021164911433e-05
2783.0,-4.3427276862573194e-05
2782.0,0.0
2781.0,4.343161980746579e-05
2780.0,8.686758342868472e-05
2779.0,8.686758342868472e-05
2778.0,0.0001303078917322953
2777.0,0.0001303078917322953
2776.0,0.0001303078917322953
2775.0,8.686758342868472e-05
2774.0,4.343161980746579e-05
2773.0,0.0
2772.0,0.0
2771.0,-4.3427276862573194e-05
2770.0,0.0
2769.0,0.0
2768.0,0.0
2767.0,-4.3427276862573194e-05
2766.0,-8.685021164911433e-05
2765.0,-0.00013026880522692963
2764.0,-0.00017368305846510168
2763.0,-0.00013026880522692963
2762.0,-8.685021164911433e-05
2761.0,-4.3427276862573194e-05
2760.0,-4.3427276862573194e-05
2759.0,-8.685021164911433e-05
2758.0,-0.00013026880522692963
2757.0,-0.00017368305846510168
2756.0,-0.00017368305846510168
2755.0,-0.00013026880522692963
2754.0,-8.685021164911433e-05
2753.0,-8.685021164911433e-05
2752.0,-4.3427276862573194e-05
2751.0,0.0
2750.0,4.343161980746579e-05
2749.0,4.343161980746579e-05
2748.0,4.343161980746579e-05
2747.0,0.0
2746.0,-4.3427276862573194e-05
2745.0,0.0
2744.0,0.0
2743.0,4.343161980746579e-05
2742.0,4.343161980746579e-05
2741.0,4.343161980746579e-05
2740.0,4.343161980746579e-05
2739.0,0.0
2738.0,0.0
2737.0,-4.3427276862573194e-05
2736.0,-4.3427276862573194e-05
2735.0,-4.3427276862573194e-05
2734.0,-4.3427276862573194e-05
2733.0,-8.685021164911433e-05
2732.0,-8.685021164911433e-05
2731.0,-8.685021164911433e-05
2730.0,-4.3427276862573194e-05
2729.0,-4.3427276862573194e-05
2728.0,0.0
2727.0,0.0
2726.0,-4.3427276862573194e-05
2725.0,-4.3427276862573194e-05
2724.0,-4.3427276862573194e-05
2723.0,0.0
2722.0,4.343161980746579e-05
2721.0,4.343161980746579e-05
2720.0,4.343161980746579e-05
2719.0,0.0
2718.0,-4.3427276862573194e-05
2717.0,-8.685021164911433e-05
2716.0,-4.3427276862573194e-05
2715.0,-8.685021164911433e-05
2714.0,-0.00013026880522692963
2713.0,-0.00013026880522692963
2712.0,-0.00013026880522692963
2711.0,-8.685021164911433e-05
2710.0,0.0
2709.0,8.686758342868472e-05
2708.0,8.686758342868472e-05
2707.0,4.343161980746579e-05
2706.0,0.0
2705.0,-8.685021164911433e-05
2704.0,-8.685021164911433e-05
2703.0,-8.685021164911433e-05
2702.0,-8.685021164911433e-05
2701.0,-4.3427276862573194e-05
2700.0,0.0
2699.0,4.343161980746579e-05
2698.0,4.343161980746579e-05
2697.0,0.0
2696.0,0.0
2695.0,-4.3427276862573194e-05
2694.0,-8.685021164911433e-05
2693.0,-0.00013026880522692963
2692.0,-0.00013026880522692963
2691.0,-8.685021164911433e-05
2690.0,-4.3427276862573194e-05
2689.0,-4.3427276862573194e-05
2688.0,-4.3427276862573194e-05
2687.0,-8.685021164911433e-05
2686.0,-0.00013026880522692963
2685.0,-0.00017368305846510168
2684.0,-0.00017368305846510168
2683.0,-0.00017368305846510168
2682.0,-0.00013026880522692963
2681.0,-8.685021164911433e-05
2680.0,-4.3427276862573194e-05
2679.0,0.0
2678.0,0.0
2677.0,-4.3427276862573194e-05
2676.0,-0.00013026880522692963
2675.0,-0.00017368305846510168
2674.0,-0.0002604985473904087
2673.0,-0.00021709297223004853
2672.0,-0.00017368305846510168
2671.0,-8.685021164911433e-05
2670.0,0.0
2669.0,0.0
2668.0,-4.3427276862573194e-05
2667.0,-8.685021164911433e-05
2666.0,-8.685021164911433e-05
2665.0,-4.3427276862573194e-05
2664.0,0.0
2663.0,4.343161980746579e-05
2662.0,8.686758342868472e-05
2661.0,0.00017375254558760211
2660.0,0.00017375254558760211
2659.0,0.0001303078917322953
2658.0,8.686758342868472e-05
2657.0,0.0
2656.0,-4.3427276862573194e-05
2655.0,-8.685021164911433e-05
2654.0,-8.685021164911433e-05
2653.0,-8.685021164911433e-05
2652.0,-8.685021164911433e-05
2651.0,-4.3427276862573194e-05
2650.0,-4.3427276862573194e-05
2649.0,-4.3427276862573194e-05
2648.0,-8.685021164911433e-05
2647.0,-0.00013026880522692963
2646.0,-0.00013026880522692963
2645.0,-8.685021164911433e-05
2644.0,-8.685021164911433e-05
2643.0,-4.3427276862573194e-05
2642.0,-4.3427276862573194e-05
2641.0,-4.3427276862573194e-05
2640.0,0.0
2639.0,0.0
2638.0,0.0
2637.0,0.0
2636.0,-4.3427276862573194e-05
2635.0,-4.3427276862573194e-05
2634.0,0.0
2633.0,4.343161980746579e-05
2632.0,4.343161980746579e-05
2631.0,4.343161980746579e-05
2630.0,0.0
2629.0,-4.3427276862573194e-05
2628.0,-4.3427276862573194e-05
2627.0,-4.3427276862573194e-05
2626.0,0.0
2625.0,-4.3427276862573194e-05
2624.0,-4.3427276862573194e-05
2623.0,-8.685021164911433e-05
2622.0,-8.685021164911433e-05
2621.0,-4.3427276862573194e-05
2620.0,-4.3427276862573194e-05
2619.0,0.0
2618.0,4.343161980746579e-05
2617.0,4.343161980746579e-05
2616.0,4.343161980746579e-05
2615.0,4.343161980746579e-05
2614.0,4.343161980746579e-05
2613.0,8.686758342868472e-05
2612.0,0.0001303078917322953
2611.0,0.00017375254558760211
2610.0,0.00021720154586435392
2609.0,0.00026065489343207737
2608.0,0.00021720154586435392
2607.0,0.00017375254558760211
2606.0,8.686758342868472e-05
2605.0,4.343161980746579e-05
2604.0,0.0
2603.0,4.343161980746579e-05
2602.0,8.686758342868472e-05
2601.0,8.686758342868472e-05
2600.0,8.686758342868472e-05
2599.0,4.343161980746579e-05
2598.0,-4.3427276862573194e-05
2597.0,-4.3427276862573194e-05
2596.0,0.0
2595.0,4.343161980746579e-05
2594.0,8.686758342868472e-05
2593.0,8.686758342868472e-05
2592.0,8.686758342868472e-05
2591.0,4.343161980746579e-05
2590.0,4.343161980746579e-05
2589.0,4.343161980746579e-05
2588.0,4.343161980746579e-05
2587.0,4.343161980746579e-05
2586.0,4.343161980746579e-05
2585.0,4.343161980746579e-05
2584.0,4.343161980746579e-05
2583.0,0.0
2582.0,0.0
2581.0,0.0
2580.0,4.343161980746579e-05
2579.0,0.0001303078917322953
2578.0,0.00017375254558760211
2577.0,0.00017375254558760211
2576.0,0.0001303078917322953
2575.0,0.0
2574.0,-8.685021164911433e-05
2573.0,-0.00017368305846510168
2572.0,-0.00021709297223004853
2571.0,-0.00021709297223004853
2570.0,-0.00013026880522692963
2569.0,-8.685021164911433e-05
2568.0,-8.685021164911433e-05
2567.0,-4.3427276862573194e-05
2566.0,-4.3427276862573194e-05
2565.0,-4.3427276862573194e-05
2564.0,-4.3427276862573194e-05
2563.0,-4.3427276862573194e-05
2562.0,-4.3427276862573194e-05
2561.0,-4.3427276862573194e-05
2560.0,-4.3427276862573194e-05
2559.0,-4.3427276862573194e-05
2558.0,-4.3427276862573194e-05
2557.0,-4.3427276862573194e-05
2556.0,0.0
2555.0,4.343161980746579e-05
2554.0,8.686758342868472e-05
2553.0,4.343161980746579e-05
2552.0,0.0
2551.0,-4.3427276862573194e-05
2550.0,-4.3427276862573194e-05
2549.0,-4.3427276862573194e-05
2548.0,0.0
2547.0,4.343161980746579e-05
2546.0,0.0001303078917322953
2545.0,0.00017375254558760211
2544.0,0.00017375254558760211
2543.0,8.686758342868472e-05
2542.0,4.343161980746579e-05
2541.0,0.0
2540.0,0.0
2539.0,4.343161980746579e-05
2538.0,4.343161980746579e-05
2537.0,4.343161980746579e-05
2536.0,4.343161980746579e-05
2535.0,4.343161980746579e-05
2534.0,0.0
2533.0,0.0
2532.0,-4.3427276862573194e-05
2531.0,-8.685021164911433e-05
2530.0,-8.685021164911433e-05
2529.0,-4.3427276862573194e-05
2528.0,0.0
2527.0,8.686758342868472e-05
2526.0,0.0001303078917322953
2525.0,0.0001303078917322953
2524.0,8.686758342868472e-05
2523.0,4.343161980746579e-05
2522.0,0.0
2521.0,0.0
2520.0,0.0
2519.0,4.343161980746579e-05
2518.0,8.686758342868472e-05
2517.0,8.686758342868472e-05
2516.0,8.686758342868472e-05
2515.0,4.343161980746579e-05
2514.0,4.343161980746579e-05
2513.0,0.0
2512.0,-4.3427276862573194e-05
2511.0,-8.685021164911433e-05
2510.0,-4.3427276862573194e-05
2509.0,-4.3427276862573194e-05
2508.0,0.0
2507.0,0.0
2506.0,0.0
2505.0,0.0
2504.0,4.343161980746579e-05
2503.0,4.343161980746579e-05
2502.0,8.686758342868472e-05
2501.0,0.0001303078917322953
2500.0,0.00017375254558760211
2499.0,0.00017375254558760211
2498.0,0.00017375254558760211
2497.0,0.0001303078917322953
2496.0,0.0001303078917322953
2495.0,8.686758342868472e-05
2494.0,8.686758342868472e-05
2493.0,4.343161980746579e-05
2492.0,0.0
2491.0,-4.3427276862573194e-05
2490.0,-4.3427276862573194e-05
2489.0,0.0
2488.0,4.343161980746579e-05
2487.0,4.343161980746579e-05
2486.0,4.343161980746579e-05
2485.0,0.0
2484.0,0.0
2483.0,0.0
2482.0,4.343161980746579e-05
2481.0,4.343161980746579e-05
2480.0,8.686758342868472e-05
2479.0,0.0001303078917322953
2478.0,0.00017375254558760211
2477.0,0.00017375254558760211
2476.0,0.00017375254558760211
2475.0,0.00017375254558760211
2474.0,0.00017375254558760211
2473.0,0.0001303078917322953
2472.0,4.343161980746579e-05
2471.0,4.343161980746579e-05
2470.0,4.343161980746579e-05
2469.0,4.343161980746579e-05
2468.0,4.343161980746579e-05
2467.0,0.0
2466.0,-4.3427276862573194e-05
2465.0,-8.685021164911433e-05
2464.0,-0.00013026880522692963
2463.0,-0.00013026880522692963
2462.0,-0.00013026880522692963
2461.0,-8.685021164911433e-05
2460.0,-4.3427276862573194e-05
2459.0,0.0
2458.0,8.686758342868472e-05
2457.0,8.686758342868472e-05
2456.0,8.686758342868472e-05
2455.0,8.686758342868472e-05
2454.0,8.686758342868472e-05
2453.0,8.686758342868472e-05
2452.0,4.343161980746579e-05
2451.0,0.0
2450.0,-4.3427276862573194e-05
2449.0,-4.3427276862573194e-05
2448.0,-4.3427276862573194e-05
2447.0,0.0
2446.0,4.343161980746579e-05
2445.0,8.686758342868472e-05
2444.0,8.686758342868472e-05
2443.0,4.343161980746579e-05
2442.0,0.0
2441.0,-4.3427276862573194e-05
2440.0,-4.3427276862573194e-05
2439.0,-4.3427276862573194e-05
2438.0,-4.3427276862573194e-05
2437.0,-8.685021164911433e-05
2436.0,-0.00013026880522692963
2435.0,-8.685021164911433e-05
2434.0,-4.3427276862573194e-05
2433.0,4.343161980746579e-05
2432.0,8.686758342868472e-05
2431.0,8.686758342868472e-05
2430.0,8.686758342868472e-05
2429.0,4.343161980746579e-05
2428.0,4.343161980746579e-05
2427.0,4.343161980746579e-05
2426.0,4.343161980746579e-05
2425.0,4.343161980746579e-05
2424.0,0.0
2423.0,-4.3427276862573194e-05
2422.0,0.0
2421.0,0.0
2420.0,4.343161980746579e-05
2419.0,4.343161980746579e-05
2418.0,4.343161980746579e-05
2417.0,8.686758342868472e-05
2416.0,8.686758342868472e-05
2415.0,8.686758342868472e-05
2414.0,4.343161980746579e-05
2413.0,4.343161980746579e-05
2412.0,0.0
2411.0,-4.3427276862573194e-05
2410.0,-4.3427276862573194e-05
2409.0,0.0
2408.0,0.0
2407.0,0.0
2406.0,0.0
2405.0,-4.3427276862573194e-05
2404.0,-4.3427276862573194e-05
2403.0,-8.685021164911433e-05
2402.0,-8.685021164911433e-05
2401.0,-8.685021164911433e-05
2400.0,-4.3427276862573194e-05
2399.0,0.0
2398.0,8.686758342868472e-05
2397.0,0.00017375254558760211
2396.0,0.00021720154586435392
2395.0,0.00021720154586435392
2394.0,0.00017375254558760211
2393.0,0.0001303078917322953
2392.0,8.686758342868472e-05
2391.0,8.686758342868472e-05
2390.0,0.0001303078917322953
2389.0,0.0001303078917322953
2388.0,0.0001303078917322953
2387.0,0.00017375254558760211
2386.0,0.00021720154586435392
2385.0,0.00030411258916074324
2384.0,0.00043451177401765406
2383.0,0.0005649501236701937
2382.0,0.0006084382809090627
2381.0,0.0006084382809090627
2380.0,0.0005649501236701937
2379.0,0.000521466320689834
2378.0,0.000521466320689834
2377.0,0.0005649501236701937
2376.0,0.0005649501236701937
2375.0,0.000521466320689834
2374.0,0.0003910410285830057
2373.0,0.0003475746339209884
2372.0,0.0003910410285830057
2371.0,0.000521466320689834
2370.0,0.0006954276616513155
2369.0,0.0008259444115150671
2368.0,0.0010000277816797354
2367.0,0.0011306361176557367
2366.0,0.0013919706849057079
2365.0,0.001609869681952425
2364.0,0.0017406615763013722
2363.0,0.0016970599014589638
2362.0,0.0013919706849057079
2361.0,0.0008259444115150671
2360.0,0.00021720154586435392
2359.0,-0.00017368305846510168
2358.0,-8.685021164911433e-05
2357.0,0.0003910410285830057
2356.0,0.0007389288868995258
2355.0,0.0009565003968372565
2354.0,0.0010870956412141197
2353.0,0.0012177301682640973
2352.0,0.0012612837441823288
2351.0,0.0011741809597138886
2350.0,0.0011306361176557367
2349.0,0.0010870956412141197
2348.0,0.0010870956412141197
2347.0,0.0010870956412141197
2346.0,0.0011306361176557367
2345.0,0.0012177301682640973
2344.0,0.0012177301682640973
2343.0,0.0011306361176557367
2342.0,0.0010000277816797354
2341.0,0.0010000277816797354
2340.0,0.0010870956412141197
2339.0,0.0010870956412141197
2338.0,0.0010435595295137379
2337.0,0.0010435595295137379
2336.0,0.0012612837441823288
2335.0,0.0015226969634936083
2334.0,0.001609869681952425
2333.0,0.001348404001626502
2332.0,0.0009565003968372565
2331.0,0.0006954276616513155
2330.0,0.0007389288868995258
2329.0,0.0010435595295137379
2328.0,0.0014355417390583547
2327.0,0.0016534626036355249
2326.0,0.0015662811355310335
2325.0,0.001304841688344327
2324.0,0.0010870956412141197
2323.0,0.0010000277816797354
2322.0,0.0009565003968372565
2321.0,0.0009129773741116676
2320.0,0.0009565003968372565
2319.0,0.0010000277816797354
2318.0,0.0010435595295137379
2317.0,0.0010000277816797354
2316.0,0.0009129773741116676
2315.0,0.0008259444115150671
2314.0,0.0007389288868995258
2313.0,0.0006954276616513155
2312.0,0.0006954276616513155
2311.0,0.0006954276616513155
2310.0,0.0007389288868995258
2309.0,0.0007389288868995258
2308.0,0.0006954276616513155
2307.0,0.0006084382809090627
2306.0,0.000521466320689834
2305.0,0.0004779868710962365
2304.0,0.000521466320689834
2303.0,0.0006084382809090627
2302.0,0.0006519307932786322
2301.0,0.0006954276616513155
2300.0,0.0006954276616513155
2299.0,0.0006519307932786322
2298.0,0.0006519307932786322
2297.0,0.0006084382809090627
2296.0,0.0006084382809090627
2295.0,0.0005649501236701937
2294.0,0.0004779868710962365
2293.0,0.00043451177401765406
2292.0,0.0003910410285830057
2291.0,0.0003910410285830057
2290.0,0.0003475746339209884
2289.0,0.00026065489343207737
2288.0,0.00017375254558760211
2287.0,0.0001303078917322953
2286.0,8.686758342868472e-05
2285.0,8.686758342868472e-05
2284.0,8.686758342868472e-05
2283.0,8.686758342868472e-05
2282.0,8.686758342868472e-05
2281.0,4.343161980746579e-05
2280.0,4.343161980746579e-05
2279.0,4.343161980746579e-05
2278.0,8.686758342868472e-05
2277.0,8.686758342868472e-05
2276.0,8.686758342868472e-05
2275.0,4.343161980746579e-05
2274.0,4.343161980746579e-05
2273.0,4.343161980746579e-05
2272.0,8.686758342868472e-05
2271.0,8.686758342868472e-05
2270.0,8.686758342868472e-05
2269.0,4.343161980746579e-05
2268.0,4.343161980746579e-05
2267.0,0.0
2266.0,4.343161980746579e-05
2265.0,0.00017375254558760211
2264.0,0.00026065489343207737
2263.0,0.0003475746339209884
2262.0,0.0003475746339209884
2261.0,0.00030411258916074324
2260.0,0.00026065489343207737
2259.0,0.00017375254558760211
2258.0,0.00017375254558760211
2257.0,0.0001303078917322953
2256.0,0.0001303078917322953
2255.0,8.686758342868472e-05
2254.0,0.0
2253.0,-4.3427276862573194e-05
2252.0,-4.3427276862573194e-05
2251.0,-8.685021164911433e-05
2250.0,-8.685021164911433e-05
2249.0,-4.3427276862573194e-05
2248.0,-4.3427276862573194e-05
2247.0,-4.3427276862573194e-05
2246.0,-4.3427276862573194e-05
2245.0,-4.3427276862573194e-05
2244.0,-4.3427276862573194e-05
2243.0,0.0
2242.0,4.343161980746579e-05
2241.0,8.686758342868472e-05
2240.0,8.686758342868472e-05
2239.0,8.686758342868472e-05
2238.0,0.0
2237.0,0.0
2236.0,0.0
2235.0,4.343161980746579e-05
2234.0,8.686758342868472e-05
2233.0,0.0001303078917322953
2232.0,0.0001303078917322953
2231.0,0.0001303078917322953
2230.0,0.0001303078917322953
2229.0,8.686758342868472e-05
2228.0,4.343161980746579e-05
2227.0,-4.3427276862573194e-05
2226.0,-4.3427276862573194e-05
2225.0,-4.3427276862573194e-05
2224.0,0.0
2223.0,0.0
2222.0,0.0
2221.0,0.0
2220.0,4.343161980746579e-05
2219.0,8.686758342868472e-05
2218.0,0.00017375254558760211
2217.0,0.00021720154586435392
2216.0,0.00021720154586435392
2215.0,0.00017375254558760211
2214.0,8.686758342868472e-05
2213.0,0.0
2212.0,-4.3427276862573194e-05
2211.0,-8.685021164911433e-05
2210.0,-8.685021164911433e-05
2209.0,-4.3427276862573194e-05
2208.0,0.0
2207.0,4.343161980746579e-05
2206.0,4.343161980746579e-05
2205.0,8.686758342868472e-05
2204.0,8.686758342868472e-05
2203.0,8.686758342868472e-05
2202.0,4.343161980746579e-05
2201.0,4.343161980746579e-05
2200.0,4.343161980746579e-05
2199.0,4.343161980746579e-05
2198.0,8.686758342868472e-05
2197.0,8.686758342868472e-05
2196.0,8.686758342868472e-05
2195.0,4.343161980746579e-05
2194.0,4.343161980746579e-05
2193.0,-4.3427276862573194e-05
2192.0,-8.685021164911433e-05
2191.0,-8.685021164911433e-05
2190.0,-4.3427276862573194e-05
2189.0,4.343161980746579e-05
2188.0,8.686758342868472e-05
2187.0,8.686758342868472e-05
2186.0,4.343161980746579e-05
2185.0,-4.3427276862573194e-05
2184.0,-8.685021164911433e-05
2183.0,-8.685021164911433e-05
2182.0,-8.685021164911433e-05
2181.0,-8.685021164911433e-05
2180.0,-8.685021164911433e-05
2179.0,-4.3427276862573194e-05
2178.0,-4.3427276862573194e-05
2177.0,0.0
2176.0,4.343161980746579e-05
2175.0,4.343161980746579e-05
2174.0,4.343161980746579e-05
2173.0,4.343161980746579e-05
2172.0,8.686758342868472e-05
2171.0,8.686758342868472e-05
2170.0,4.343161980746579e-05
2169.0,0.0
2168.0,-4.3427276862573194e-05
2167.0,-4.3427276862573194e-05
2166.0,-4.3427276862573194e-05
2165.0,0.0
2164.0,0.0
2163.0,0.0
2162.0,0.0
2161.0,0.0
2160.0,0.0
2159.0,4.343161980746579e-05
2158.0,4.343161980746579e-05
2157.0,8.686758342868472e-05
2156.0,4.343161980746579e-05
2155.0,4.343161980746579e-05
2154.0,0.0
2153.0,-4.3427276862573194e-05
2152.0,-4.3427276862573194e-05
2151.0,-4.3427276862573194e-05
2150.0,-8.685021164911433e-05
2149.0,-8.685021164911433e-05
2148.0,-0.00013026880522692963
2147.0,-0.00013026880522692963
2146.0,-8.685021164911433e-05
2145.0,-8.685021164911433e-05
2144.0,-8.685021164911433e-05
2143.0,-4.3427276862573194e-05
2142.0,-4.3427276862573194e-05
2141.0,-4.3427276862573194e-05
2140.0,-4.3427276862573194e-05
2139.0,-4.3427276862573194e-05
2138.0,-4.3427276862573194e-05
2137.0,-4.3427276862573194e-05
2136.0,-4.3427276862573194e-05
2135.0,-8.685021164911433e-05
2134.0,-0.00013026880522692963
2133.0,-0.00013026880522692963
2132.0,-0.00017368305846510168
2131.0,-0.00013026880522692963
2130.0,-0.00013026880522692963
2129.0,-8.685021164911433e-05
2128.0,-8.685021164911433e-05
2127.0,-8.685021164911433e-05
2126.0,-4.3427276862573194e-05
2125.0,-4.3427276862573194e-05
2124.0,0.0
2123.0,0.0
2122.0,4.343161980746579e-05
2121.0,4.343161980746579e-05
2120.0,4.343161980746579e-05
2119.0,8.686758342868472e-05
2118.0,8.686758342868472e-05
2117.0,8.686758342868472e-05
2116.0,8.686758342868472e-05
2115.0,4.343161980746579e-05
2114.0,0.0
2113.0,-4.3427276862573194e-05
2112.0,0.0
2111.0,0.0
2110.0,4.343161980746579e-05
2109.0,4.343161980746579e-05
2108.0,8.686758342868472e-05
2107.0,0.0001303078917322953
2106.0,0.0001303078917322953
2105.0,0.0001303078917322953
2104.0,8.686758342868472e-05
2103.0,8.686758342868472e-05
2102.0,4.343161980746579e-05
2101.0,8.686758342868472e-05
2100.0,0.0001303078917322953
2099.0,0.0001303078917322953
2098.0,0.0001303078917322953
2097.0,4.343161980746579e-05
2096.0,0.0
2095.0,-4.3427276862573194e-05
2094.0,0.0
2093.0,4.343161980746579e-05
2092.0,8.686758342868472e-05
2091.0,8.686758342868472e-05
2090.0,4.343161980746579e-05
2089.0,4.343161980746579e-05
2088.0,4.343161980746579e-05
2087.0,8.686758342868472e-05
2086.0,8.686758342868472e-05
2085.0,8.686758342868472e-05
2084.0,4.343161980746579e-05
2083.0,0.0
2082.0,-4.3427276862573194e-05
2081.0,-4.3427276862573194e-05
2080.0,-4.3427276862573194e-05
2079.0,-4.3427276862573194e-05
2078.0,-4.3427276862573194e-05
2077.0,-4.3427276862573194e-05
2076.0,-4.3427276862573194e-05
2075.0,-4.3427276862573194e-05
2074.0,-4.3427276862573194e-05
2073.0,-4.3427276862573194e-05
2072.0,-8.685021164911433e-05
2071.0,-8.685021164911433e-05
2070.0,-8.685021164911433e-05
2069.0,-4.3427276862573194e-05
2068.0,-4.3427276862573194e-05
2067.0,0.0
2066.0,-4.3427276862573194e-05
2065.0,-4.3427276862573194e-05
2064.0,-4.3427276862573194e-05
2063.0,-4.3427276862573194e-05
2062.0,-4.3427276862573194e-05
2061.0,0.0
2060.0,0.0
2059.0,0.0
2058.0,-4.3427276862573194e-05
2057.0,-4.3427276862573194e-05
2056.0,-4.3427276862573194e-05
2055.0,-4.3427276862573194e-05
2054.0,0.0
2053.0,0.0
2052.0,0.0
2051.0,0.0
2050.0,4.343161980746579e-05
2049.0,8.686758342868472e-05
2048.0,8.686758342868472e-05
2047.0,8.686758342868472e-05
2046.0,0.0001303078917322953
2045.0,0.00017375254558760211
2044.0,0.00017375254558760211
2043.0,0.0001303078917322953
2042.0,8.686758342868472e-05
2041.0,4.343161980746579e-05
2040.0,0.0
2039.0,0.0
2038.0,4.343161980746579e-05
2037.0,8.686758342868472e-05
2036.0,0.0001303078917322953
2035.0,0.0001303078917322953
2034.0,8.686758342868472e-05
2033.0,4.343161980746579e-05
2032.0,-4.3427276862573194e-05
2031.0,-4.3427276862573194e-05
2030.0,-4.3427276862573194e-05
2029.0,0.0
2028.0,4.343161980746579e-05
2027.0,4.343161980746579e-05
2026.0,4.343161980746579e-05
2025.0,4.343161980746579e-05
2024.0,4.343161980746579e-05
2023.0,4.343161980746579e-05
2022.0,4.343161980746579e-05
2021.0,4.343161980746579e-05
2020.0,8.686758342868472e-05
2019.0,8.686758342868472e-05
2018.0,8.686758342868472e-05
2017.0,8.686758342868472e-05
2016.0,4.343161980746579e-05
2015.0,0.0
2014.0,-4.3427276862573194e-05
2013.0,-4.3427276862573194e-05
2012.0,-4.3427276862573194e-05
2011.0,-4.3427276862573194e-05
2010.0,-8.685021164911433e-05
2009.0,-0.00013026880522692963
2008.0,-0.00017368305846510168
2007.0,-0.00013026880522692963
2006.0,-8.685021164911433e-05
2005.0,-4.3427276862573194e-05
2004.0,-4.3427276862573194e-05
2003.0,0.0
2002.0,0.0
2001.0,-4.3427276862573194e-05
2000.0,-4.3427276862573194e-05
1999.0,-4.3427276862573194e-05
1998.0,-4.3427276862573194e-05
1997.0,-4.3427276862573194e-05
1996.0,-4.3427276862573194e-05
1995.0,-4.3427276862573194e-05
1994.0,-4.3427276862573194e-05
1993.0,-8.685021164911433e-05
1992.0,-4.3427276862573194e-05
1991.0,0.0
1990.0,4.343161980746579e-05
1989.0,8.686758342868472e-05
1988.0,8.686758342868472e-05
1987.0,4.343161980746579e-05
1986.0,4.343161980746579e-05
1985.0,4.343161980746579e-05
1984.0,8.686758342868472e-05
1983.0,8.686758342868472e-05
1982.0,8.686758342868472e-05
1981.0,8.686758342868472e-05
1980.0,8.686758342868472e-05
1979.0,8.686758342868472e-05
1978.0,8.686758342868472e-05
1977.0,0.0001303078917322953
1976.0,8.686758342868472e-05
1975.0,8.686758342868472e-05
1974.0,4.343161980746579e-05
1973.0,0.0
1972.0,0.0
1971.0,0.0
1970.0,0.0
1969.0,0.0
1968.0,0.0
1967.0,0.0
1966.0,0.0
1965.0,0.0
1964.0,0.0
1963.0,-4.3427276862573194e-05
1962.0,0.0
1961.0,0.0
1960.0,4.343161980746579e-05
1959.0,8.686758342868472e-05
1958.0,0.0001303078917322953
1957.0,0.0001303078917322953
1956.0,0.0001303078917322953
1955.0,8.686758342868472e-05
1954.0,8.686758342868472e-05
1953.0,4.343161980746579e-05
1952.0,0.0
1951.0,0.0
1950.0,0.0
1949.0,4.343161980746579e-05
1948.0,8.686758342868472e-05
1947.0,0.0001303078917322953
1946.0,0.0001303078917322953
1945.0,0.0001303078917322953
1944.0,0.0001303078917322953
1943.0,4.343161980746579e-05
1942.0,0.0
1941.0,-4.3427276862573194e-05
1940.0,-8.685021164911433e-05
1939.0,-8.685021164911433e-05
1938.0,-4.3427276862573194e-05
1937.0,0.0
1936.0,4.343161980746579e-05
1935.0,4.343161980746579e-05
1934.0,4.343161980746579e-05
1933.0,4.343161980746579e-05
1932.0,4.343161980746579e-05
1931.0,4.343161980746579e-05
1930.0,8.686758342868472e-05
1929.0,0.0001303078917322953
1928.0,0.00017375254558760211
1927.0,0.00017375254558760211
1926.0,0.00017375254558760211
1925.0,0.0001303078917322953
1924.0,8.686758342868472e-05
1923.0,8.686758342868472e-05
1922.0,8.686758342868472e-05
1921.0,8.686758342868472e-05
1920.0,0.0001303078917322953
1919.0,0.00017375254558760211
1918.0,0.00021720154586435392
1917.0,0.00021720154586435392
1916.0,0.0001303078917322953
1915.0,4.343161980746579e-05
1914.0,0.0
1913.0,-4.3427276862573194e-05
1912.0,-4.3427276862573194e-05
1911.0,0.0
1910.0,0.0
1909.0,0.0
1908.0,0.0
1907.0,0.0
1906.0,0.0
1905.0,4.343161980746579e-05
1904.0,4.343161980746579e-05
1903.0,8.686758342868472e-05
1902.0,8.686758342868472e-05
1901.0,0.0001303078917322953
1900.0,0.0001303078917322953
1899.0,0.0001303078917322953
1898.0,0.00017375254558760211
1897.0,0.00017375254558760211
1896.0,0.0001303078917322953
1895.0,8.686758342868472e-05
1894.0,4.343161980746579e-05
1893.0,4.343161980746579e-05
1892.0,0.0
1891.0,0.0
1890.0,0.0
1889.0,0.0
1888.0,0.0
1887.0,4.343161980746579e-05
1886.0,4.343161980746579e-05
1885.0,4.343161980746579e-05
1884.0,8.686758342868472e-05
1883.0,8.686758342868472e-05
1882.0,8.686758342868472e-05
1881.0,8.686758342868472e-05
1880.0,8.686758342868472e-05
1879.0,0.0001303078917322953
1878.0,0.00021720154586435392
1877.0,0.00021720154586435392
1876.0,0.00021720154586435392
1875.0,0.00017375254558760211
1874.0,8.686758342868472e-05
1873.0,8.686758342868472e-05
1872.0,8.686758342868472e-05
1871.0,4.343161980746579e-05
1870.0,4.343161980746579e-05
1869.0,0.0
1868.0,0.0
1867.0,4.343161980746579e-05
1866.0,4.343161980746579e-05
1865.0,8.686758342868472e-05
1864.0,8.686758342868472e-05
1863.0,0.0001303078917322953
1862.0,0.0001303078917322953
1861.0,0.0001303078917322953
1860.0,8.686758342868472e-05
1859.0,8.686758342868472e-05
1858.0,8.686758342868472e-05
1857.0,8.686758342868472e-05
1856.0,8.686758342868472e-05
1855.0,8.686758342868472e-05
1854.0,8.686758342868472e-05
1853.0,4.343161980746579e-05
1852.0,4.343161980746579e-05
1851.0,0.0
1850.0,0.0
1849.0,-4.3427276862573194e-05
1848.0,-4.3427276862573194e-05
1847.0,0.0
1846.0,4.343161980746579e-05
1845.0,0.0001303078917322953
1844.0,0.0001303078917322953
1843.0,8.686758342868472e-05
1842.0,4.343161980746579e-05
1841.0,4.343161980746579e-05
1840.0,4.343161980746579e-05
1839.0,8.686758342868472e-05
1838.0,8.686758342868472e-05
1837.0,8.686758342868472e-05
1836.0,4.343161980746579e-05
1835.0,0.0
1834.0,-4.3427276862573194e-05
1833.0,-4.3427276862573194e-05
1832.0,0.0
1831.0,4.343161980746579e-05
1830.0,8.686758342868472e-05
1829.0,0.0001303078917322953
1828.0,0.00017375254558760211
1827.0,0.00017375254558760211
1826.0,0.00017375254558760211
1825.0,0.00017375254558760211
1824.0,0.0001303078917322953
1823.0,8.686758342868472e-05
1822.0,8.686758342868472e-05
1821.0,8.686758342868472e-05
1820.0,4.343161980746579e-05
1819.0,4.343161980746579e-05
1818.0,0.0
1817.0,0.0
1816.0,4.343161980746579e-05
1815.0,8.686758342868472e-05
1814.0,0.0001303078917322953
1813.0,0.00017375254558760211
1812.0,0.00017375254558760211
1811.0,0.00021720154586435392
1810.0,0.00017375254558760211
1809.0,0.00017375254558760211
1808.0,0.00017375254558760211
1807.0,0.0001303078917322953
1806.0,0.0001303078917322953
1805.0,0.0001303078917322953
1804.0,8.686758342868472e-05
1803.0,4.343161980746579e-05
1802.0,0.0
1801.0,-4.3427276862573194e-05
1800.0,-4.3427276862573194e-05
1799.0,0.0
1798.0,4.343161980746579e-05
1797.0,0.0001303078917322953
1796.0,0.00017375254558760211
1795.0,0.00021720154586435392
1794.0,0.00017375254558760211
1793.0,0.0001303078917322953
1792.0,4.343161980746579e-05
1791.0,0.0
1790.0,4.343161980746579e-05
1789.0,8.686758342868472e-05
1788.0,8.686758342868472e-05
1787.0,8.686758342868472e-05
1786.0,8.686758342868472e-05
1785.0,8.686758342868472e-05
1784.0,8.686758342868472e-05
1783.0,8.686758342868472e-05
1782.0,8.686758342868472e-05
1781.0,8.686758342868472e-05
1780.0,8.686758342868472e-05
1779.0,8.686758342868472e-05
1778.0,8.686758342868472e-05
1777.0,8.686758342868472e-05
1776.0,8.686758342868472e-05
1775.0,8.686758342868472e-05
1774.0,0.0001303078917322953
1773.0,0.00017375254558760211
1772.0,0.00017375254558760211
1771.0,0.00017375254558760211
1770.0,0.0001303078917322953
1769.0,0.0001303078917322953
1768.0,0.0001303078917322953
1767.0,0.0001303078917322953
1766.0,8.686758342868472e-05
1765.0,8.686758342868472e-05
1764.0,4.343161980746579e-05
1763.0,8.686758342868472e-05
1762.0,8.686758342868472e-05
1761.0,4.343161980746579e-05
1760.0,0.0
1759.0,0.0
1758.0,4.343161980746579e-05
1757.0,8.686758342868472e-05
1756.0,0.00017375254558760211
1755.0,0.00017375254558760211
1754.0,0.00017375254558760211
1753.0,0.00017375254558760211
1752.0,0.00017375254558760211
1751.0,0.00017375254558760211
1750.0,0.0001303078917322953
1749.0,8.686758342868472e-05
1748.0,8.686758342868472e-05
1747.0,8.686758342868472e-05
1746.0,8.686758342868472e-05
1745.0,8.686758342868472e-05
1744.0,8.686758342868472e-05
1743.0,4.343161980746579e-05
1742.0,4.343161980746579e-05
1741.0,4.343161980746579e-05
1740.0,4.343161980746579e-05
1739.0,8.686758342868472e-05
1738.0,4.343161980746579e-05
1737.0,4.343161980746579e-05
1736.0,0.0
1735.0,-4.3427276862573194e-05
1734.0,0.0
1733.0,8.686758342868472e-05
1732.0,8.686758342868472e-05
1731.0,8.686758342868472e-05
1730.0,8.686758342868472e-05
1729.0,8.686758342868472e-05
1728.0,8.686758342868472e-05
1727.0,8.686758342868472e-05
1726.0,8.686758342868472e-05
1725.0,8.686758342868472e-05
1724.0,4.343161980746579e-05
1723.0,0.0
1722.0,0.0
1721.0,0.0
1720.0,4.343161980746579e-05
1719.0,4.343161980746579e-05
1718.0,4.343161980746579e-05
1717.0,4.343161980746579e-05
1716.0,4.343161980746579e-05
1715.0,8.686758342868472e-05
1714.0,0.0001303078917322953
1713.0,0.0001303078917322953
1712.0,0.0001303078917322953
1711.0,8.686758342868472e-05
1710.0,8.686758342868472e-05
1709.0,0.0001303078917322953
1708.0,0.0001303078917322953
1707.0,0.0001303078917322953
1706.0,0.0001303078917322953
1705.0,8.686758342868472e-05
1704.0,4.343161980746579e-05
1703.0,0.0
1702.0,-4.3427276862573194e-05
1701.0,-8.685021164911433e-05
1700.0,-0.00013026880522692963
1699.0,-8.685021164911433e-05
1698.0,0.0
1697.0,0.0001303078917322953
1696.0,0.00021720154586435392
1695.0,0.0001303078917322953
1694.0,0.0
1693.0,-4.3427276862573194e-05
1692.0,-4.3427276862573194e-05
1691.0,0.0
1690.0,8.686758342868472e-05
1689.0,0.0001303078917322953
1688.0,0.00017375254558760211
1687.0,0.00017375254558760211
1686.0,0.00026065489343207737
1685.0,0.00026065489343207737
1684.0,0.00026065489343207737
1683.0,0.00017375254558760211
1682.0,0.0001303078917322953
1681.0,0.0001303078917322953
1680.0,0.00017375254558760211
1679.0,0.00017375254558760211
1678.0,0.00017375254558760211
1677.0,0.0001303078917322953
1676.0,8.686758342868472e-05
1675.0,8.686758342868472e-05
1674.0,0.0001303078917322953
1673.0,0.0001303078917322953
1672.0,8.686758342868472e-05
1671.0,8.686758342868472e-05
1670.0,8.686758342868472e-05
1669.0,0.0001303078917322953
1668.0,0.00017375254558760211
1667.0,0.0001303078917322953
1666.0,8.686758342868472e-05
1665.0,4.343161980746579e-05
1664.0,8.686758342868472e-05
1663.0,8.686758342868472e-05
1662.0,8.686758342868472e-05
1661.0,4.343161980746579e-05
1660.0,4.343161980746579e-05
1659.0,4.343161980746579e-05
1658.0,4.343161980746579e-05
1657.0,8.686758342868472e-05
1656.0,8.686758342868472e-05
1655.0,4.343161980746579e-05
1654.0,0.0
1653.0,0.0
1652.0,0.0
1651.0,0.0
1650.0,-4.3427276862573194e-05
1649.0,0.0
1648.0,4.343161980746579e-05
1647.0,0.0001303078917322953
1646.0,0.0001303078917322953
1645.0,0.0001303078917322953
1644.0,8.686758342868472e-05
1643.0,0.0
1642.0,-4.3427276862573194e-05
1641.0,-4.3427276862573194e-05
1640.0,-4.3427276862573194e-05
1639.0,-4.3427276862573194e-05
1638.0,-4.3427276862573194e-05
1637.0,-4.3427276862573194e-05
1636.0,-4.3427276862573194e-05
1635.0,0.0
1634.0,4.343161980746579e-05
1633.0,4.343161980746579e-05
1632.0,4.343161980746579e-05
1631.0,0.0
1630.0,0.0
1629.0,0.0
1628.0,0.0
1627.0,4.343161980746579e-05
1626.0,4.343161980746579e-05
1625.0,4.343161980746579e-05
1624.0,0.0
1623.0,-4.3427276862573194e-05
1622.0,-4.3427276862573194e-05
1621.0,0.0
1620.0,4.343161980746579e-05
1619.0,4.343161980746579e-05
1618.0,8.686758342868472e-05
1617.0,0.00017375254558760211
1616.0,0.00017375254558760211
1615.0,0.0001303078917322953
1614.0,4.343161980746579e-05
1613.0,4.343161980746579e-05
1612.0,4.343161980746579e-05
1611.0,4.343161980746579e-05
1610.0,8.686758342868472e-05
1609.0,8.686758342868472e-05
1608.0,8.686758342868472e-05
1607.0,8.686758342868472e-05
1606.0,8.686758342868472e-05
1605.0,0.0001303078917322953
1604.0,8.686758342868472e-05
1603.0,8.686758342868472e-05
1602.0,4.343161980746579e-05
1601.0,4.343161980746579e-05
1600.0,4.343161980746579e-05
1599.0,8.686758342868472e-05
1598.0,8.686758342868472e-05
1597.0,8.686758342868472e-05
1596.0,4.343161980746579e-05
1595.0,0.0
1594.0,0.0
1593.0,0.0
1592.0,0.0
1591.0,0.0
1590.0,0.0
1589.0,4.343161980746579e-05
1588.0,8.686758342868472e-05
1587.0,8.686758342868472e-05
1586.0,8.686758342868472e-05
1585.0,4.343161980746579e-05
1584.0,4.343161980746579e-05
1583.0,4.343161980746579e-05
1582.0,8.686758342868472e-05
1581.0,0.0001303078917322953
1580.0,0.0001303078917322953
1579.0,0.00017375254558760211
1578.0,0.00017375254558760211
1577.0,0.00017375254558760211
1576.0,0.00017375254558760211
1575.0,0.0001303078917322953
1574.0,8.686758342868472e-05
1573.0,4.343161980746579e-05
1572.0,4.343161980746579e-05
1571.0,4.343161980746579e-05
1570.0,0.0001303078917322953
1569.0,0.00021720154586435392
1568.0,0.00017375254558760211
1567.0,0.0001303078917322953
1566.0,4.343161980746579e-05
1565.0,0.0
1564.0,0.0
1563.0,4.343161980746579e-05
1562.0,4.343161980746579e-05
1561.0,0.0
1560.0,-0.00017368305846510168
1559.0,-0.00043407747931878404
1558.0,-0.0003906892499099257
1557.0,-0.00017368305846510168
1556.0,0.0
1555.0,8.686758342868472e-05
1554.0,8.686758342868472e-05
1553.0,8.686758342868472e-05
1552.0,4.343161980746579e-05
1551.0,4.343161980746579e-05
1550.0,4.343161980746579e-05
1549.0,4.343161980746579e-05
1548.0,8.686758342868472e-05
1547.0,0.0001303078917322953
1546.0,0.00021720154586435392
1545.0,0.00030411258916074324
1544.0,0.0003475746339209884
1543.0,0.00030411258916074324
1542.0,0.00026065489343207737
1541.0,0.00017375254558760211
1540.0,8.686758342868472e-05
1539.0,4.343161980746579e-05
1538.0,8.686758342868472e-05
1537.0,0.0001303078917322953
1536.0,0.00017375254558760211
1535.0,0.00021720154586435392
1534.0,0.00021720154586435392
1533.0,0.00017375254558760211
1532.0,0.0001303078917322953
1531.0,8.686758342868472e-05
1530.0,0.0001303078917322953
1529.0,0.00017375254558760211
1528.0,0.00021720154586435392
1527.0,0.00026065489343207737
1526.0,0.00026065489343207737
1525.0,0.00017375254558760211
1524.0,0.0001303078917322953
1523.0,8.686758342868472e-05
1522.0,4.343161980746579e-05
1521.0,4.343161980746579e-05
1520.0,4.343161980746579e-05
1519.0,4.343161980746579e-05
1518.0,8.686758342868472e-05
1517.0,0.0001303078917322953
1516.0,0.00017375254558760211
1515.0,0.00017375254558760211
1514.0,0.00017375254558760211
1513.0,0.00017375254558760211
1512.0,0.0001303078917322953
1511.0,0.0001303078917322953
1510.0,8.686758342868472e-05
1509.0,0.0
1508.0,-0.00013026880522692963
1507.0,-0.00017368305846510168
1506.0,-4.3427276862573194e-05
1505.0,8.686758342868472e-05
1504.0,0.0001303078917322953
1503.0,0.0001303078917322953
1502.0,0.00017375254558760211
1501.0,0.00017375254558760211
1500.0,0.00017375254558760211
1499.0,0.0001303078917322953
1498.0,0.0001303078917322953
1497.0,0.00017375254558760211
1496.0,0.00017375254558760211
1495.0,0.00017375254558760211
1494.0,0.00017375254558760211
1493.0,0.00017375254558760211
1492.0,0.00021720154586435392
1491.0,0.00030411258916074324
1490.0,0.0003475746339209884
1489.0,0.0003475746339209884
1488.0,0.00026065489343207737
1487.0,0.00017375254558760211
1486.0,8.686758342868472e-05
1485.0,4.343161980746579e-05
1484.0,0.0
1483.0,0.0
1482.0,0.0
1481.0,0.0
1480.0,0.0
1479.0,0.0
1478.0,0.0
1477.0,4.343161980746579e-05
1476.0,8.686758342868472e-05
1475.0,0.0001303078917322953
1474.0,0.0001303078917322953
1473.0,0.0001303078917322953
1472.0,8.686758342868472e-05
1471.0,-4.3427276862573194e-05
1470.0,-8.685021164911433e-05
1469.0,-0.00013026880522692963
1468.0,-0.00013026880522692963
1467.0,-8.685021164911433e-05
1466.0,-4.3427276862573194e-05
1465.0,0.0
1464.0,8.686758342868472e-05
1463.0,8.686758342868472e-05
1462.0,4.343161980746579e-05
1461.0,0.0
1460.0,0.0
1459.0,0.0
1458.0,0.0
1457.0,0.0
1456.0,0.0
1455.0,0.0
1454.0,-4.3427276862573194e-05
1453.0,0.0
1452.0,0.0
1451.0,4.343161980746579e-05
1450.0,8.686758342868472e-05
1449.0,0.0001303078917322953
1448.0,8.686758342868472e-05
1447.0,4.343161980746579e-05
1446.0,0.0
1445.0,-4.3427276862573194e-05
1444.0,-8.685021164911433e-05
1443.0,-8.685021164911433e-05
1442.0,-4.3427276862573194e-05
1441.0,-4.3427276862573194e-05
1440.0,0.0
1439.0,0.0
1438.0,4.343161980746579e-05
1437.0,0.0001303078917322953
1436.0,0.0001303078917322953
1435.0,8.686758342868472e-05
1434.0,4.343161980746579e-05
1433.0,-4.3427276862573194e-05
1432.0,-8.685021164911433e-05
1431.0,-8.685021164911433e-05
1430.0,-4.3427276862573194e-05
1429.0,-4.3427276862573194e-05
1428.0,-4.3427276862573194e-05
1427.0,-4.3427276862573194e-05
1426.0,0.0
1425.0,4.343161980746579e-05
1424.0,4.343161980746579e-05
1423.0,4.343161980746579e-05
1422.0,0.0
1421.0,-8.685021164911433e-05
1420.0,-0.00013026880522692963
1419.0,-0.00013026880522692963
1418.0,-0.00013026880522692963
1417.0,-0.00017368305846510168
1416.0,-0.00021709297223004853
1415.0,-0.0002604985473904087
1414.0,-0.0003472966853634851
1413.0,-0.0003472966853634851
1412.0,-0.0003472966853634851
1411.0,-0.0003472966853634851
1410.0,-0.00030389978481260016
1409.0,-0.00030389978481260016
1408.0,-0.00030389978481260016
1407.0,-0.0002604985473904087
1406.0,-0.0002604985473904087
1405.0,-0.0002604985473904087
1404.0,-0.0002604985473904087
1403.0,-0.0002604985473904087
1402.0,-0.0002604985473904087
1401.0,-0.00021709297223004853
1400.0,-0.00021709297223004853
1399.0,-0.00017368305846510168
1398.0,-0.00017368305846510168
1397.0,-0.00017368305846510168
1396.0,-0.00017368305846510168
1395.0,-0.00021709297223004853
1394.0,-0.0002604985473904087
1393.0,-0.0002604985473904087
1392.0,-0.0002604985473904087
1391.0,-0.00021709297223004853
1390.0,-0.00021709297223004853
1389.0,-0.00017368305846510168
1388.0,-0.00021709297223004853
1387.0,-0.00021709297223004853
1386.0,-0.00021709297223004853
1385.0,-0.00021709297223004853
1384.0,-0.0002604985473904087
1383.0,-0.0002604985473904087
1382.0,-0.00030389978481260016
1381.0,-0.00030389978481260016
1380.0,-0.0003472966853634851
1379.0,-0.0003472966853634851
1378.0,-0.0003472966853634851
1377.0,-0.0003472966853634851
1376.0,-0.00030389978481260016
1375.0,-0.0002604985473904087
1374.0,-0.00021709297223004853
1373.0,-0.00017368305846510168
1372.0,-0.00013026880522692963
1371.0,-0.00013026880522692963
1370.0,-8.685021164911433e-05
1369.0,-4.3427276862573194e-05
1368.0,0.0
1367.0,0.0
1366.0,0.0
1365.0,0.0
1364.0,0.0
1363.0,0.0
1362.0,0.0
1361.0,-4.3427276862573194e-05
1360.0,-4.3427276862573194e-05
1359.0,0.0
1358.0,4.343161980746579e-05
1357.0,4.343161980746579e-05
1356.0,8.686758342868472e-05
1355.0,8.686758342868472e-05
1354.0,8.686758342868472e-05
1353.0,8.686758342868472e-05
1352.0,8.686758342868472e-05
1351.0,8.686758342868472e-05
1350.0,4.343161980746579e-05
1349.0,0.0
1348.0,0.0
1347.0,0.0
1346.0,0.0
1345.0,4.343161980746579e-05
1344.0,4.343161980746579e-05
1343.0,4.343161980746579e-05
1342.0,4.343161980746579e-05
1341.0,4.343161980746579e-05
1340.0,4.343161980746579e-05
1339.0,8.686758342868472e-05
1338.0,8.686758342868472e-05
1337.0,0.0001303078917322953
1336.0,0.0001303078917322953
1335.0,0.0001303078917322953
1334.0,0.0001303078917322953
1333.0,0.0001303078917322953
1332.0,0.0001303078917322953
1331.0,4.343161980746579e-05
1330.0,0.0
1329.0,0.0
1328.0,0.0
1327.0,0.0
1326.0,4.343161980746579e-05
1325.0,8.686758342868472e-05
1324.0,8.686758342868472e-05
1323.0,8.686758342868472e-05
1322.0,8.686758342868472e-05
1321.0,0.0001303078917322953
1320.0,0.0001303078917322953
1319.0,0.0001303078917322953
1318.0,0.0001303078917322953
1317.0,0.00017375254558760211
1316.0,0.00017375254558760211
1315.0,0.00017375254558760211
1314.0,0.00017375254558760211
1313.0,0.0001303078917322953
1312.0,8.686758342868472e-05
1311.0,4.343161980746579e-05
1310.0,4.343161980746579e-05
1309.0,4.343161980746579e-05
1308.0,8.686758342868472e-05
1307.0,8.686758342868472e-05
1306.0,8.686758342868472e-05
1305.0,8.686758342868472e-05
1304.0,8.686758342868472e-05
1303.0,8.686758342868472e-05
1302.0,8.686758342868472e-05
1301.0,0.0001303078917322953
1300.0,0.0001303078917322953
1299.0,0.0001303078917322953
1298.0,0.0001303078917322953
1297.0,0.0001303078917322953
1296.0,0.0001303078917322953
1295.0,0.0001303078917322953
1294.0,8.686758342868472e-05
1293.0,8.686758342868472e-05
1292.0,8.686758342868472e-05
1291.0,8.686758342868472e-05
1290.0,8.686758342868472e-05
1289.0,4.343161980746579e-05
1288.0,8.686758342868472e-05
1287.0,8.686758342868472e-05
1286.0,0.0001303078917322953
1285.0,0.0001303078917322953
1284.0,0.00017375254558760211
1283.0,0.0001303078917322953
1282.0,8.686758342868472e-05
1281.0,8.686758342868472e-05
1280.0,4.343161980746579e-05
1279.0,4.343161980746579e-05
1278.0,0.0
1277.0,4.343161980746579e-05
1276.0,4.343161980746579e-05
1275.0,4.343161980746579e-05
1274.0,4.343161980746579e-05
1273.0,4.343161980746579e-05
1272.0,0.0
1271.0,0.0
1270.0,0.0
1269.0,0.0
1268.0,0.0
1267.0,-4.3427276862573194e-05
1266.0,-8.685021164911433e-05
1265.0,-8.685021164911433e-05
1264.0,-0.00013026880522692963
1263.0,-0.00017368305846510168
1262.0,-0.00017368305846510168
1261.0,-0.00017368305846510168
1260.0,-0.00017368305846510168
1259.0,-8.685021164911433e-05
1258.0,-4.3427276862573194e-05
1257.0,-4.3427276862573194e-05
1256.0,-4.3427276862573194e-05
1255.0,-0.00013026880522692963
1254.0,-0.00017368305846510168
1253.0,-0.00021709297223004853
1252.0,-0.00021709297223004853
1251.0,-0.00021709297223004853
1250.0,-0.00021709297223004853
1249.0,-0.00021709297223004853
1248.0,-0.00021709297223004853
1247.0,-0.00021709297223004853
1246.0,-0.00021709297223004853
1245.0,-0.00017368305846510168
1244.0,-0.00017368305846510168
1243.0,-0.00013026880522692963
1242.0,-0.00017368305846510168
1241.0,-0.00017368305846510168
1240.0,-0.00017368305846510168
1239.0,-0.00017368305846510168
1238.0,-0.00017368305846510168
1237.0,-0.00017368305846510168
1236.0,-0.00021709297223004853
1235.0,-0.00021709297223004853
1234.0,-0.00021709297223004853
1233.0,-0.00017368305846510168
1232.0,-0.00017368305846510168
1231.0,-0.00013026880522692963
1230.0,-0.00013026880522692963
1229.0,-0.00013026880522692963
1228.0,-0.00013026880522692963
1227.0,-0.00017368305846510168
1226.0,-0.00017368305846510168
1225.0,-0.00013026880522692963
1224.0,-0.00017368305846510168
1223.0,-0.00017368305846510168
1222.0,-0.00017368305846510168
1221.0,-0.00017368305846510168
1220.0,-0.00017368305846510168
1219.0,-0.00017368305846510168
1218.0,-0.00021709297223004853
1217.0,-0.0002604985473904087
1216.0,-0.00030389978481260016
1215.0,-0.0002604985473904087
1214.0,-0.00021709297223004853
1213.0,-0.00013026880522692963
1212.0,-8.685021164911433e-05
1211.0,0.0
1210.0,0.0
1209.0,-4.3427276862573194e-05
1208.0,-4.3427276862573194e-05
1207.0,0.0
1206.0,0.0
1205.0,4.343161980746579e-05
1204.0,4.343161980746579e-05
1203.0,0.0
1202.0,-4.3427276862573194e-05
1201.0,-8.685021164911433e-05
1200.0,-8.685021164911433e-05
1199.0,-8.685021164911433e-05
1198.0,-4.3427276862573194e-05
1197.0,-4.3427276862573194e-05
1196.0,0.0
1195.0,-4.3427276862573194e-05
1194.0,-8.685021164911433e-05
1193.0,-8.685021164911433e-05
1192.0,-8.685021164911433e-05
1191.0,0.0
1190.0,4.343161980746579e-05
1189.0,0.0001303078917322953
1188.0,0.0001303078917322953
1187.0,0.0001303078917322953
1186.0,0.0001303078917322953
1185.0,0.0001303078917322953
1184.0,0.0001303078917322953
1183.0,0.0001303078917322953
1182.0,0.0001303078917322953
1181.0,0.0001303078917322953
1180.0,8.686758342868472e-05
1179.0,4.343161980746579e-05
1178.0,0.0
1177.0,0.0
1176.0,0.0
1175.0,0.0
1174.0,0.0
1173.0,0.0
1172.0,0.0
1171.0,0.0
1170.0,0.0
1169.0,-4.3427276862573194e-05
1168.0,0.0
1167.0,0.0
1166.0,4.343161980746579e-05
1165.0,8.686758342868472e-05
1164.0,0.0001303078917322953
1163.0,8.686758342868472e-05
1162.0,8.686758342868472e-05
1161.0,4.343161980746579e-05
1160.0,0.0
1159.0,4.343161980746579e-05
1158.0,8.686758342868472e-05
1157.0,8.686758342868472e-05
1156.0,0.0001303078917322953
1155.0,0.00017375254558760211
1154.0,0.00017375254558760211
1153.0,0.00017375254558760211
1152.0,0.00017375254558760211
1151.0,0.00017375254558760211
1150.0,0.00017375254558760211
1149.0,0.00017375254558760211
1148.0,0.0001303078917322953
1147.0,0.0001303078917322953
1146.0,8.686758342868472e-05
1145.0,8.686758342868472e-05
1144.0,4.343161980746579e-05
1143.0,0.0
1142.0,-4.3427276862573194e-05
1141.0,-4.3427276862573194e-05
1140.0,4.343161980746579e-05
1139.0,8.686758342868472e-05
1138.0,0.0001303078917322953
1137.0,0.00017375254558760211
1136.0,0.0001303078917322953
1135.0,8.686758342868472e-05
1134.0,4.343161980746579e-05
1133.0,4.343161980746579e-05
1132.0,4.343161980746579e-05
1131.0,4.343161980746579e-05
1130.0,0.0
1129.0,0.0
1128.0,4.343161980746579e-05
1127.0,4.343161980746579e-05
1126.0,4.343161980746579e-05
1125.0,4.343161980746579e-05
1124.0,4.343161980746579e-05
1123.0,4.343161980746579e-05
1122.0,4.343161980746579e-05
1121.0,0.0
1120.0,-0.00013026880522692963
1119.0,-0.00021709297223004853
1118.0,-0.00030389978481260016
1117.0,-0.00030389978481260016
1116.0,-0.00030389978481260016
1115.0,-0.00030389978481260016
1114.0,-0.0002604985473904087
1113.0,-0.00017368305846510168
1112.0,-8.685021164911433e-05
1111.0,-4.3427276862573194e-05
1110.0,-4.3427276862573194e-05
1109.0,-0.00013026880522692963
1108.0,-0.00021709297223004853
1107.0,-0.00030389978481260016
1106.0,-0.0003472966853634851
1105.0,-0.0003906892499099257
1104.0,-0.0003906892499099257
1103.0,-0.0003472966853634851
1102.0,-0.0003472966853634851
1101.0,-0.0003472966853634851
1100.0,-0.0003472966853634851
1099.0,-0.0003472966853634851
1098.0,-0.0003472966853634851
1097.0,-0.0003472966853634851
1096.0,-0.00030389978481260016
1095.0,-0.00030389978481260016
1094.0,-0.0003472966853634851
1093.0,-0.00043407747931878404
1092.0,-0.0005208409361854294
1091.0,-0.0005642161653756084
1090.0,-0.0006509536295951079
1089.0,-0.0006943158663546001
1088.0,-0.0007810273534953893
1087.0,-0.0008243766056055257
1086.0,-0.0008677215312267172
1085.0,-0.0009110621312231615
1084.0,-0.0009543984064577238
1083.0,-0.0009543984064577238
1082.0,-0.0009543984064577238
1081.0,-0.0009977303577937136
1080.0,-0.001041057986093552
1079.0,-0.0011277002770349043
1078.0,-0.001257631312230778
1077.0,-0.001344230411601366
1076.0,-0.001344230411601366
1075.0,-0.0013009330204178937
1074.0,-0.0011710149414008164
1073.0,-0.0010843812922201046
1072.0,-0.001041057986093552
1071.0,-0.0009977303577937136
1070.0,-0.0009977303577937136
1069.0,-0.001041057986093552
1068.0,-0.0011277002770349043
1067.0,-0.001257631312230778
1066.0,-0.001344230411601366
1065.0,-0.001344230411601366
1064.0,-0.001257631312230778
1063.0,-0.0011277002770349043
1062.0,-0.001041057986093552
1061.0,-0.0009110621312231615
1060.0,-0.0009110621312231615
1059.0,-0.0009543984064577238
1058.0,-0.001041057986093552
1057.0,-0.0011710149414008164
1056.0,-0.00121432528617893
1055.0,-0.00121432528617893
1054.0,-0.0011710149414008164
1053.0,-0.0011277002770349043
1052.0,-0.0011277002770349043
1051.0,-0.0011710149414008164
1050.0,-0.00121432528617893
1049.0,-0.0011710149414008164
1048.0,-0.0010843812922201046
1047.0,-0.0009543984064577238
1046.0,-0.0008243766056055257
1045.0,-0.0007810273534953893
1044.0,-0.0007810273534953893
1043.0,-0.0008243766056055257
1042.0,-0.0007810273534953893
1041.0,-0.0007376737740329986
1040.0,-0.0007376737740329986
1039.0,-0.0007810273534953893
1038.0,-0.0007810273534953893
1037.0,-0.0007376737740329986
1036.0,-0.0006943158663546001
1035.0,-0.0006509536295951079
1034.0,-0.0006075870628903246
1033.0,-0.0005208409361854294
1032.0,-0.00043407747931878404
1031.0,-0.00043407747931878404
1030.0,-0.0004774613744551459
1029.0,-0.0005208409361854294
1028.0,-0.0006075870628903246
1027.0,-0.0006075870628903246
1026.0,-0.0006075870628903246
1025.0,-0.0004774613744551459
1024.0,-0.0003472966853634851
1023.0,-0.0002604985473904087
1022.0,-0.00021709297223004853
1021.0,-0.00017368305846510168
1020.0,-0.00017368305846510168
1019.0,-0.00021709297223004853
1018.0,-0.0002604985473904087
1017.0,-0.00030389978481260016
1016.0,-0.00030389978481260016
1015.0,-0.00030389978481260016
1014.0,-0.00021709297223004853
1013.0,-0.00017368305846510168
1012.0,-8.685021164911433e-05
1011.0,-4.3427276862573194e-05
1010.0,0.0
1009.0,0.0
1008.0,-8.685021164911433e-05
1007.0,-0.00017368305846510168
1006.0,-0.0002604985473904087
1005.0,-0.00021709297223004853
1004.0,-0.00017368305846510168
1003.0,-4.3427276862573194e-05
1002.0,4.343161980746579e-05
1001.0,8.686758342868472e-05
1000.0,0.0001303078917322953
999.0,0.0001303078917322953
998.0,0.00017375254558760211
997.0,0.00017375254558760211
996.0,0.00021720154586435392
995.0,0.00021720154586435392
994.0,0.00026065489343207737
993.0,0.00026065489343207737
992.0,0.00026065489343207737
991.0,0.00026065489343207737
990.0,0.00026065489343207737
989.0,0.00026065489343207737
988.0,0.00026065489343207737
987.0,0.00026065489343207737
986.0,0.00021720154586435392
985.0,0.00017375254558760211
984.0,8.686758342868472e-05
983.0,4.343161980746579e-05
982.0,4.343161980746579e-05
981.0,0.0
980.0,0.0
979.0,0.0
978.0,0.0
977.0,8.686758342868472e-05
976.0,0.0001303078917322953
975.0,0.00017375254558760211
974.0,0.0001303078917322953
973.0,0.0001303078917322953
972.0,0.0001303078917322953
971.0,0.0001303078917322953
970.0,0.0001303078917322953
969.0,4.343161980746579e-05
968.0,0.0
967.0,-4.3427276862573194e-05
966.0,4.343161980746579e-05
965.0,0.0001303078917322953
964.0,0.00021720154586435392
963.0,0.00026065489343207737
962.0,0.00026065489343207737
961.0,0.00030411258916074324
960.0,0.00030411258916074324
959.0,0.00026065489343207737
958.0,0.00021720154586435392
957.0,0.00017375254558760211
956.0,0.00017375254558760211
955.0,0.00026065489343207737
954.0,0.0003475746339209884
953.0,0.0003910410285830057
952.0,0.0003910410285830057
951.0,0.00030411258916074324
950.0,0.00021720154586435392
949.0,0.00026065489343207737
948.0,0.0003475746339209884
947.0,0.0003910410285830057
946.0,0.0003910410285830057
945.0,0.0003910410285830057
944.0,0.0003475746339209884
943.0,0.0003475746339209884
942.0,0.0003475746339209884
941.0,0.00030411258916074324
940.0,0.00026065489343207737
939.0,0.00021720154586435392
938.0,0.00021720154586435392
937.0,0.00021720154586435392
936.0,0.00017375254558760211
935.0,0.0001303078917322953
934.0,4.343161980746579e-05
933.0,0.0
932.0,-4.3427276862573194e-05
931.0,0.0
930.0,4.343161980746579e-05
929.0,0.0001303078917322953
928.0,0.00021720154586435392
927.0,0.00017375254558760211
926.0,0.0001303078917322953
925.0,8.686758342868472e-05
924.0,8.686758342868472e-05
923.0,4.343161980746579e-05
922.0,4.343161980746579e-05
921.0,4.343161980746579e-05
920.0,4.343161980746579e-05
919.0,4.343161980746579e-05
918.0,4.343161980746579e-05
917.0,8.686758342868472e-05
916.0,0.0001303078917322953
915.0,0.00017375254558760211
914.0,0.00026065489343207737
913.0,0.00030411258916074324
912.0,0.0003910410285830057
911.0,0.0003910410285830057
910.0,0.0003910410285830057
909.0,0.0003475746339209884
908.0,0.00026065489343207737
907.0,0.00017375254558760211
906.0,8.686758342868472e-05
905.0,8.686758342868472e-05
904.0,8.686758342868472e-05
903.0,0.0001303078917322953
902.0,0.0001303078917322953
901.0,0.00017375254558760211
900.0,0.00026065489343207737
899.0,0.0003475746339209884
898.0,0.0003910410285830057
897.0,0.0003475746339209884
896.0,0.00030411258916074324
895.0,0.00021720154586435392
894.0,0.00017375254558760211
893.0,8.686758342868472e-05
892.0,0.0
891.0,-0.00013026880522692963
890.0,-0.0002604985473904087
889.0,-0.00030389978481260016
888.0,-0.00030389978481260016
887.0,-0.00021709297223004853
886.0,-0.00013026880522692963
885.0,-8.685021164911433e-05
884.0,-8.685021164911433e-05
883.0,-4.3427276862573194e-05
882.0,4.343161980746579e-05
881.0,8.686758342868472e-05
880.0,4.343161980746579e-05
879.0,0.0
878.0,-4.3427276862573194e-05
877.0,-4.3427276862573194e-05
876.0,4.343161980746579e-05
875.0,0.0001303078917322953
874.0,0.00021720154586435392
873.0,0.00021720154586435392
872.0,0.00021720154586435392
871.0,0.00021720154586435392
870.0,0.00026065489343207737
869.0,0.00021720154586435392
868.0,0.00017375254558760211
867.0,8.686758342868472e-05
866.0,0.0001303078917322953
865.0,0.00021720154586435392
864.0,0.00021720154586435392
863.0,0.00017375254558760211
862.0,8.686758342868472e-05
861.0,4.343161980746579e-05
860.0,8.686758342868472e-05
859.0,0.00017375254558760211
858.0,0.00026065489343207737
857.0,0.0003475746339209884
856.0,0.0003910410285830057
855.0,0.00043451177401765406
854.0,0.00043451177401765406
853.0,0.00030411258916074324
852.0,0.00021720154586435392
851.0,0.00021720154586435392
850.0,0.00021720154586435392
849.0,0.00026065489343207737
848.0,0.00026065489343207737
847.0,0.00021720154586435392
846.0,0.00021720154586435392
845.0,0.00030411258916074324
844.0,0.0004779868710962365
843.0,0.0005649501236701937
842.0,0.0005649501236701937
841.0,0.0004779868710962365
840.0,0.0003475746339209884
839.0,0.00026065489343207737
838.0,0.00026065489343207737
837.0,0.00026065489343207737
836.0,0.00030411258916074324
835.0,0.00030411258916074324
834.0,0.0003475746339209884
833.0,0.0003475746339209884
832.0,0.0003910410285830057
831.0,0.00043451177401765406
830.0,0.0004779868710962365
829.0,0.00043451177401765406
828.0,0.0003475746339209884
827.0,0.00021720154586435392
826.0,4.343161980746579e-05
825.0,-8.685021164911433e-05
824.0,-8.685021164911433e-05
823.0,-8.685021164911433e-05
822.0,-8.685021164911433e-05
821.0,-4.3427276862573194e-05
820.0,4.343161980746579e-05
819.0,0.00021720154586435392
818.0,0.0003475746339209884
817.0,0.0003910410285830057
816.0,0.0003910410285830057
815.0,0.0003910410285830057
814.0,0.0004779868710962365
813.0,0.0005649501236701937
812.0,0.0005649501236701937
811.0,0.000521466320689834
810.0,0.0004779868710962365
809.0,0.0004779868710962365
808.0,0.000521466320689834
807.0,0.0005649501236701937
806.0,0.0005649501236701937
805.0,0.000521466320689834
804.0,0.0004779868710962365
803.0,0.0004779868710962365
802.0,0.0005649501236701937
801.0,0.0006084382809090627
800.0,0.0006084382809090627
799.0,0.0005649501236701937
798.0,0.0004779868710962365
797.0,0.0003910410285830057
796.0,0.0003910410285830057
795.0,0.0003910410285830057
794.0,0.00043451177401765406
793.0,0.00043451177401765406
792.0,0.00043451177401765406
791.0,0.00043451177401765406
790.0,0.00043451177401765406
789.0,0.0003910410285830057
788.0,0.0003910410285830057
787.0,0.0003910410285830057
786.0,0.0003910410285830057
785.0,0.00043451177401765406
784.0,0.0004779868710962365
783.0,0.00043451177401765406
782.0,0.00030411258916074324
781.0,0.0001303078917322953
780.0,8.686758342868472e-05
779.0,0.00017375254558760211
778.0,0.00030411258916074324
777.0,0.00043451177401765406
776.0,0.0004779868710962365
775.0,0.00043451177401765406
774.0,0.0003475746339209884
773.0,0.00026065489343207737
772.0,0.00026065489343207737
771.0,0.0003475746339209884
770.0,0.00043451177401765406
769.0,0.0004779868710962365
768.0,0.000521466320689834
767.0,0.000521466320689834
766.0,0.000521466320689834
765.0,0.0004779868710962365
764.0,0.0004779868710962365
763.0,0.000521466320689834
762.0,0.0006519307932786322
761.0,0.0007824344698965646
760.0,0.000869458712629001
759.0,0.0009129773741116676
758.0,0.0010000277816797354
757.0,0.0010000277816797354
756.0,0.0009565003968372565
755.0,0.000869458712629001
754.0,0.0007824344698965646
753.0,0.0006954276616513155
752.0,0.0006084382809090627
751.0,0.000521466320689834
750.0,0.0004779868710962365
749.0,0.000521466320689834
748.0,0.0007824344698965646
747.0,0.0010000277816797354
746.0,0.0010870956412141197
745.0,0.0010000277816797354
744.0,0.0008259444115150671
743.0,0.0007389288868995258
742.0,0.0007389288868995258
741.0,0.0007824344698965646
740.0,0.0008259444115150671
739.0,0.0010000277816797354
738.0,0.0011741809597138886
737.0,0.0012177301682640973
736.0,0.0010870956412141197
735.0,0.0008259444115150671
734.0,0.0006519307932786322
733.0,0.0006084382809090627
732.0,0.0006954276616513155
731.0,0.0008259444115150671
730.0,0.000869458712629001
729.0,0.0008259444115150671
728.0,0.0007389288868995258
727.0,0.0006084382809090627
726.0,0.0004779868710962365
725.0,0.0003475746339209884
724.0,0.00021720154586435392
723.0,0.00030411258916074324
722.0,0.0006084382809090627
721.0,0.0009129773741116676
720.0,0.0010000277816797354
719.0,0.000869458712629001
718.0,0.0006954276616513155
717.0,0.0007389288868995258
716.0,0.0009129773741116676
715.0,0.0010000277816797354
714.0,0.000869458712629001
713.0,0.0006084382809090627
712.0,0.00043451177401765406
711.0,0.00043451177401765406
710.0,0.0006519307932786322
709.0,0.0008259444115150671
708.0,0.0009565003968372565
707.0,0.0010000277816797354
706.0,0.0010870956412141197
705.0,0.0010870956412141197
704.0,0.0009565003968372565
703.0,0.000869458712629001
702.0,0.0008259444115150671
701.0,0.0007389288868995258
700.0,0.0005649501236701937
699.0,0.0003475746339209884
698.0,0.00026065489343207737
697.0,0.0003475746339209884
696.0,0.0005649501236701937
695.0,0.0008259444115150671
694.0,0.0011306361176557367
693.0,0.0014355417390583547
692.0,0.0015662811355310335
691.0,0.0015226969634936083
690.0,0.001348404001626502
689.0,0.0011741809597138886
688.0,0.0009565003968372565
687.0,0.0008259444115150671
686.0,0.0007824344698965646
685.0,0.000869458712629001
684.0,0.0010000277816797354
683.0,0.0010435595295137379
682.0,0.0010435595295137379
681.0,0.0011306361176557367
680.0,0.001348404001626502
679.0,0.0016534626036355249
678.0,0.0020023635919956817
677.0,0.0023078820582733695
676.0,0.002482560585275184
675.0,0.0025262411970197185
674.0,0.0025262411970197185
673.0,0.002482560585275184
672.0,0.002351545103793873
671.0,0.0020459959305969555
670.0,0.001915112063444413
669.0,0.0022642234021015284
668.0,0.002613615602686581
667.0,0.0024388843664115978
666.0,0.0021332737608552588
665.0,0.0017842676290416026
664.0,0.0013919706849057079
663.0,0.0011306361176557367
662.0,0.0010870956412141197
661.0,0.001348404001626502
660.0,0.0017406615763013722
659.0,0.0020459959305969555
658.0,0.0020023635919956817
657.0,0.0016970599014589638
656.0,0.0015226969634936083
655.0,0.0016534626036355249
654.0,0.002089632653256679
653.0,0.0024388843664115978
652.0,0.002569926202528716
651.0,0.002569926202528716
650.0,0.002701007590486082
649.0,0.0030070181092942683
648.0,0.0032257291386954545
647.0,0.0031819781204844855
646.0,0.0029632891174733444
645.0,0.0027447101798967477
644.0,0.002613615602686581
643.0,0.002613615602686581
642.0,0.002569926202528716
641.0,0.002395212539545666
640.0,0.001915112063444413
639.0,0.001348404001626502
638.0,0.0010435595295137379
637.0,0.0012612837441823288
636.0,0.001915112063444413
635.0,0.002613615602686581
634.0,0.0031819781204844855
633.0,0.0036634819042162814
632.0,0.003926345514724705
631.0,0.003707281458678491
630.0,0.0030070181092942683
629.0,0.0020459959305969555
628.0,0.001304841688344327
627.0,0.0012177301682640973
626.0,0.0017406615763013722
625.0,0.002351545103793873
624.0,0.002482560585275184
623.0,0.0019587356365717845
622.0,0.0014355417390583547
621.0,0.0014355417390583547
620.0,0.001915112063444413
619.0,0.0024388843664115978
618.0,0.0027884171674950053
617.0,0.0031819781204844855
616.0,0.0035758960449088217
615.0,0.0035758960449088217
614.0,0.0029195645282691363
613.0,0.001915112063444413
612.0,0.0010435595295137379
611.0,0.0006954276616513155
610.0,0.0007824344698965646
609.0,0.0010435595295137379
608.0,0.001304841688344327
607.0,0.0016970599014589638
606.0,0.0024388843664115978
605.0,0.003619686766589858
604.0,0.004803708402820517
603.0,0.005330978174470591
602.0,0.005111204635089406
601.0,0.00484762310854614
600.0,0.005243055412371911
