cm-1,A
4000.0,0.00612308505878878
3999.0,0.006167133386013823
3998.0,0.006167133386013823
3997.0,0.006167133386013823
3996.0,0.006167133386013823
3995.0,0.00621118618129457
3994.0,0.00621118618129457
3993.0,0.006167133386013823
3992.0,0.006167133386013823
3991.0,0.00612308505878878
3990.0,0.006167133386013823
3989.0,0.006167133386013823
3988.0,0.00621118618129457
3987.0,0.00625524344553785
3986.0,0.006299305179649828
3985.0,0.006343371384537999
3984.0,0.006387442061109638
3983.0,0.006343371384537999
3982.0,0.00621118618129457
3981.0,0.006079041198713275
3980.0,0.005946936412324799
3979.0,0.005946936412324799
3978.0,0.005990966876386672
3977.0,0.006035001804881146
3976.0,0.00612308505878878
3975.0,0.00612308505878878
3974.0,0.006167133386013823
3973.0,0.00621118618129457
3972.0,0.00621118618129457
3971.0,0.006167133386013823
3970.0,0.006079041198713275
3969.0,0.005946936412324799
3968.0,0.00590291041179003
3967.0,0.005858888873877532
3966.0,0.005858888873877532
3965.0,0.00590291041179003
3964.0,0.00590291041179003
3963.0,0.00590291041179003
3962.0,0.00590291041179003
3961.0,0.005858888873877532
3960.0,0.005858888873877532
3959.0,0.00590291041179003
3958.0,0.005946936412324799
3957.0,0.005946936412324799
3956.0,0.005990966876386672
3955.0,0.005990966876386672
3954.0,0.005990966876386672
3953.0,0.005946936412324799
3952.0,0.005858888873877532
3951.0,0.005814871797682919
3950.0,0.005858888873877532
3949.0,0.005946936412324799
3948.0,0.005990966876386672
3947.0,0.005946936412324799
3946.0,0.005858888873877532
3945.0,0.005814871797682919
3944.0,0.00590291041179003
3943.0,0.005990966876386672
3942.0,0.006035001804881146
3941.0,0.006079041198713275
3940.0,0.006167133386013823
3939.0,0.006299305179649828
3938.0,0.006299305179649828
3937.0,0.006167133386013823
3936.0,0.006035001804881146
3935.0,0.005990966876386672
3934.0,0.005990966876386672
3933.0,0.006035001804881146
3932.0,0.006035001804881146
3931.0,0.005990966876386672
3930.0,0.005946936412324799
3929.0,0.00590291041179003
3928.0,0.005858888873877532
3927.0,0.005858888873877532
3926.0,0.00577085918230158
3925.0,0.005594853310833647
3924.0,0.00541891874010525
3923.0,0.005330978174470591
3922.0,0.00537494623139545
3921.0,0.00541891874010525
3920.0,0.005462895701502157
3919.0,0.005506877116487674
3918.0,0.005682847330363394
3917.0,0.005858888873877532
3916.0,0.006035001804881146
3915.0,0.00612308505878878
3914.0,0.00625524344553785
3913.0,0.006299305179649828
3912.0,0.00625524344553785
3911.0,0.00612308505878878
3910.0,0.006035001804881146
3909.0,0.005858888873877532
3908.0,0.005682847330363394
3907.0,0.005462895701502157
3906.0,0.005243055412371911
3905.0,0.005067263269958211
3904.0,0.004935465843858511
3903.0,0.004935465843858511
3902.0,0.005111204635089406
3901.0,0.005550862985963967
3900.0,0.005946936412324799
3899.0,0.00612308505878878
3898.0,0.006079041198713275
3897.0,0.006035001804881146
3896.0,0.005990966876386672
3895.0,0.00590291041179003
3894.0,0.005858888873877532
3893.0,0.005946936412324799
3892.0,0.006035001804881146
3891.0,0.00590291041179003
3890.0,0.005550862985963967
3889.0,0.00541891874010525
3888.0,0.005638848091999105
3887.0,0.005858888873877532
3886.0,0.00577085918230158
3885.0,0.005330978174470591
3884.0,0.00489154225525934
3883.0,0.00484762310854614
3882.0,0.005199100705396198
3881.0,0.005594853310833647
3880.0,0.005726851026829571
3879.0,0.005594853310833647
3878.0,0.005506877116487674
3877.0,0.005594853310833647
3876.0,0.005682847330363394
3875.0,0.005506877116487674
3874.0,0.005111204635089406
3873.0,0.004803708402820517
3872.0,0.00489154225525934
3871.0,0.005243055412371911
3870.0,0.005462895701502157
3869.0,0.0052870145684298375
3868.0,0.005243055412371911
3867.0,0.005594853310833647
3866.0,0.005946936412324799
3865.0,0.006035001804881146
3864.0,0.00590291041179003
3863.0,0.00577085918230158
3862.0,0.00577085918230158
3861.0,0.00577085918230158
3860.0,0.005682847330363394
3859.0,0.005462895701502157
3858.0,0.005155150446602086
3857.0,0.00484762310854614
3856.0,0.004671990922590297
3855.0,0.004979393875242044
3854.0,0.005638848091999105
3853.0,0.005682847330363394
3852.0,0.005243055412371911
3851.0,0.00537494623139545
3850.0,0.005990966876386672
3849.0,0.006387442061109638
3848.0,0.006343371384537999
3847.0,0.00612308505878878
3846.0,0.005858888873877532
3845.0,0.005638848091999105
3844.0,0.00537494623139545
3843.0,0.005067263269958211
3842.0,0.004759798137184523
3841.0,0.004715892310740433
3840.0,0.004935465843858511
3839.0,0.005243055412371911
3838.0,0.00537494623139545
3837.0,0.005243055412371911
3836.0,0.005111204635089406
3835.0,0.005243055412371911
3834.0,0.005550862985963967
3833.0,0.00590291041179003
3832.0,0.006035001804881146
3831.0,0.005990966876386672
3830.0,0.00590291041179003
3829.0,0.005946936412324799
3828.0,0.006079041198713275
3827.0,0.006079041198713275
3826.0,0.00577085918230158
3825.0,0.005330978174470591
3824.0,0.005111204635089406
3823.0,0.005199100705396198
3822.0,0.005462895701502157
3821.0,0.00541891874010525
3820.0,0.005023326350308999
3819.0,0.00489154225525934
3818.0,0.00541891874010525
3817.0,0.006035001804881146
3816.0,0.00621118618129457
3815.0,0.006035001804881146
3814.0,0.005990966876386672
3813.0,0.00625524344553785
3812.0,0.006387442061109638
3811.0,0.00612308505878878
3810.0,0.00577085918230158
3809.0,0.005682847330363394
3808.0,0.005858888873877532
3807.0,0.005858888873877532
3806.0,0.005462895701502157
3805.0,0.005155150446602086
3804.0,0.0052870145684298375
3803.0,0.005638848091999105
3802.0,0.005946936412324799
3801.0,0.005682847330363394
3800.0,0.005199100705396198
3799.0,0.0052870145684298375
3798.0,0.005814871797682919
3797.0,0.00621118618129457
3796.0,0.00625524344553785
3795.0,0.006167133386013823
3794.0,0.006167133386013823
3793.0,0.006343371384537999
3792.0,0.006431517210272464
3791.0,0.006475596832934416
3790.0,0.006387442061109638
3789.0,0.006343371384537999
3788.0,0.00625524344553785
3787.0,0.006167133386013823
3786.0,0.006167133386013823
3785.0,0.00612308505878878
3784.0,0.006035001804881146
3783.0,0.005946936412324799
3782.0,0.006035001804881146
3781.0,0.00625524344553785
3780.0,0.006431517210272464
3779.0,0.006475596832934416
3778.0,0.006387442061109638
3777.0,0.006387442061109638
3776.0,0.006475596832934416
3775.0,0.006475596832934416
3774.0,0.006299305179649828
3773.0,0.00612308505878878
3772.0,0.00612308505878878
3771.0,0.00621118618129457
3770.0,0.006167133386013823
3769.0,0.006035001804881146
3768.0,0.005946936412324799
3767.0,0.00612308505878878
3766.0,0.006299305179649828
3765.0,0.00625524344553785
3764.0,0.006035001804881146
3763.0,0.00590291041179003
3762.0,0.005946936412324799
3761.0,0.005990966876386672
3760.0,0.005990966876386672
3759.0,0.006035001804881146
3758.0,0.005946936412324799
3757.0,0.00577085918230158
3756.0,0.005550862985963967
3755.0,0.0052870145684298375
3754.0,0.004935465843858511
3753.0,0.0044964297349936455
3752.0,0.0043648054024501
3751.0,0.004540313378935901
3750.0,0.004628093971837721
3749.0,0.004408675747646695
3748.0,0.004277078004534696
3747.0,0.00458420145758498
3746.0,0.005243055412371911
3745.0,0.005814871797682919
3744.0,0.005682847330363394
3743.0,0.005111204635089406
3742.0,0.005111204635089406
3741.0,0.00541891874010525
3740.0,0.0052870145684298375
3739.0,0.00484762310854614
3738.0,0.004452550524862486
3737.0,0.004277078004534696
3736.0,0.004233220950025984
3735.0,0.004277078004534696
3734.0,0.004452550524862486
3733.0,0.00489154225525934
3732.0,0.005243055412371911
3731.0,0.005330978174470591
3730.0,0.00537494623139545
3729.0,0.00541891874010525
3728.0,0.005462895701502157
3727.0,0.005330978174470591
3726.0,0.005155150446602086
3725.0,0.005067263269958211
3724.0,0.005199100705396198
3723.0,0.00541891874010525
3722.0,0.005638848091999105
3721.0,0.005814871797682919
3720.0,0.005990966876386672
3719.0,0.006167133386013823
3718.0,0.006167133386013823
3717.0,0.005946936412324799
3716.0,0.005638848091999105
3715.0,0.00537494623139545
3714.0,0.005199100705396198
3713.0,0.005199100705396198
3712.0,0.005330978174470591
3711.0,0.005550862985963967
3710.0,0.005682847330363394
3709.0,0.00590291041179003
3708.0,0.006167133386013823
3707.0,0.006299305179649828
3706.0,0.006343371384537999
3705.0,0.00625524344553785
3704.0,0.00625524344553785
3703.0,0.006343371384537999
3702.0,0.006387442061109638
3701.0,0.006343371384537999
3700.0,0.00625524344553785
3699.0,0.006343371384537999
3698.0,0.006475596832934416
3697.0,0.006519680930003435
3696.0,0.006387442061109638
3695.0,0.006167133386013823
3694.0,0.005946936412324799
3693.0,0.005638848091999105
3692.0,0.00537494623139545
3691.0,0.00537494623139545
3690.0,0.005638848091999105
3689.0,0.00590291041179003
3688.0,0.005858888873877532
3687.0,0.00590291041179003
3686.0,0.00621118618129457
3685.0,0.006607862550997545
3684.0,0.006740168563263094
3683.0,0.006607862550997545
3682.0,0.006387442061109638
3681.0,0.00621118618129457
3680.0,0.005814871797682919
3679.0,0.00537494623139545
3678.0,0.005067263269958211
3677.0,0.005243055412371911
3676.0,0.005682847330363394
3675.0,0.005682847330363394
3674.0,0.0052870145684298375
3673.0,0.005462895701502157
3672.0,0.006035001804881146
3671.0,0.006519680930003435
3670.0,0.006784279525863024
3669.0,0.006696062080525422
3668.0,0.006696062080525422
3667.0,0.007004901568658406
3666.0,0.007402303897961815
3665.0,0.007534852191956709
3664.0,0.0075790439479759275
3663.0,0.007534852191956709
3662.0,0.007490664932224611
3661.0,0.007313960837872058
3660.0,0.007049039429553483
3659.0,0.006916639301937977
3658.0,0.006916639301937977
3657.0,0.007093181776687496
3656.0,0.007049039429553483
3655.0,0.006696062080525422
3654.0,0.006387442061109638
3653.0,0.00612308505878878
3652.0,0.005858888873877532
3651.0,0.005726851026829571
3650.0,0.005946936412324799
3649.0,0.00621118618129457
3648.0,0.006299305179649828
3647.0,0.006475596832934416
3646.0,0.006828394969235152
3645.0,0.007225635744644521
3644.0,0.0075790439479759275
3643.0,0.007755855953228474
3642.0,0.007800070204414977
3641.0,0.007800070204414977
3640.0,0.007800070204414977
3639.0,0.007755855953228474
3638.0,0.007667440952535687
3637.0,0.0075790439479759275
3636.0,0.007490664932224611
3635.0,0.007402303897961815
3634.0,0.007137328610972382
3633.0,0.006740168563263094
3632.0,0.006343371384537999
3631.0,0.00621118618129457
3630.0,0.006475596832934416
3629.0,0.006872514894289861
3628.0,0.006872514894289861
3627.0,0.006916639301937977
3626.0,0.007313960837872058
3625.0,0.007755855953228474
3624.0,0.007800070204414977
3623.0,0.0075790439479759275
3622.0,0.007269796045857202
3621.0,0.007093181776687496
3620.0,0.00696076819309055
3619.0,0.006828394969235152
3618.0,0.006696062080525422
3617.0,0.006651960076740071
3616.0,0.006784279525863024
3615.0,0.007004901568658406
3614.0,0.007137328610972382
3613.0,0.007093181776687496
3612.0,0.007004901568658406
3611.0,0.00696076819309055
3610.0,0.007093181776687496
3609.0,0.007313960837872058
3608.0,0.007534852191956709
3607.0,0.00762324020119709
3606.0,0.007667440952535687
3605.0,0.007711646202907652
3604.0,0.007667440952535687
3603.0,0.0075790439479759275
3602.0,0.0074464821678643656
3601.0,0.007313960837872058
3600.0,0.007269796045857202
3599.0,0.007269796045857202
3598.0,0.007358130121602358
3597.0,0.007358130121602358
3596.0,0.007358130121602358
3595.0,0.007358130121602358
3594.0,0.007358130121602358
3593.0,0.007358130121602358
3592.0,0.007358130121602358
3591.0,0.007313960837872058
3590.0,0.007269796045857202
3589.0,0.007313960837872058
3588.0,0.007402303897961815
3587.0,0.007402303897961815
3586.0,0.007358130121602358
3585.0,0.007534852191956709
3584.0,0.007844288957383316
3583.0,0.008153946355103248
3582.0,0.008242460465651913
3581.0,0.008198201155356077
3580.0,0.008153946355103248
3579.0,0.008109696063975047
3578.0,0.008153946355103248
3577.0,0.008153946355103248
3576.0,0.008153946355103248
3575.0,0.008065450281052211
3574.0,0.007976972236149349
3573.0,0.007844288957383316
3572.0,0.007667440952535687
3571.0,0.007490664932224611
3570.0,0.007358130121602358
3569.0,0.007358130121602358
3568.0,0.0074464821678643656
3567.0,0.0075790439479759275
3566.0,0.0075790439479759275
3565.0,0.00762324020119709
3564.0,0.007844288957383316
3563.0,0.008153946355103248
3562.0,0.008375265465994541
3561.0,0.008463824699968647
3560.0,0.008552401996197112
3559.0,0.0087296108049002
3558.0,0.008906891951112605
3557.0,0.008995559669244813
3556.0,0.008906891951112605
3555.0,0.008773924307505121
3554.0,0.008640997362049818
3553.0,0.008596697419959609
3552.0,0.008552401996197112
3551.0,0.00850811108984062
3550.0,0.008463824699968647
3549.0,0.008463824699968647
3548.0,0.00850811108984062
3547.0,0.008640997362049818
3546.0,0.0087296108049002
3545.0,0.008818242332126802
3544.0,0.008818242332126802
3543.0,0.008862564879688284
3542.0,0.008862564879688284
3541.0,0.008862564879688284
3540.0,0.008818242332126802
3539.0,0.008818242332126802
3538.0,0.008862564879688284
3537.0,0.008906891951112605
3536.0,0.008995559669244813
3535.0,0.009039900317800775
3534.0,0.008995559669244813
3533.0,0.008951223547323472
3532.0,0.008818242332126802
3531.0,0.0087296108049002
3530.0,0.008685301823389224
3529.0,0.0087296108049002
3528.0,0.008773924307505121
3527.0,0.008818242332126802
3526.0,0.0087296108049002
3525.0,0.0087296108049002
3524.0,0.0087296108049002
3523.0,0.008773924307505121
3522.0,0.008818242332126802
3521.0,0.008906891951112605
3520.0,0.008995559669244813
3519.0,0.00908424549391551
3518.0,0.00908424549391551
3517.0,0.00908424549391551
3516.0,0.00908424549391551
3515.0,0.009039900317800775
3514.0,0.008995559669244813
3513.0,0.008951223547323472
3512.0,0.008906891951112605
3511.0,0.008906891951112605
3510.0,0.008906891951112605
3509.0,0.008818242332126802
3508.0,0.008685301823389224
3507.0,0.008596697419959609
3506.0,0.008552401996197112
3505.0,0.008640997362049818
3504.0,0.008773924307505121
3503.0,0.008906891951112605
3502.0,0.008906891951112605
3501.0,0.008818242332126802
3500.0,0.0087296108049002
3499.0,0.008685301823389224
3498.0,0.0087296108049002
3497.0,0.008862564879688284
3496.0,0.008995559669244813
3495.0,0.00908424549391551
3494.0,0.00908424549391551
3493.0,0.00908424549391551
3492.0,0.008995559669244813
3491.0,0.008906891951112605
3490.0,0.008906891951112605
3489.0,0.008951223547323472
3488.0,0.008995559669244813
3487.0,0.009039900317800775
3486.0,0.008995559669244813
3485.0,0.008951223547323472
3484.0,0.008862564879688284
3483.0,0.008862564879688284
3482.0,0.008862564879688284
3481.0,0.008951223547323472
3480.0,0.008995559669244813
3479.0,0.009039900317800775
3478.0,0.00908424549391551
3477.0,0.00908424549391551
3476.0,0.009128595198514056
3475.0,0.009172949432521227
3474.0,0.009128595198514056
3473.0,0.00908424549391551
3472.0,0.009039900317800775
3471.0,0.009039900317800775
3470.0,0.009039900317800775
3469.0,0.008995559669244813
3468.0,0.008906891951112605
3467.0,0.008818242332126802
3466.0,0.008818242332126802
3465.0,0.008862564879688284
3464.0,0.009039900317800775
3463.0,0.009217308196862062
3462.0,0.009350411681145587
3461.0,0.00939478857608056
3460.0,0.009350411681145587
3459.0,0.009306039320248427
3458.0,0.009261671492462709
3457.0,0.009306039320248427
3456.0,0.009439170005980158
3455.0,0.009527946474380489
3454.0,0.009616741093766423
3453.0,0.009616741093766423
3452.0,0.009616741093766423
3451.0,0.009572341514736404
3450.0,0.009527946474380489
3449.0,0.009572341514736404
3448.0,0.009572341514736404
3447.0,0.009572341514736404
3446.0,0.009527946474380489
3445.0,0.009527946474380489
3444.0,0.009616741093766423
3443.0,0.009794384815193347
3442.0,0.01001654169860089
3441.0,0.010194349063173958
3440.0,0.01037222925484893
3439.0,0.010505687227290839
3438.0,0.010505687227290839
3437.0,0.01046119667949763
3436.0,0.010416710688994968
3435.0,0.01037222925484893
3434.0,0.010327752376126709
3433.0,0.01037222925484893
3432.0,0.01037222925484893
3431.0,0.010416710688994968
3430.0,0.01046119667949763
3429.0,0.010505687227290839
3428.0,0.010550182333308289
3427.0,0.010594681998483901
3426.0,0.010550182333308289
3425.0,0.010416710688994968
3424.0,0.01023881228122181
3423.0,0.010060986715464404
3422.0,0.009972101229705377
3421.0,0.009927665307847056
3420.0,0.009972101229705377
3419.0,0.010060986715464404
3418.0,0.010149890396819572
3417.0,0.010149890396819572
3416.0,0.010105436281226954
3415.0,0.01001654169860089
3414.0,0.009972101229705377
3413.0,0.01001654169860089
3412.0,0.010060986715464404
3411.0,0.010149890396819572
3410.0,0.010149890396819572
3409.0,0.010060986715464404
3408.0,0.009883233932095559
3407.0,0.00974996707218323
3406.0,0.009616741093766423
3405.0,0.009527946474380489
3404.0,0.00939478857608056
3403.0,0.009217308196862062
3402.0,0.00908424549391551
3401.0,0.00908424549391551
3400.0,0.00908424549391551
3399.0,0.009128595198514056
3398.0,0.00908424549391551
3397.0,0.008995559669244813
3396.0,0.008951223547323472
3395.0,0.008995559669244813
3394.0,0.009128595198514056
3393.0,0.009261671492462709
3392.0,0.009350411681145587
3391.0,0.009306039320248427
3390.0,0.009217308196862062
3389.0,0.009128595198514056
3388.0,0.008995559669244813
3387.0,0.008995559669244813
3386.0,0.008995559669244813
3385.0,0.00908424549391551
3384.0,0.009128595198514056
3383.0,0.009128595198514056
3382.0,0.009128595198514056
3381.0,0.00908424549391551
3380.0,0.00908424549391551
3379.0,0.009039900317800775
3378.0,0.008995559669244813
3377.0,0.008951223547323472
3376.0,0.008906891951112605
3375.0,0.008862564879688284
3374.0,0.008862564879688284
3373.0,0.008862564879688284
3372.0,0.008906891951112605
3371.0,0.009039900317800775
3370.0,0.00908424549391551
3369.0,0.009039900317800775
3368.0,0.008951223547323472
3367.0,0.008906891951112605
3366.0,0.008951223547323472
3365.0,0.008951223547323472
3364.0,0.008951223547323472
3363.0,0.008862564879688284
3362.0,0.008818242332126802
3361.0,0.008773924307505121
3360.0,0.0087296108049002
3359.0,0.0087296108049002
3358.0,0.0087296108049002
3357.0,0.008685301823389224
3356.0,0.008640997362049818
3355.0,0.008640997362049818
3354.0,0.008685301823389224
3353.0,0.0087296108049002
3352.0,0.008862564879688284
3351.0,0.008995559669244813
3350.0,0.009039900317800775
3349.0,0.009039900317800775
3348.0,0.009039900317800775
3347.0,0.008995559669244813
3346.0,0.008995559669244813
3345.0,0.008995559669244813
3344.0,0.008995559669244813
3343.0,0.008995559669244813
3342.0,0.009039900317800775
3341.0,0.00908424549391551
3340.0,0.00908424549391551
3339.0,0.00908424549391551
3338.0,0.00908424549391551
3337.0,0.00908424549391551
3336.0,0.008995559669244813
3335.0,0.008906891951112605
3334.0,0.008906891951112605
3333.0,0.008906891951112605
3332.0,0.009039900317800775
3331.0,0.009172949432521227
3330.0,0.009306039320248427
3329.0,0.00939478857608056
3328.0,0.009439170005980158
3327.0,0.009439170005980158
3326.0,0.009350411681145587
3325.0,0.009217308196862062
3324.0,0.008995559669244813
3323.0,0.008773924307505121
3322.0,0.008640997362049818
3321.0,0.008596697419959609
3320.0,0.008596697419959609
3319.0,0.008596697419959609
3318.0,0.008596697419959609
3317.0,0.008596697419959609
3316.0,0.008640997362049818
3315.0,0.008773924307505121
3314.0,0.008906891951112605
3313.0,0.008906891951112605
3312.0,0.008906891951112605
3311.0,0.008862564879688284
3310.0,0.008862564879688284
3309.0,0.008862564879688284
3308.0,0.008906891951112605
3307.0,0.008862564879688284
3306.0,0.008862564879688284
3305.0,0.008862564879688284
3304.0,0.008862564879688284
3303.0,0.008818242332126802
3302.0,0.008773924307505121
3301.0,0.008640997362049818
3300.0,0.008596697419959609
3299.0,0.008596697419959609
3298.0,0.008640997362049818
3297.0,0.008773924307505121
3296.0,0.008862564879688284
3295.0,0.008906891951112605
3294.0,0.008906891951112605
3293.0,0.0087296108049002
3292.0,0.008552401996197112
3291.0,0.008375265465994541
3290.0,0.008286724286910463
3289.0,0.008330992620051436
3288.0,0.008419542825660153
3287.0,0.008552401996197112
3286.0,0.008685301823389224
3285.0,0.008685301823389224
3284.0,0.008596697419959609
3283.0,0.00850811108984062
3282.0,0.008463824699968647
3281.0,0.008463824699968647
3280.0,0.008552401996197112
3279.0,0.008596697419959609
3278.0,0.008596697419959609
3277.0,0.008552401996197112
3276.0,0.00850811108984062
3275.0,0.008419542825660153
3274.0,0.008375265465994541
3273.0,0.008330992620051436
3272.0,0.008242460465651913
3271.0,0.008242460465651913
3270.0,0.008330992620051436
3269.0,0.008419542825660153
3268.0,0.008552401996197112
3267.0,0.008596697419959609
3266.0,0.008596697419959609
3265.0,0.00850811108984062
3264.0,0.008419542825660153
3263.0,0.008375265465994541
3262.0,0.008330992620051436
3261.0,0.008330992620051436
3260.0,0.008375265465994541
3259.0,0.008463824699968647
3258.0,0.00850811108984062
3257.0,0.00850811108984062
3256.0,0.00850811108984062
3255.0,0.00850811108984062
3254.0,0.008596697419959609
3253.0,0.008773924307505121
3252.0,0.008906891951112605
3251.0,0.008995559669244813
3250.0,0.008995559669244813
3249.0,0.008906891951112605
3248.0,0.008818242332126802
3247.0,0.0087296108049002
3246.0,0.008596697419959609
3245.0,0.00850811108984062
3244.0,0.008419542825660153
3243.0,0.008419542825660153
3242.0,0.008463824699968647
3241.0,0.00850811108984062
3240.0,0.00850811108984062
3239.0,0.008375265465994541
3238.0,0.008286724286910463
3237.0,0.008198201155356077
3236.0,0.008153946355103248
3235.0,0.008153946355103248
3234.0,0.008153946355103248
3233.0,0.008198201155356077
3232.0,0.008198201155356077
3231.0,0.008242460465651913
3230.0,0.008286724286910463
3229.0,0.008330992620051436
3228.0,0.008375265465994541
3227.0,0.008419542825660153
3226.0,0.00850811108984062
3225.0,0.008640997362049818
3224.0,0.008685301823389224
3223.0,0.008640997362049818
3222.0,0.008419542825660153
3221.0,0.008242460465651913
3220.0,0.008065450281052211
3219.0,0.008021209005416363
3218.0,0.008021209005416363
3217.0,0.008065450281052211
3216.0,0.008153946355103248
3215.0,0.008153946355103248
3214.0,0.008065450281052211
3213.0,0.008021209005416363
3212.0,0.008065450281052211
3211.0,0.008242460465651913
3210.0,0.008419542825660153
3209.0,0.008463824699968647
3208.0,0.008375265465994541
3207.0,0.008286724286910463
3206.0,0.008198201155356077
3205.0,0.008242460465651913
3204.0,0.008286724286910463
3203.0,0.008375265465994541
3202.0,0.008375265465994541
3201.0,0.008375265465994541
3200.0,0.008330992620051436
3199.0,0.008286724286910463
3198.0,0.008198201155356077
3197.0,0.008153946355103248
3196.0,0.008153946355103248
3195.0,0.008242460465651913
3194.0,0.008330992620051436
3193.0,0.008375265465994541
3192.0,0.008375265465994541
3191.0,0.008375265465994541
3190.0,0.008330992620051436
3189.0,0.008286724286910463
3188.0,0.008242460465651913
3187.0,0.008242460465651913
3186.0,0.008242460465651913
3185.0,0.008198201155356077
3184.0,0.008153946355103248
3183.0,0.008153946355103248
3182.0,0.008153946355103248
3181.0,0.008242460465651913
3180.0,0.008330992620051436
3179.0,0.008375265465994541
3178.0,0.008375265465994541
3177.0,0.008375265465994541
3176.0,0.008419542825660153
3175.0,0.00850811108984062
3174.0,0.008552401996197112
3173.0,0.008463824699968647
3172.0,0.008330992620051436
3171.0,0.008242460465651913
3170.0,0.008198201155356077
3169.0,0.008198201155356077
3168.0,0.008153946355103248
3167.0,0.008109696063975047
3166.0,0.008109696063975047
3165.0,0.008153946355103248
3164.0,0.008286724286910463
3163.0,0.008330992620051436
3162.0,0.008286724286910463
3161.0,0.008153946355103248
3160.0,0.008109696063975047
3159.0,0.008153946355103248
3158.0,0.008198201155356077
3157.0,0.008242460465651913
3156.0,0.008286724286910463
3155.0,0.008286724286910463
3154.0,0.008286724286910463
3153.0,0.008286724286910463
3152.0,0.008286724286910463
3151.0,0.008242460465651913
3150.0,0.008198201155356077
3149.0,0.008198201155356077
3148.0,0.008198201155356077
3147.0,0.008153946355103248
3146.0,0.008065450281052211
3145.0,0.007976972236149349
3144.0,0.008021209005416363
3143.0,0.008109696063975047
3142.0,0.008286724286910463
3141.0,0.008463824699968647
3140.0,0.008596697419959609
3139.0,0.008640997362049818
3138.0,0.008640997362049818
3137.0,0.008552401996197112
3136.0,0.008463824699968647
3135.0,0.008330992620051436
3134.0,0.008330992620051436
3133.0,0.008375265465994541
3132.0,0.008463824699968647
3131.0,0.008552401996197112
3130.0,0.008552401996197112
3129.0,0.008552401996197112
3128.0,0.008552401996197112
3127.0,0.00850811108984062
3126.0,0.008463824699968647
3125.0,0.008463824699968647
3124.0,0.008463824699968647
3123.0,0.00850811108984062
3122.0,0.008552401996197112
3121.0,0.008552401996197112
3120.0,0.008596697419959609
3119.0,0.008596697419959609
3118.0,0.008552401996197112
3117.0,0.00850811108984062
3116.0,0.00850811108984062
3115.0,0.008552401996197112
3114.0,0.008685301823389224
3113.0,0.008773924307505121
3112.0,0.008862564879688284
3111.0,0.008906891951112605
3110.0,0.008862564879688284
3109.0,0.008862564879688284
3108.0,0.008906891951112605
3107.0,0.008995559669244813
3106.0,0.009172949432521227
3105.0,0.009261671492462709
3104.0,0.009350411681145587
3103.0,0.009439170005980158
3102.0,0.00939478857608056
3101.0,0.009306039320248427
3100.0,0.009172949432521227
3099.0,0.00908424549391551
3098.0,0.00908424549391551
3097.0,0.00908424549391551
3096.0,0.00908424549391551
3095.0,0.009039900317800775
3094.0,0.009039900317800775
3093.0,0.00908424549391551
3092.0,0.009128595198514056
3091.0,0.009217308196862062
3090.0,0.009217308196862062
3089.0,0.009261671492462709
3088.0,0.009350411681145587
3087.0,0.009439170005980158
3086.0,0.009527946474380489
3085.0,0.009616741093766423
3084.0,0.009616741093766423
3083.0,0.00966114521239847
3082.0,0.009705553871561357
3081.0,0.00974996707218323
3080.0,0.009838807101520963
3079.0,0.009838807101520963
3078.0,0.009838807101520963
3077.0,0.009883233932095559
3076.0,0.009883233932095559
3075.0,0.009883233932095559
3074.0,0.009883233932095559
3073.0,0.009927665307847056
3072.0,0.009972101229705377
3071.0,0.009972101229705377
3070.0,0.009927665307847056
3069.0,0.009838807101520963
3068.0,0.009838807101520963
3067.0,0.009838807101520963
3066.0,0.009927665307847056
3065.0,0.009927665307847056
3064.0,0.009927665307847056
3063.0,0.009883233932095559
3062.0,0.009838807101520963
3061.0,0.009838807101520963
3060.0,0.009927665307847056
3059.0,0.01001654169860089
3058.0,0.010105436281226954
3057.0,0.010149890396819572
3056.0,0.010194349063173958
3055.0,0.01023881228122181
3054.0,0.010283280051895272
3053.0,0.010283280051895272
3052.0,0.010194349063173958
3051.0,0.010105436281226954
3050.0,0.009927665307847056
3049.0,0.009794384815193347
3048.0,0.009616741093766423
3047.0,0.009439170005980158
3046.0,0.009306039320248427
3045.0,0.009172949432521227
3044.0,0.009039900317800775
3043.0,0.008951223547323472
3042.0,0.008906891951112605
3041.0,0.008906891951112605
3040.0,0.008862564879688284
3039.0,0.008818242332126802
3038.0,0.008773924307505121
3037.0,0.0087296108049002
3036.0,0.0087296108049002
3035.0,0.008685301823389224
3034.0,0.008640997362049818
3033.0,0.008596697419959609
3032.0,0.008640997362049818
3031.0,0.0087296108049002
3030.0,0.008773924307505121
3029.0,0.008818242332126802
3028.0,0.008862564879688284
3027.0,0.008906891951112605
3026.0,0.008906891951112605
3025.0,0.008862564879688284
3024.0,0.008862564879688284
3023.0,0.008906891951112605
3022.0,0.008951223547323472
3021.0,0.009039900317800775
3020.0,0.009128595198514056
3019.0,0.009217308196862062
3018.0,0.009261671492462709
3017.0,0.009306039320248427
3016.0,0.009350411681145587
3015.0,0.00939478857608056
3014.0,0.009483555971770974
3013.0,0.009572341514736404
3012.0,0.00966114521239847
3011.0,0.00974996707218323
3010.0,0.009794384815193347
3009.0,0.009794384815193347
3008.0,0.009838807101520963
3007.0,0.009972101229705377
3006.0,0.010060986715464404
3005.0,0.010105436281226954
3004.0,0.010149890396819572
3003.0,0.010149890396819572
3002.0,0.010149890396819572
3001.0,0.01023881228122181
3000.0,0.010327752376126709
2999.0,0.010416710688994968
2998.0,0.010550182333308289
2997.0,0.010728208358306901
2996.0,0.01086177578421088
2995.0,0.010995384301463185
2994.0,0.011084479487313281
2993.0,0.011129033935354915
2992.0,0.01117359295472431
2991.0,0.011262724711199823
2990.0,0.011307297450183107
2989.0,0.011396456654336085
2988.0,0.011485634166333858
2987.0,0.011664044143949504
2986.0,0.011797899741219142
2985.0,0.0119764380713403
2984.0,0.01215504982870197
2983.0,0.012333735073725371
2982.0,0.012512493866907004
2981.0,0.012691326268817527
2980.0,0.012870232340102872
2979.0,0.013004460275618523
2978.0,0.013138729709955221
2977.0,0.013317820220494436
2976.0,0.013496984613259544
2975.0,0.01372104409400876
2974.0,0.01403492169512921
2973.0,0.014304140310157809
2972.0,0.014573525916998342
2971.0,0.014798141635428141
2970.0,0.015067833932588037
2969.0,0.015337693809893471
2968.0,0.015607721475734415
2967.0,0.015877917138889863
2966.0,0.016103208673694303
2965.0,0.01628352608625061
2964.0,0.016509028184833463
2963.0,0.01677978535189717
2962.0,0.017050711425501408
2961.0,0.017231422748988034
2960.0,0.017321806616515723
2959.0,0.017367005605150476
2958.0,0.017412209298337533
2957.0,0.017457417697056554
2956.0,0.017502630802287644
2955.0,0.017502630802287644
2954.0,0.017412209298337533
2953.0,0.017231422748988034
2952.0,0.017050711425501408
2951.0,0.016824927962187042
2950.0,0.016554142658660398
2949.0,0.01632861713980338
2948.0,0.016013078034810446
2947.0,0.015697768020096703
2946.0,0.015292705517326866
2945.0,0.014932966849499074
2944.0,0.014618439768003144
2943.0,0.014393916947563534
2942.0,0.014124642691606404
2941.0,0.01385553528947936
2940.0,0.013541787262693505
2939.0,0.01322826573375524
2938.0,0.012959713020733288
2937.0,0.012691326268817527
2936.0,0.012423105273012602
2935.0,0.012244383261476699
2934.0,0.01215504982870197
2933.0,0.012110390002254778
2932.0,0.012110390002254778
2931.0,0.012065734767841452
2930.0,0.0119764380713403
2929.0,0.011842527443247208
2928.0,0.011753276624621556
2927.0,0.011664044143949504
2926.0,0.011619434777991433
2925.0,0.011574829993696856
2924.0,0.011530229790124524
2923.0,0.011485634166333858
2922.0,0.011441043121384498
2921.0,0.011396456654336085
2920.0,0.011307297450183107
2919.0,0.011307297450183107
2918.0,0.011351874764248926
2917.0,0.011485634166333858
2916.0,0.011574829993696856
2915.0,0.011574829993696856
2914.0,0.011530229790124524
2913.0,0.011441043121384498
2912.0,0.011441043121384498
2911.0,0.011441043121384498
2910.0,0.011485634166333858
2909.0,0.011530229790124524
2908.0,0.011574829993696856
2907.0,0.011619434777991433
2906.0,0.011664044143949504
2905.0,0.011753276624621556
2904.0,0.011797899741219142
2903.0,0.011797899741219142
2902.0,0.011797899741219142
2901.0,0.011753276624621556
2900.0,0.011753276624621556
2899.0,0.011753276624621556
2898.0,0.011797899741219142
2897.0,0.011842527443247208
2896.0,0.0119764380713403
2895.0,0.012110390002254778
2894.0,0.012289056869694281
2893.0,0.012423105273012602
2892.0,0.012512493866907004
2891.0,0.012557195064198723
2890.0,0.012557195064198723
2889.0,0.012557195064198723
2888.0,0.012557195064198723
2887.0,0.012467797270160563
2886.0,0.012333735073725371
2885.0,0.012244383261476699
2884.0,0.012199714248127602
2883.0,0.012199714248127602
2882.0,0.012199714248127602
2881.0,0.012199714248127602
2880.0,0.012110390002254778
2879.0,0.012021084124518078
2878.0,0.011887159731648111
2877.0,0.011797899741219142
2876.0,0.011708658092512314
2875.0,0.011664044143949504
2874.0,0.011664044143949504
2873.0,0.011664044143949504
2872.0,0.011664044143949504
2871.0,0.011574829993696856
2870.0,0.011485634166333858
2869.0,0.011441043121384498
2868.0,0.011441043121384498
2867.0,0.011396456654336085
2866.0,0.011351874764248926
2865.0,0.011218156546359825
2864.0,0.01117359295472431
2863.0,0.011129033935354915
2862.0,0.01117359295472431
2861.0,0.011218156546359825
2860.0,0.011262724711199823
2859.0,0.011307297450183107
2858.0,0.011351874764248926
2857.0,0.011351874764248926
2856.0,0.011396456654336085
2855.0,0.011441043121384498
2854.0,0.011485634166333858
2853.0,0.011485634166333858
2852.0,0.011441043121384498
2851.0,0.011262724711199823
2850.0,0.011084479487313281
2849.0,0.01086177578421088
2848.0,0.010683695010048622
2847.0,0.010550182333308289
2846.0,0.010505687227290839
2845.0,0.01046119667949763
2844.0,0.01046119667949763
2843.0,0.01046119667949763
2842.0,0.01037222925484893
2841.0,0.010327752376126709
2840.0,0.010283280051895272
2839.0,0.01023881228122181
2838.0,0.01023881228122181
2837.0,0.010194349063173958
2836.0,0.010149890396819572
2835.0,0.010105436281226954
2834.0,0.010105436281226954
2833.0,0.010105436281226954
2832.0,0.010060986715464404
2831.0,0.010060986715464404
2830.0,0.009972101229705377
2829.0,0.009927665307847056
2828.0,0.009883233932095559
2827.0,0.009838807101520963
2826.0,0.009794384815193347
2825.0,0.00974996707218323
2824.0,0.009705553871561357
2823.0,0.009705553871561357
2822.0,0.009705553871561357
2821.0,0.009705553871561357
2820.0,0.00974996707218323
2819.0,0.00974996707218323
2818.0,0.00974996707218323
2817.0,0.009705553871561357
2816.0,0.009705553871561357
2815.0,0.00966114521239847
2814.0,0.00966114521239847
2813.0,0.009616741093766423
2812.0,0.00966114521239847
2811.0,0.00966114521239847
2810.0,0.00966114521239847
2809.0,0.009572341514736404
2808.0,0.009527946474380489
2807.0,0.009527946474380489
2806.0,0.009572341514736404
2805.0,0.009616741093766423
2804.0,0.00966114521239847
2803.0,0.00966114521239847
2802.0,0.00966114521239847
2801.0,0.00966114521239847
2800.0,0.009616741093766423
2799.0,0.009527946474380489
2798.0,0.009483555971770974
2797.0,0.009439170005980158
2796.0,0.009439170005980158
2795.0,0.009483555971770974
2794.0,0.009483555971770974
2793.0,0.009483555971770974
2792.0,0.009483555971770974
2791.0,0.009483555971770974
2790.0,0.009527946474380489
2789.0,0.009527946474380489
2788.0,0.009572341514736404
2787.0,0.009527946474380489
2786.0,0.009483555971770974
2785.0,0.009439170005980158
2784.0,0.00939478857608056
2783.0,0.009439170005980158
2782.0,0.009439170005980158
2781.0,0.00939478857608056
2780.0,0.009350411681145587
2779.0,0.009306039320248427
2778.0,0.009306039320248427
2777.0,0.009261671492462709
2776.0,0.009261671492462709
2775.0,0.009306039320248427
2774.0,0.00939478857608056
2773.0,0.009439170005980158
2772.0,0.009483555971770974
2771.0,0.009483555971770974
2770.0,0.009483555971770974
2769.0,0.009439170005980158
2768.0,0.009439170005980158
2767.0,0.009350411681145587
2766.0,0.009306039320248427
2765.0,0.009306039320248427
2764.0,0.009306039320248427
2763.0,0.009350411681145587
2762.0,0.00939478857608056
2761.0,0.009439170005980158
2760.0,0.00939478857608056
2759.0,0.009350411681145587
2758.0,0.009306039320248427
2757.0,0.009261671492462709
2756.0,0.009261671492462709
2755.0,0.009261671492462709
2754.0,0.009261671492462709
2753.0,0.009261671492462709
2752.0,0.009261671492462709
2751.0,0.009261671492462709
2750.0,0.009217308196862062
2749.0,0.009217308196862062
2748.0,0.009261671492462709
2747.0,0.009306039320248427
2746.0,0.009261671492462709
2745.0,0.009217308196862062
2744.0,0.009172949432521227
2743.0,0.009128595198514056
2742.0,0.00908424549391551
2741.0,0.00908424549391551
2740.0,0.00908424549391551
2739.0,0.00908424549391551
2738.0,0.009039900317800775
2737.0,0.008995559669244813
2736.0,0.008951223547323472
2735.0,0.008906891951112605
2734.0,0.008906891951112605
2733.0,0.008906891951112605
2732.0,0.008995559669244813
2731.0,0.009039900317800775
2730.0,0.00908424549391551
2729.0,0.00908424549391551
2728.0,0.009039900317800775
2727.0,0.008951223547323472
2726.0,0.008906891951112605
2725.0,0.008906891951112605
2724.0,0.008951223547323472
2723.0,0.008995559669244813
2722.0,0.009039900317800775
2721.0,0.009039900317800775
2720.0,0.008995559669244813
2719.0,0.008951223547323472
2718.0,0.008906891951112605
2717.0,0.008862564879688284
2716.0,0.008862564879688284
2715.0,0.008862564879688284
2714.0,0.008906891951112605
2713.0,0.008906891951112605
2712.0,0.008906891951112605
2711.0,0.008906891951112605
2710.0,0.008862564879688284
2709.0,0.008773924307505121
2708.0,0.0087296108049002
2707.0,0.008685301823389224
2706.0,0.008685301823389224
2705.0,0.008685301823389224
2704.0,0.008685301823389224
2703.0,0.008685301823389224
2702.0,0.0087296108049002
2701.0,0.0087296108049002
2700.0,0.008685301823389224
2699.0,0.008685301823389224
2698.0,0.008640997362049818
2697.0,0.008640997362049818
2696.0,0.008640997362049818
2695.0,0.008640997362049818
2694.0,0.008685301823389224
2693.0,0.0087296108049002
2692.0,0.0087296108049002
2691.0,0.008685301823389224
2690.0,0.008640997362049818
2689.0,0.008640997362049818
2688.0,0.008640997362049818
2687.0,0.008640997362049818
2686.0,0.008596697419959609
2685.0,0.008596697419959609
2684.0,0.008552401996197112
2683.0,0.00850811108984062
2682.0,0.008463824699968647
2681.0,0.008419542825660153
2680.0,0.008419542825660153
2679.0,0.008375265465994541
2678.0,0.008419542825660153
2677.0,0.008463824699968647
2676.0,0.008552401996197112
2675.0,0.008596697419959609
2674.0,0.008640997362049818
2673.0,0.008640997362049818
2672.0,0.008640997362049818
2671.0,0.008552401996197112
2670.0,0.00850811108984062
2669.0,0.008463824699968647
2668.0,0.008419542825660153
2667.0,0.008419542825660153
2666.0,0.008419542825660153
2665.0,0.008419542825660153
2664.0,0.008463824699968647
2663.0,0.008463824699968647
2662.0,0.00850811108984062
2661.0,0.00850811108984062
2660.0,0.00850811108984062
2659.0,0.008463824699968647
2658.0,0.008375265465994541
2657.0,0.008330992620051436
2656.0,0.008330992620051436
2655.0,0.008330992620051436
2654.0,0.008330992620051436
2653.0,0.008330992620051436
2652.0,0.008375265465994541
2651.0,0.008419542825660153
2650.0,0.008419542825660153
2649.0,0.008375265465994541
2648.0,0.008330992620051436
2647.0,0.008330992620051436
2646.0,0.008330992620051436
2645.0,0.008330992620051436
2644.0,0.008330992620051436
2643.0,0.008330992620051436
2642.0,0.008375265465994541
2641.0,0.008375265465994541
2640.0,0.008419542825660153
2639.0,0.008375265465994541
2638.0,0.008375265465994541
2637.0,0.008330992620051436
2636.0,0.008330992620051436
2635.0,0.008375265465994541
2634.0,0.008419542825660153
2633.0,0.008419542825660153
2632.0,0.008375265465994541
2631.0,0.008375265465994541
2630.0,0.008375265465994541
2629.0,0.008375265465994541
2628.0,0.008419542825660153
2627.0,0.008463824699968647
2626.0,0.00850811108984062
2625.0,0.00850811108984062
2624.0,0.00850811108984062
2623.0,0.008463824699968647
2622.0,0.008375265465994541
2621.0,0.008375265465994541
2620.0,0.008375265465994541
2619.0,0.008375265465994541
2618.0,0.008419542825660153
2617.0,0.008419542825660153
2616.0,0.008375265465994541
2615.0,0.008330992620051436
2614.0,0.008330992620051436
2613.0,0.008286724286910463
2612.0,0.008242460465651913
2611.0,0.008242460465651913
2610.0,0.008242460465651913
2609.0,0.008286724286910463
2608.0,0.008330992620051436
2607.0,0.008375265465994541
2606.0,0.008419542825660153
2605.0,0.008463824699968647
2604.0,0.008463824699968647
2603.0,0.008463824699968647
2602.0,0.008463824699968647
2601.0,0.008419542825660153
2600.0,0.008419542825660153
2599.0,0.008463824699968647
2598.0,0.008463824699968647
2597.0,0.008463824699968647
2596.0,0.008463824699968647
2595.0,0.008375265465994541
2594.0,0.008330992620051436
2593.0,0.008286724286910463
2592.0,0.008242460465651913
2591.0,0.008286724286910463
2590.0,0.008330992620051436
2589.0,0.008375265465994541
2588.0,0.008419542825660153
2587.0,0.008419542825660153
2586.0,0.008419542825660153
2585.0,0.008375265465994541
2584.0,0.008419542825660153
2583.0,0.008463824699968647
2582.0,0.00850811108984062
2581.0,0.00850811108984062
2580.0,0.008463824699968647
2579.0,0.008419542825660153
2578.0,0.008375265465994541
2577.0,0.008375265465994541
2576.0,0.008375265465994541
2575.0,0.008463824699968647
2574.0,0.008463824699968647
2573.0,0.008463824699968647
2572.0,0.008419542825660153
2571.0,0.008375265465994541
2570.0,0.008375265465994541
2569.0,0.008330992620051436
2568.0,0.008286724286910463
2567.0,0.008242460465651913
2566.0,0.008242460465651913
2565.0,0.008242460465651913
2564.0,0.008242460465651913
2563.0,0.008198201155356077
2562.0,0.008198201155356077
2561.0,0.008242460465651913
2560.0,0.008286724286910463
2559.0,0.008330992620051436
2558.0,0.008286724286910463
2557.0,0.008242460465651913
2556.0,0.008153946355103248
2555.0,0.008109696063975047
2554.0,0.008109696063975047
2553.0,0.008109696063975047
2552.0,0.008198201155356077
2551.0,0.008286724286910463
2550.0,0.008330992620051436
2549.0,0.008375265465994541
2548.0,0.008375265465994541
2547.0,0.008375265465994541
2546.0,0.008375265465994541
2545.0,0.008330992620051436
2544.0,0.008286724286910463
2543.0,0.008286724286910463
2542.0,0.008286724286910463
2541.0,0.008286724286910463
2540.0,0.008286724286910463
2539.0,0.008286724286910463
2538.0,0.008286724286910463
2537.0,0.008286724286910463
2536.0,0.008286724286910463
2535.0,0.008330992620051436
2534.0,0.008375265465994541
2533.0,0.008463824699968647
2532.0,0.00850811108984062
2531.0,0.00850811108984062
2530.0,0.008463824699968647
2529.0,0.008375265465994541
2528.0,0.008286724286910463
2527.0,0.008242460465651913
2526.0,0.008242460465651913
2525.0,0.008242460465651913
2524.0,0.008242460465651913
2523.0,0.008198201155356077
2522.0,0.008198201155356077
2521.0,0.008198201155356077
2520.0,0.008198201155356077
2519.0,0.008242460465651913
2518.0,0.008286724286910463
2517.0,0.008242460465651913
2516.0,0.008242460465651913
2515.0,0.008198201155356077
2514.0,0.008198201155356077
2513.0,0.008153946355103248
2512.0,0.008109696063975047
2511.0,0.008065450281052211
2510.0,0.008065450281052211
2509.0,0.008065450281052211
2508.0,0.008109696063975047
2507.0,0.008109696063975047
2506.0,0.008065450281052211
2505.0,0.008065450281052211
2504.0,0.008021209005416363
2503.0,0.008021209005416363
2502.0,0.008021209005416363
2501.0,0.008021209005416363
2500.0,0.008021209005416363
2499.0,0.008021209005416363
2498.0,0.007976972236149349
2497.0,0.007976972236149349
2496.0,0.007932739972333236
2495.0,0.007932739972333236
2494.0,0.007976972236149349
2493.0,0.008021209005416363
2492.0,0.008021209005416363
2491.0,0.007976972236149349
2490.0,0.007932739972333236
2489.0,0.007800070204414977
2488.0,0.007755855953228474
2487.0,0.007711646202907652
2486.0,0.007755855953228474
2485.0,0.007755855953228474
2484.0,0.007800070204414977
2483.0,0.007800070204414977
2482.0,0.007755855953228474
2481.0,0.007755855953228474
2480.0,0.007711646202907652
2479.0,0.007711646202907652
2478.0,0.007667440952535687
2477.0,0.00762324020119709
2476.0,0.00762324020119709
2475.0,0.0075790439479759275
2474.0,0.0075790439479759275
2473.0,0.007534852191956709
2472.0,0.007490664932224611
2471.0,0.0074464821678643656
2470.0,0.007402303897961815
2469.0,0.007358130121602358
2468.0,0.007358130121602358
2467.0,0.007402303897961815
2466.0,0.007358130121602358
2465.0,0.007358130121602358
2464.0,0.007313960837872058
2463.0,0.007269796045857202
2462.0,0.007225635744644521
2461.0,0.007137328610972382
2460.0,0.007181479933320523
2459.0,0.007225635744644521
2458.0,0.007313960837872058
2457.0,0.007358130121602358
2456.0,0.007358130121602358
2455.0,0.007313960837872058
2454.0,0.007269796045857202
2453.0,0.007225635744644521
2452.0,0.007225635744644521
2451.0,0.007225635744644521
2450.0,0.007269796045857202
2449.0,0.007269796045857202
2448.0,0.007269796045857202
2447.0,0.007269796045857202
2446.0,0.007269796045857202
2445.0,0.007269796045857202
2444.0,0.007225635744644521
2443.0,0.007181479933320523
2442.0,0.007181479933320523
2441.0,0.007225635744644521
2440.0,0.007313960837872058
2439.0,0.007358130121602358
2438.0,0.007402303897961815
2437.0,0.007358130121602358
2436.0,0.007313960837872058
2435.0,0.007269796045857202
2434.0,0.007269796045857202
2433.0,0.007269796045857202
2432.0,0.007269796045857202
2431.0,0.007225635744644521
2430.0,0.007181479933320523
2429.0,0.007181479933320523
2428.0,0.007181479933320523
2427.0,0.007181479933320523
2426.0,0.007225635744644521
2425.0,0.007181479933320523
2424.0,0.007225635744644521
2423.0,0.007225635744644521
2422.0,0.007269796045857202
2421.0,0.007269796045857202
2420.0,0.007313960837872058
2419.0,0.007402303897961815
2418.0,0.0074464821678643656
2417.0,0.0074464821678643656
2416.0,0.0074464821678643656
2415.0,0.0074464821678643656
2414.0,0.007490664932224611
2413.0,0.007490664932224611
2412.0,0.0074464821678643656
2411.0,0.0074464821678643656
2410.0,0.0074464821678643656
2409.0,0.007402303897961815
2408.0,0.0074464821678643656
2407.0,0.007490664932224611
2406.0,0.007534852191956709
2405.0,0.007534852191956709
2404.0,0.0074464821678643656
2403.0,0.007402303897961815
2402.0,0.007313960837872058
2401.0,0.007269796045857202
2400.0,0.007269796045857202
2399.0,0.007313960837872058
2398.0,0.007402303897961815
2397.0,0.0074464821678643656
2396.0,0.007490664932224611
2395.0,0.007534852191956709
2394.0,0.0075790439479759275
2393.0,0.00762324020119709
2392.0,0.00762324020119709
2391.0,0.007667440952535687
2390.0,0.0075790439479759275
2389.0,0.007490664932224611
2388.0,0.007402303897961815
2387.0,0.007269796045857202
2386.0,0.007093181776687496
2385.0,0.006916639301937977
2384.0,0.006740168563263094
2383.0,0.00656376950238835
2382.0,0.006387442061109638
2381.0,0.00621118618129457
2380.0,0.006035001804881146
2379.0,0.005858888873877532
2378.0,0.005726851026829571
2377.0,0.005638848091999105
2376.0,0.005594853310833647
2375.0,0.005506877116487674
2374.0,0.00541891874010525
2373.0,0.00541891874010525
2372.0,0.005506877116487674
2371.0,0.005638848091999105
2370.0,0.005550862985963967
2369.0,0.004979393875242044
2368.0,0.003970171588923321
2367.0,0.0030944893043338695
2366.0,0.0029632891174733444
2365.0,0.003794893821675638
2364.0,0.004979393875242044
2363.0,0.005814871797682919
2362.0,0.00612308505878878
2361.0,0.006035001804881146
2360.0,0.00577085918230158
2359.0,0.005243055412371911
2358.0,0.004671990922590297
2357.0,0.004452550524862486
2356.0,0.004715892310740433
2355.0,0.005067263269958211
2354.0,0.0052870145684298375
2353.0,0.00537494623139545
2352.0,0.00537494623139545
2351.0,0.005243055412371911
2350.0,0.005023326350308999
2349.0,0.00458420145758498
2348.0,0.003794893821675638
2347.0,0.0028321285541661467
2346.0,0.002089632653256679
2345.0,0.0020459959305969555
2344.0,0.002701007590486082
2343.0,0.003619686766589858
2342.0,0.004320939488377862
2341.0,0.004759798137184523
2340.0,0.00489154225525934
2339.0,0.00484762310854614
2338.0,0.004759798137184523
2337.0,0.004671990922590297
2336.0,0.004671990922590297
2335.0,0.004803708402820517
2334.0,0.004979393875242044
2333.0,0.005199100705396198
2332.0,0.0052870145684298375
2331.0,0.005155150446602086
2330.0,0.004979393875242044
2329.0,0.004979393875242044
2328.0,0.005199100705396198
2327.0,0.005506877116487674
2326.0,0.005814871797682919
2325.0,0.005946936412324799
2324.0,0.00590291041179003
2323.0,0.005814871797682919
2322.0,0.005814871797682919
2321.0,0.005946936412324799
2320.0,0.00621118618129457
2319.0,0.006387442061109638
2318.0,0.006475596832934416
2317.0,0.006431517210272464
2316.0,0.006299305179649828
2315.0,0.006167133386013823
2314.0,0.006079041198713275
2313.0,0.006035001804881146
2312.0,0.006035001804881146
2311.0,0.006079041198713275
2310.0,0.006035001804881146
2309.0,0.00590291041179003
2308.0,0.00577085918230158
2307.0,0.005682847330363394
2306.0,0.005682847330363394
2305.0,0.005638848091999105
2304.0,0.005638848091999105
2303.0,0.005638848091999105
2302.0,0.005682847330363394
2301.0,0.005726851026829571
2300.0,0.005814871797682919
2299.0,0.00590291041179003
2298.0,0.00590291041179003
2297.0,0.00590291041179003
2296.0,0.00590291041179003
2295.0,0.005946936412324799
2294.0,0.006079041198713275
2293.0,0.006167133386013823
2292.0,0.00625524344553785
2291.0,0.006299305179649828
2290.0,0.006387442061109638
2289.0,0.006475596832934416
2288.0,0.006607862550997545
2287.0,0.006696062080525422
2286.0,0.006740168563263094
2285.0,0.006696062080525422
2284.0,0.006696062080525422
2283.0,0.006651960076740071
2282.0,0.00656376950238835
2281.0,0.006475596832934416
2280.0,0.006387442061109638
2279.0,0.006343371384537999
2278.0,0.006299305179649828
2277.0,0.006299305179649828
2276.0,0.00625524344553785
2275.0,0.00625524344553785
2274.0,0.00625524344553785
2273.0,0.00625524344553785
2272.0,0.00625524344553785
2271.0,0.00625524344553785
2270.0,0.006299305179649828
2269.0,0.00625524344553785
2268.0,0.00625524344553785
2267.0,0.00621118618129457
2266.0,0.00621118618129457
2265.0,0.00621118618129457
2264.0,0.00625524344553785
2263.0,0.00625524344553785
2262.0,0.00625524344553785
2261.0,0.00621118618129457
2260.0,0.006167133386013823
2259.0,0.00612308505878878
2258.0,0.006079041198713275
2257.0,0.006079041198713275
2256.0,0.006079041198713275
2255.0,0.006079041198713275
2254.0,0.00612308505878878
2253.0,0.006167133386013823
2252.0,0.006167133386013823
2251.0,0.006167133386013823
2250.0,0.00621118618129457
2249.0,0.00621118618129457
2248.0,0.00625524344553785
2247.0,0.00625524344553785
2246.0,0.00621118618129457
2245.0,0.00612308505878878
2244.0,0.006035001804881146
2243.0,0.006035001804881146
2242.0,0.006079041198713275
2241.0,0.00612308505878878
2240.0,0.006167133386013823
2239.0,0.006167133386013823
2238.0,0.00621118618129457
2237.0,0.006167133386013823
2236.0,0.006167133386013823
2235.0,0.006167133386013823
2234.0,0.006167133386013823
2233.0,0.00621118618129457
2232.0,0.00621118618129457
2231.0,0.006167133386013823
2230.0,0.006167133386013823
2229.0,0.006079041198713275
2228.0,0.006035001804881146
2227.0,0.006035001804881146
2226.0,0.005990966876386672
2225.0,0.005990966876386672
2224.0,0.005990966876386672
2223.0,0.006035001804881146
2222.0,0.006079041198713275
2221.0,0.006079041198713275
2220.0,0.006079041198713275
2219.0,0.00612308505878878
2218.0,0.00612308505878878
2217.0,0.006167133386013823
2216.0,0.006167133386013823
2215.0,0.006167133386013823
2214.0,0.00612308505878878
2213.0,0.006035001804881146
2212.0,0.005990966876386672
2211.0,0.005946936412324799
2210.0,0.00590291041179003
2209.0,0.005858888873877532
2208.0,0.005858888873877532
2207.0,0.005858888873877532
2206.0,0.005858888873877532
2205.0,0.005858888873877532
2204.0,0.005858888873877532
2203.0,0.005814871797682919
2202.0,0.005814871797682919
2201.0,0.00577085918230158
2200.0,0.00577085918230158
2199.0,0.005726851026829571
2198.0,0.005726851026829571
2197.0,0.005682847330363394
2196.0,0.005682847330363394
2195.0,0.005682847330363394
2194.0,0.005726851026829571
2193.0,0.005726851026829571
2192.0,0.00577085918230158
2191.0,0.00577085918230158
2190.0,0.005682847330363394
2189.0,0.005638848091999105
2188.0,0.005550862985963967
2187.0,0.005506877116487674
2186.0,0.005506877116487674
2185.0,0.005506877116487674
2184.0,0.005550862985963967
2183.0,0.005594853310833647
2182.0,0.005550862985963967
2181.0,0.005506877116487674
2180.0,0.005462895701502157
2179.0,0.005462895701502157
2178.0,0.005462895701502157
2177.0,0.005506877116487674
2176.0,0.005550862985963967
2175.0,0.005594853310833647
2174.0,0.005594853310833647
2173.0,0.005550862985963967
2172.0,0.005550862985963967
2171.0,0.005594853310833647
2170.0,0.005594853310833647
2169.0,0.005638848091999105
2168.0,0.005594853310833647
2167.0,0.005594853310833647
2166.0,0.005594853310833647
2165.0,0.005682847330363394
2164.0,0.005726851026829571
2163.0,0.00577085918230158
2162.0,0.00577085918230158
2161.0,0.00577085918230158
2160.0,0.00577085918230158
2159.0,0.005814871797682919
2158.0,0.005858888873877532
2157.0,0.005946936412324799
2156.0,0.005990966876386672
2155.0,0.005990966876386672
2154.0,0.005990966876386672
2153.0,0.005990966876386672
2152.0,0.005990966876386672
2151.0,0.005990966876386672
2150.0,0.005990966876386672
2149.0,0.005946936412324799
2148.0,0.00590291041179003
2147.0,0.005814871797682919
2146.0,0.00577085918230158
2145.0,0.005726851026829571
2144.0,0.005726851026829571
2143.0,0.005726851026829571
2142.0,0.005726851026829571
2141.0,0.005726851026829571
2140.0,0.005682847330363394
2139.0,0.005682847330363394
2138.0,0.005726851026829571
2137.0,0.005726851026829571
2136.0,0.005726851026829571
2135.0,0.005726851026829571
2134.0,0.005726851026829571
2133.0,0.005726851026829571
2132.0,0.00577085918230158
2131.0,0.005814871797682919
2130.0,0.005858888873877532
2129.0,0.005814871797682919
2128.0,0.00577085918230158
2127.0,0.005726851026829571
2126.0,0.005682847330363394
2125.0,0.005726851026829571
2124.0,0.005726851026829571
2123.0,0.00577085918230158
2122.0,0.00577085918230158
2121.0,0.00577085918230158
2120.0,0.00577085918230158
2119.0,0.005726851026829571
2118.0,0.005638848091999105
2117.0,0.005550862985963967
2116.0,0.005506877116487674
2115.0,0.005462895701502157
2114.0,0.005506877116487674
2113.0,0.005550862985963967
2112.0,0.005594853310833647
2111.0,0.005594853310833647
2110.0,0.005638848091999105
2109.0,0.005682847330363394
2108.0,0.005682847330363394
2107.0,0.005726851026829571
2106.0,0.005726851026829571
2105.0,0.005682847330363394
2104.0,0.005638848091999105
2103.0,0.005550862985963967
2102.0,0.005506877116487674
2101.0,0.005506877116487674
2100.0,0.005506877116487674
2099.0,0.005506877116487674
2098.0,0.005506877116487674
2097.0,0.005462895701502157
2096.0,0.00541891874010525
2095.0,0.00541891874010525
2094.0,0.00541891874010525
2093.0,0.005462895701502157
2092.0,0.005506877116487674
2091.0,0.005462895701502157
2090.0,0.00541891874010525
2089.0,0.00541891874010525
2088.0,0.00541891874010525
2087.0,0.00541891874010525
2086.0,0.00537494623139545
2085.0,0.0052870145684298375
2084.0,0.005243055412371911
2083.0,0.005199100705396198
2082.0,0.005243055412371911
2081.0,0.005243055412371911
2080.0,0.005243055412371911
2079.0,0.005199100705396198
2078.0,0.005067263269958211
2077.0,0.004979393875242044
2076.0,0.004935465843858511
2075.0,0.004935465843858511
2074.0,0.00489154225525934
2073.0,0.00484762310854614
2072.0,0.004759798137184523
2071.0,0.004715892310740433
2070.0,0.004715892310740433
2069.0,0.004671990922590297
2068.0,0.004671990922590297
2067.0,0.004671990922590297
2066.0,0.004628093971837721
2065.0,0.00458420145758498
2064.0,0.0044964297349936455
2063.0,0.004452550524862486
2062.0,0.0043648054024501
2061.0,0.0043648054024501
2060.0,0.0043648054024501
2059.0,0.004320939488377862
2058.0,0.004320939488377862
2057.0,0.004320939488377862
2056.0,0.004277078004534696
2055.0,0.004277078004534696
2054.0,0.004277078004534696
2053.0,0.004277078004534696
2052.0,0.004277078004534696
2051.0,0.004277078004534696
2050.0,0.004277078004534696
2049.0,0.004233220950025984
2048.0,0.004233220950025984
2047.0,0.004233220950025984
2046.0,0.004189368323957332
2045.0,0.004145520125434121
2044.0,0.004101676353562844
2043.0,0.0040578370074493275
2042.0,0.004101676353562844
2041.0,0.004101676353562844
2040.0,0.0040578370074493275
2039.0,0.003970171588923321
2038.0,0.0038825238627120395
2037.0,0.0038387066319929275
2036.0,0.0038825238627120395
2035.0,0.003926345514724705
2034.0,0.003970171588923321
2033.0,0.00401400208620073
2032.0,0.003970171588923321
2031.0,0.0038825238627120395
2030.0,0.0038387066319929275
2029.0,0.0038387066319929275
2028.0,0.003926345514724705
2027.0,0.003970171588923321
2026.0,0.00401400208620073
2025.0,0.00401400208620073
2024.0,0.003926345514724705
2023.0,0.0038387066319929275
2022.0,0.0037510854308679953
2021.0,0.003707281458678491
2020.0,0.0037510854308679953
2019.0,0.003794893821675638
2018.0,0.0038387066319929275
2017.0,0.003794893821675638
2016.0,0.0037510854308679953
2015.0,0.0036634819042162814
2014.0,0.003619686766589858
2013.0,0.0036634819042162814
2012.0,0.0036634819042162814
2011.0,0.003707281458678491
2010.0,0.003707281458678491
2009.0,0.003707281458678491
2008.0,0.0037510854308679953
2007.0,0.0038387066319929275
2006.0,0.0038825238627120395
2005.0,0.0038825238627120395
2004.0,0.0038825238627120395
2003.0,0.0038825238627120395
2002.0,0.0038825238627120395
2001.0,0.003926345514724705
2000.0,0.003970171588923321
1999.0,0.00401400208620073
1998.0,0.00401400208620073
1997.0,0.003970171588923321
1996.0,0.003926345514724705
1995.0,0.003926345514724705
1994.0,0.003970171588923321
1993.0,0.00401400208620073
1992.0,0.004101676353562844
1991.0,0.004145520125434121
1990.0,0.004233220950025984
1989.0,0.004277078004534696
1988.0,0.004320939488377862
1987.0,0.004277078004534696
1986.0,0.004233220950025984
1985.0,0.004189368323957332
1984.0,0.004145520125434121
1983.0,0.004145520125434121
1982.0,0.004145520125434121
1981.0,0.004189368323957332
1980.0,0.004233220950025984
1979.0,0.004277078004534696
1978.0,0.004320939488377862
1977.0,0.004320939488377862
1976.0,0.004320939488377862
1975.0,0.004320939488377862
1974.0,0.004320939488377862
1973.0,0.004320939488377862
1972.0,0.0043648054024501
1971.0,0.0043648054024501
1970.0,0.0043648054024501
1969.0,0.0043648054024501
1968.0,0.004408675747646695
1967.0,0.0044964297349936455
1966.0,0.00458420145758498
1965.0,0.004628093971837721
1964.0,0.004715892310740433
1963.0,0.004759798137184523
1962.0,0.00484762310854614
1961.0,0.00484762310854614
1960.0,0.00489154225525934
1959.0,0.004979393875242044
1958.0,0.005067263269958211
1957.0,0.005111204635089406
1956.0,0.005155150446602086
1955.0,0.005243055412371911
1954.0,0.0052870145684298375
1953.0,0.0052870145684298375
1952.0,0.0052870145684298375
1951.0,0.0052870145684298375
1950.0,0.0052870145684298375
1949.0,0.005243055412371911
1948.0,0.005199100705396198
1947.0,0.005155150446602086
1946.0,0.005111204635089406
1945.0,0.005067263269958211
1944.0,0.005067263269958211
1943.0,0.005067263269958211
1942.0,0.004979393875242044
1941.0,0.00489154225525934
1940.0,0.004759798137184523
1939.0,0.004671990922590297
1938.0,0.0044964297349936455
1937.0,0.0043648054024501
1936.0,0.004189368323957332
1935.0,0.004101676353562844
1934.0,0.003970171588923321
1933.0,0.0038825238627120395
1932.0,0.0037510854308679953
1931.0,0.003707281458678491
1930.0,0.0036634819042162814
1929.0,0.003619686766589858
1928.0,0.0035321097382827737
1927.0,0.0034007772998332353
1926.0,0.0033132443998284966
1925.0,0.0032257291386954545
1924.0,0.0031819781204844855
1923.0,0.0031382315093266833
1922.0,0.0031382315093266833
1921.0,0.0030944893043338695
1920.0,0.0030944893043338695
1919.0,0.0030944893043338695
1918.0,0.0029632891174733444
1917.0,0.0028321285541661467
1916.0,0.002701007590486082
1915.0,0.002613615602686581
1914.0,0.0025262411970197185
1913.0,0.002395212539545666
1912.0,0.0023078820582733695
1911.0,0.0022205691343961664
1910.0,0.0021332737608552588
1909.0,0.002089632653256679
1908.0,0.0020023635919956817
1907.0,0.0019587356365717845
1906.0,0.001915112063444413
1905.0,0.001915112063444413
1904.0,0.0018278780605593958
1903.0,0.0017842676290416026
1902.0,0.0016970599014589638
1901.0,0.0016534626036355249
1900.0,0.0015226969634936083
1899.0,0.0014791171649619628
1898.0,0.0014355417390583547
1897.0,0.0013919706849057079
1896.0,0.001348404001626502
1895.0,0.0012612837441823288
1894.0,0.0011741809597138886
1893.0,0.0010870956412141197
1892.0,0.0010870956412141197
1891.0,0.0010870956412141197
1890.0,0.0010870956412141197
1889.0,0.0010435595295137379
1888.0,0.0009565003968372565
1887.0,0.0009129773741116676
1886.0,0.0008259444115150671
1885.0,0.0007389288868995258
1884.0,0.0006084382809090627
1883.0,0.0005649501236701937
1882.0,0.0004779868710962365
1881.0,0.00043451177401765406
1880.0,0.0003475746339209884
1879.0,0.00030411258916074324
1878.0,0.00026065489343207737
1877.0,0.00021720154586435392
1876.0,0.00017375254558760211
1875.0,0.0001303078917322953
1874.0,0.0001303078917322953
1873.0,0.0001303078917322953
1872.0,0.00021720154586435392
1871.0,0.0003475746339209884
1870.0,0.00030411258916074324
1869.0,0.0001303078917322953
1868.0,-0.00013026880522692963
1867.0,-0.00021709297223004853
1866.0,-0.00017368305846510168
1865.0,-0.00013026880522692963
1864.0,-0.00013026880522692963
1863.0,-0.00017368305846510168
1862.0,-0.00021709297223004853
1861.0,-0.0002604985473904087
1860.0,-0.00030389978481260016
1859.0,-0.00030389978481260016
1858.0,-0.0002604985473904087
1857.0,-0.00030389978481260016
1856.0,-0.00030389978481260016
1855.0,-0.0003472966853634851
1854.0,-0.0003472966853634851
1853.0,-0.0003472966853634851
1852.0,-0.0003472966853634851
1851.0,-0.0003472966853634851
1850.0,-0.00030389978481260016
1849.0,-0.0003472966853634851
1848.0,-0.0002604985473904087
1847.0,0.0
1846.0,0.00026065489343207737
1845.0,0.0003475746339209884
1844.0,0.00017375254558760211
1843.0,0.0
1842.0,-4.3427276862573194e-05
1841.0,0.0
1840.0,4.343161980746579e-05
1839.0,0.0
1838.0,0.0
1837.0,4.343161980746579e-05
1836.0,0.0001303078917322953
1835.0,0.00026065489343207737
1834.0,0.0003475746339209884
1833.0,0.0004779868710962365
1832.0,0.0005649501236701937
1831.0,0.0006084382809090627
1830.0,0.000521466320689834
1829.0,0.0003475746339209884
1828.0,0.0003475746339209884
1827.0,0.000521466320689834
1826.0,0.0006519307932786322
1825.0,0.0005649501236701937
1824.0,0.0003910410285830057
1823.0,0.00030411258916074324
1822.0,0.00026065489343207737
1821.0,0.00021720154586435392
1820.0,0.00017375254558760211
1819.0,0.00017375254558760211
1818.0,0.00021720154586435392
1817.0,0.00017375254558760211
1816.0,8.686758342868472e-05
1815.0,-8.685021164911433e-05
1814.0,-0.00021709297223004853
1813.0,-0.00030389978481260016
1812.0,-0.00043407747931878404
1811.0,-0.0005208409361854294
1810.0,-0.0006509536295951079
1809.0,-0.0007376737740329986
1808.0,-0.0008243766056055257
1807.0,-0.0008243766056055257
1806.0,-0.0008243766056055257
1805.0,-0.0007810273534953893
1804.0,-0.0006943158663546001
1803.0,-0.0005642161653756084
1802.0,-0.0005208409361854294
1801.0,-0.0005642161653756084
1800.0,-0.0006943158663546001
1799.0,-0.0008677215312267172
1798.0,-0.0009977303577937136
1797.0,-0.001041057986093552
1796.0,-0.001041057986093552
1795.0,-0.0008243766056055257
1794.0,-0.0006509536295951079
1793.0,-0.0006509536295951079
1792.0,-0.0008243766056055257
1791.0,-0.0010843812922201046
1790.0,-0.00121432528617893
1789.0,-0.00121432528617893
1788.0,-0.0011710149414008164
1787.0,-0.001041057986093552
1786.0,-0.0009977303577937136
1785.0,-0.001041057986093552
1784.0,-0.0010843812922201046
1783.0,-0.0010843812922201046
1782.0,-0.001041057986093552
1781.0,-0.0011277002770349043
1780.0,-0.00121432528617893
1779.0,-0.0011710149414008164
1778.0,-0.0011277002770349043
1777.0,-0.0011277002770349043
1776.0,-0.001041057986093552
1775.0,-0.0008243766056055257
1774.0,-0.0006509536295951079
1773.0,-0.0008243766056055257
1772.0,-0.0010843812922201046
1771.0,-0.0011277002770349043
1770.0,-0.0008243766056055257
1769.0,-0.0005208409361854294
1768.0,-0.0003472966853634851
1767.0,-0.0002604985473904087
1766.0,-0.00017368305846510168
1765.0,4.343161980746579e-05
1764.0,0.0003475746339209884
1763.0,0.0006954276616513155
1762.0,0.0010000277816797354
1761.0,0.0011306361176557367
1760.0,0.0013919706849057079
1759.0,0.0019587356365717845
1758.0,0.002569926202528716
1757.0,0.0030944893043338695
1756.0,0.003619686766589858
1755.0,0.004277078004534696
1754.0,0.005111204635089406
1753.0,0.005990966876386672
1752.0,0.007049039429553483
1751.0,0.00850811108984062
1750.0,0.01037222925484893
1749.0,0.012423105273012602
1748.0,0.014843078722943437
1747.0,0.01759307113620534
1746.0,0.02058821736556471
1745.0,0.024017056287453542
1744.0,0.028167720075074953
1743.0,0.032920265855503006
1742.0,0.03800971255993524
1741.0,0.04383156952463674
1740.0,0.050902874887084115
1739.0,0.05814087347462649
1738.0,0.06373765809652254
1737.0,0.06788152797087754
1736.0,0.0725783049495814
1735.0,0.0812883346176787
1734.0,0.09382663635595145
1733.0,0.1038045895457893
1732.0,0.11013827874181148
1731.0,0.11616828667054757
1730.0,0.12314735239865637
1729.0,0.13041629228657614
1728.0,0.1369151746796402
1727.0,0.1427278264359586
1726.0,0.14855818532794496
1725.0,0.1550260618531123
1724.0,0.16203298163134527
1723.0,0.1686422145579325
1722.0,0.1733422081241307
1721.0,0.17587416608345108
1720.0,0.1775703762206431
1719.0,0.1815101777957866
1718.0,0.189767482004916
1717.0,0.1985276864785288
1716.0,0.2032175882986922
1715.0,0.2049546295788751
1714.0,0.20488501436963658
1713.0,0.20266319922465015
1712.0,0.19845909380968174
1711.0,0.19334527600813955
1710.0,0.1878891587969005
1709.0,0.18177410638604452
1708.0,0.17457388223217696
1707.0,0.16672536070943655
1706.0,0.1588909155318461
1705.0,0.1514414278762366
1704.0,0.14429916916456276
1703.0,0.13727247168202528
1702.0,0.13012318673323353
1701.0,0.12291674334934943
1700.0,0.1165089098110701
1699.0,0.11109074073646874
1698.0,0.1063491830140364
1697.0,0.10182351650232357
1696.0,0.09729018703012282
1695.0,0.09301884677114591
1694.0,0.08937559511079884
1693.0,0.08618614761628329
1692.0,0.0830725338870073
1691.0,0.08003329851661278
1690.0,0.07743023101428781
1689.0,0.07530729697981409
1688.0,0.07329750581735506
1687.0,0.0710411591191702
1686.0,0.06859298644342648
1685.0,0.06712054217620067
1684.0,0.06686717627326577
1683.0,0.06615853710127872
1682.0,0.06479513257341862
1681.0,0.06313454102437754
1680.0,0.061380218497318895
1679.0,0.05963295401433477
1678.0,0.05799194697768684
1677.0,0.056456022846545606
1676.0,0.05507339001378431
1675.0,0.05379344615721715
1674.0,0.052419250695677544
1673.0,0.05095170768433621
1672.0,0.04953778109440221
1671.0,0.04832256265669943
1670.0,0.047352830241056854
1669.0,0.04643358574299339
1668.0,0.04527520902093718
1667.0,0.044071843103049346
1666.0,0.042775942156833
1665.0,0.04153168163305643
1664.0,0.04038628892895613
1663.0,0.03948165721929198
1662.0,0.03876880295533702
1661.0,0.03786753070176463
1660.0,0.036873558918095295
1659.0,0.03583468937826462
1658.0,0.03484535401307465
1657.0,0.03409308450480819
1656.0,0.033482823553208085
1655.0,0.03282657704446046
1654.0,0.03249882527715853
1653.0,0.032311649546687526
1652.0,0.030957032694186815
1651.0,0.029932203450862893
1650.0,0.02960662792039992
1649.0,0.029374223311705583
1648.0,0.02904906565457588
1647.0,0.028956208163971375
1646.0,0.028816959143838528
1645.0,0.028445846553939003
1644.0,0.027936083991977778
1643.0,0.02747318213414429
1642.0,0.027010773144651168
1641.0,0.026502691267936695
1640.0,0.025995203102585407
1639.0,0.02558042614771394
1638.0,0.025258095499050004
1637.0,0.02516604495145991
1636.0,0.025304128090317013
1635.0,0.02516604495145991
1634.0,0.02475205875931885
1633.0,0.02438440203310499
1632.0,0.023971159908874107
1631.0,0.02351246269481
1630.0,0.023100049017062307
1629.0,0.02277955336461468
1628.0,0.02245929405346514
1627.0,0.022230681908425698
1626.0,0.02200219004126036
1625.0,0.021773818325474092
1624.0,0.02159120737696063
1623.0,0.0214542995372613
1622.0,0.021317434843055594
1621.0,0.02122621566987748
1620.0,0.021271822861508305
1619.0,0.021363051615525652
1618.0,0.021773818325474092
1617.0,0.02255077261765881
1616.0,0.023237476732539397
1615.0,0.023604163388120325
1614.0,0.023741750742954926
1613.0,0.023695883447997224
1612.0,0.023374947949272418
1611.0,0.022871099419317753
1610.0,0.022367834754000393
1609.0,0.021819483062586187
1608.0,0.02122621566987748
1607.0,0.02058821736556471
1606.0,0.019996628416253603
1605.0,0.019451260640229506
1604.0,0.018906576854070378
1603.0,0.018362575344230914
1602.0,0.017909760704207134
1601.0,0.017412209298337533
1600.0,0.016960383953898095
1599.0,0.016554142658660398
1598.0,0.016193358021584725
1597.0,0.015877917138889863
1596.0,0.015562705203923999
1595.0,0.015337693809893471
1594.0,0.015202742910707112
1593.0,0.015157768594724175
1592.0,0.015112798935672522
1591.0,0.015112798935672522
1590.0,0.015157768594724175
1589.0,0.015292705517326866
1588.0,0.015427684378367834
1587.0,0.01578783323856614
1586.0,0.016418813294209356
1585.0,0.017412209298337533
1584.0,0.018815862601645694
1583.0,0.020542681902151694
1582.0,0.02245929405346514
1581.0,0.024154774532432866
1580.0,0.02553436426275746
1579.0,0.026410376572743033
1578.0,0.026502691267936695
1577.0,0.025810808881832736
1576.0,0.024522236834125355
1575.0,0.023054249440757957
1574.0,0.02200219004126036
1573.0,0.0211806132671577
1572.0,0.020315076172974234
1571.0,0.0192242260373785
1570.0,0.01809082990920774
1569.0,0.017095882207371904
1568.0,0.016373712875465518
1567.0,0.015832872853011715
1566.0,0.015337693809893471
1565.0,0.014753209197138295
1564.0,0.014304140310157809
1563.0,0.014079779876432497
1562.0,0.013945219230304673
1561.0,0.013541787262693505
1560.0,0.013049212141483357
1559.0,0.013093968619278806
1558.0,0.012959713020733288
1557.0,0.012780770091995297
1556.0,0.012736045877764557
1555.0,0.01260190086298274
1554.0,0.012289056869694281
1553.0,0.011931796607364653
1552.0,0.011753276624621556
1551.0,0.011664044143949504
1550.0,0.011485634166333858
1549.0,0.011262724711199823
1548.0,0.010995384301463185
1547.0,0.01086177578421088
1546.0,0.010728208358306901
1545.0,0.010683695010048622
1544.0,0.010639186223752484
1543.0,0.010550182333308289
1542.0,0.01037222925484893
1541.0,0.01023881228122181
1540.0,0.01001654169860089
1539.0,0.009439170005980158
1538.0,0.009128595198514056
1537.0,0.009306039320248427
1536.0,0.009705553871561357
1535.0,0.010060986715464404
1534.0,0.010327752376126709
1533.0,0.010505687227290839
1532.0,0.010550182333308289
1531.0,0.010505687227290839
1530.0,0.01046119667949763
1529.0,0.01046119667949763
1528.0,0.010505687227290839
1527.0,0.010505687227290839
1526.0,0.01046119667949763
1525.0,0.01037222925484893
1524.0,0.010194349063173958
1523.0,0.009927665307847056
1522.0,0.00966114521239847
1521.0,0.009483555971770974
1520.0,0.00939478857608056
1519.0,0.009350411681145587
1518.0,0.009350411681145587
1517.0,0.009306039320248427
1516.0,0.009261671492462709
1515.0,0.009350411681145587
1514.0,0.009616741093766423
1513.0,0.010060986715464404
1512.0,0.010683695010048622
1511.0,0.011485634166333858
1510.0,0.012557195064198723
1509.0,0.014079779876432497
1508.0,0.017412209298337533
1507.0,0.023237476732539397
1506.0,0.027426919073445077
1505.0,0.027843464140506313
1504.0,0.026410376572743033
1503.0,0.024246610963712723
1502.0,0.02159120737696063
1501.0,0.018770512579999288
1500.0,0.016058141016111804
1499.0,0.01372104409400876
1498.0,0.011708658092512314
1497.0,0.010105436281226954
1496.0,0.008773924307505121
1495.0,0.007755855953228474
1494.0,0.007181479933320523
1493.0,0.007004901568658406
1492.0,0.00696076819309055
1491.0,0.006828394969235152
1490.0,0.006651960076740071
1489.0,0.00656376950238835
1488.0,0.006519680930003435
1487.0,0.006431517210272464
1486.0,0.006387442061109638
1485.0,0.006475596832934416
1484.0,0.006651960076740071
1483.0,0.006872514894289861
1482.0,0.007137328610972382
1481.0,0.007490664932224611
1480.0,0.007800070204414977
1479.0,0.008109696063975047
1478.0,0.008419542825660153
1477.0,0.008818242332126802
1476.0,0.009217308196862062
1475.0,0.009527946474380489
1474.0,0.00974996707218323
1473.0,0.010060986715464404
1472.0,0.010416710688994968
1471.0,0.010594681998483901
1470.0,0.01086177578421088
1469.0,0.011262724711199823
1468.0,0.011887159731648111
1467.0,0.012780770091995297
1466.0,0.01403492169512921
1465.0,0.015697768020096703
1464.0,0.017321806616515723
1463.0,0.01858915983411169
1462.0,0.019678413991243593
1461.0,0.020907099361673565
1460.0,0.022322112326006227
1459.0,0.024017056287453542
1458.0,0.026410376572743033
1457.0,0.02904906565457588
1456.0,0.030397735151460825
1455.0,0.03063068826647264
1454.0,0.03058408764601861
1453.0,0.03058408764601861
1452.0,0.030444315779156517
1451.0,0.030211462585061133
1450.0,0.029978734171634214
1449.0,0.029885677714903025
1448.0,0.029839156962686353
1447.0,0.029653123769906697
1446.0,0.029374223311705583
1445.0,0.029141943003497595
1444.0,0.028956208163971375
1443.0,0.028770552723758724
1442.0,0.02858497661500481
1441.0,0.028353117935693284
1440.0,0.02812138297373412
1439.0,0.027750864037404455
1438.0,0.02710321556345563
1437.0,0.026087429580295085
1436.0,0.024476287039668643
1435.0,0.022642270454698687
1434.0,0.02081596632558158
1433.0,0.0190880622231564
1432.0,0.017367005605150476
1431.0,0.015652742414136167
1430.0,0.014079779876432497
1429.0,0.012691326268817527
1428.0,0.011574829993696856
1427.0,0.010817248744452446
1426.0,0.01023881228122181
1425.0,0.009838807101520963
1424.0,0.009705553871561357
1423.0,0.009927665307847056
1422.0,0.01046119667949763
1421.0,0.011307297450183107
1420.0,0.012825498912458322
1419.0,0.015247721884586563
1418.0,0.018271974638383703
1417.0,0.021819483062586187
1416.0,0.026087429580295085
1415.0,0.03147035562516054
1414.0,0.03810452633214956
1413.0,0.04609540658654021
1412.0,0.05502409158795207
1411.0,0.06328524178879635
1410.0,0.06940751155740177
1409.0,0.07268097504034388
1408.0,0.07293775650699996
1407.0,0.07042782092345012
1406.0,0.06600683616875758
1405.0,0.06068046892176193
1404.0,0.055566682299785564
1403.0,0.051098239029786274
1402.0,0.04725597598510167
1401.0,0.04397571771932274
1400.0,0.040958607678906356
1399.0,0.03824678581321739
1398.0,0.03597620715996652
1397.0,0.03409308450480819
1396.0,0.03235843591698884
1395.0,0.03058408764601861
1394.0,0.028863370523193765
1393.0,0.02724191609646076
1392.0,0.025764722556973707
1391.0,0.024522236834125355
1390.0,0.023466619608062178
1389.0,0.02259651912656535
1388.0,0.021865152601710403
1387.0,0.02122621566987748
1386.0,0.020770406977844713
1385.0,0.020542681902151694
1384.0,0.020542681902151694
1383.0,0.02081596632558158
1382.0,0.021363051615525652
1381.0,0.0221849739168134
1380.0,0.023283295636617574
1379.0,0.024568191490736968
1378.0,0.025902996205869
1377.0,0.027288159452933503
1376.0,0.02890978686288448
1375.0,0.03081714076773867
1374.0,0.03282657704446046
1373.0,0.03442204208947208
1372.0,0.035363296211498474
1371.0,0.035693217696063595
1370.0,0.03550466044490741
1369.0,0.03470420418834386
1368.0,0.033295223342125535
1367.0,0.03128362253321426
1366.0,0.02890978686288448
1365.0,0.026225806029419818
1364.0,0.023283295636617574
1363.0,0.02022406727031445
1362.0,0.017457417697056554
1361.0,0.015337693809893471
1360.0,0.013676222949234651
1359.0,0.012378417874516323
1358.0,0.011396456654336085
1357.0,0.010728208358306901
1356.0,0.010327752376126709
1355.0,0.010105436281226954
1354.0,0.010060986715464404
1353.0,0.010105436281226954
1352.0,0.01037222925484893
1351.0,0.01077272626946324
1350.0,0.011441043121384498
1349.0,0.012333735073725371
1348.0,0.013496984613259544
1347.0,0.014843078722943437
1346.0,0.01632861713980338
1345.0,0.017955020928509757
1344.0,0.01954210772389997
1343.0,0.0209982515252789
1342.0,0.022230681908425698
1341.0,0.023191662661933732
1340.0,0.023695883447997224
1339.0,0.023466619608062178
1338.0,0.02245929405346514
1337.0,0.020861530453190058
1336.0,0.018906576854070378
1335.0,0.016915227262211507
1334.0,0.015067833932588037
1333.0,0.013586594534531482
1332.0,0.012467797270160563
1331.0,0.011797899741219142
1330.0,0.011574829993696856
1329.0,0.011664044143949504
1328.0,0.012065734767841452
1327.0,0.01264661126420652
1326.0,0.013407393177789162
1325.0,0.014393916947563534
1324.0,0.015427684378367834
1323.0,0.016554142658660398
1322.0,0.017728766960431575
1321.0,0.018951941086827073
1320.0,0.02026956933771462
1319.0,0.02159120737696063
1318.0,0.02291687968414724
1317.0,0.024200690320592466
1316.0,0.02544225514642018
1315.0,0.02677975314776626
1314.0,0.028214062120885508
1313.0,0.029746130405213123
1312.0,0.03142366482450232
1311.0,0.033201453616638954
1310.0,0.03498654972775217
1309.0,0.03692083935817303
1308.0,0.03886378261277468
1307.0,0.04081545726880842
1306.0,0.04263219156847242
1305.0,0.04450467081587295
1304.0,0.046481918555007384
1303.0,0.04866248120408234
1302.0,0.05119595406718891
1301.0,0.05428528594013993
1300.0,0.05794231615860479
1299.0,0.06203099704854709
1298.0,0.06646209802829528
1297.0,0.07114346641808922
1296.0,0.0760310351245288
1295.0,0.08092190762392604
1294.0,0.0856568428805593
1293.0,0.09028354676565531
1292.0,0.09479797133768142
1291.0,0.0990869322623309
1290.0,0.10325338439259446
1289.0,0.10723776538418317
1288.0,0.11109074073646874
1287.0,0.11463877996848804
1286.0,0.11770319906234805
1285.0,0.12044539906102569
1284.0,0.12291674334934943
1283.0,0.12517042212027807
1282.0,0.12702836926155658
1281.0,0.1287190271420271
1280.0,0.13018179202067182
1279.0,0.13141433344123432
1278.0,0.13241467345296387
1277.0,0.13347637446715632
1276.0,0.13483678049391368
1275.0,0.13655817138629134
1274.0,0.1388241644869712
1273.0,0.141884067809934
1272.0,0.14587621789883287
1271.0,0.1507034591652734
1270.0,0.15614457737683884
1269.0,0.16209605540705763
1268.0,0.1683221508085333
1267.0,0.17470373556903995
1266.0,0.1809828013109407
1265.0,0.18708664335714453
1264.0,0.1928710444075783
1263.0,0.1980477651457182
1262.0,0.20238626984692432
1261.0,0.20606999322731534
1260.0,0.2090818047854217
1259.0,0.2111248842245832
1258.0,0.21232703531250707
1257.0,0.21317762050081246
1256.0,0.21388771628017356
1255.0,0.21467016498923286
1254.0,0.21559669824699146
1253.0,0.21695442788530706
1252.0,0.21889116427053357
1251.0,0.22127007600388815
1250.0,0.22388020094701222
1249.0,0.22687207596666514
1248.0,0.2302535328205466
1247.0,0.23381030668984004
1246.0,0.23732143627256375
1245.0,0.24101245313238073
1244.0,0.24465881618845242
1243.0,0.24795155218056153
1242.0,0.25072759170157966
1241.0,0.25297682254837217
1240.0,0.2547690154718594
1239.0,0.25586354759875274
1238.0,0.25594183412116456
1237.0,0.2550814575586471
1236.0,0.2532101678473877
1235.0,0.25026368443093894
1234.0,0.2461106685401666
1233.0,0.24116377525304178
1232.0,0.23559967704361195
1231.0,0.22929523178422073
1230.0,0.222500680409635
1229.0,0.21552535623748348
1228.0,0.20844969497266996
1227.0,0.20128031481499375
1226.0,0.1940236492824372
1225.0,0.18681946741398825
1224.0,0.17973284283903546
1223.0,0.1726953589102651
1222.0,0.16557929631846746
1221.0,0.158765704493959
1220.0,0.1523039792658345
1219.0,0.14605855411951008
1218.0,0.14014147951900724
1217.0,0.13454067733803532
1216.0,0.12930354201075
1215.0,0.12436006299583169
1214.0,0.11970100857424737
1213.0,0.11531789579397489
1212.0,0.11120293254331926
1211.0,0.10734896612269962
1210.0,0.10369429253391926
1209.0,0.10028890542885538
1208.0,0.09712721455392082
1207.0,0.09409623378338305
1206.0,0.09113982698272349
1205.0,0.08836306687055773
1204.0,0.08570974433405087
1203.0,0.08312512146131668
1202.0,0.08060807322614072
1201.0,0.07820951434181311
1200.0,0.0760310351245288
1199.0,0.07391491307485598
1198.0,0.0718090519612431
1197.0,0.06966236426227002
1196.0,0.06747550294945781
1195.0,0.0653500770992892
1194.0,0.06323500239005853
1193.0,0.06128018521761747
1192.0,0.05948351506743288
1191.0,0.05784307153250956
1190.0,0.05630767289398331
1189.0,0.0549255115212699
1188.0,0.053646002773725554
1187.0,0.05261529831525902
1186.0,0.05188057561946402
1185.0,0.05153812993871654
1184.0,0.0515870342213991
1183.0,0.05192951848105887
1182.0,0.0525172634430815
1181.0,0.05340037498486727
1180.0,0.05443294655761144
1179.0,0.05551732784983132
1178.0,0.05660442349104544
1177.0,0.05754547365752294
1176.0,0.05824018618530458
1175.0,0.05863766428823891
1174.0,0.058538260652670315
1173.0,0.05794231615860479
1172.0,0.05665390164340933
1171.0,0.05477768336465916
1170.0,0.052419250695677544
1169.0,0.04978123335813667
1168.0,0.04711073508906982
1167.0,0.04464904263234004
1166.0,0.04248848854552012
1165.0,0.04062466342415694
1164.0,0.03910132267333921
1163.0,0.03786753070176463
1162.0,0.03682628362474838
1161.0,0.03602339000339416
1160.0,0.03541041251009669
1159.0,0.03503362516890207
1158.0,0.0349394793888016
1157.0,0.03512779136222477
1156.0,0.035693217696063595
1155.0,0.036542739883292485
1154.0,0.03777276864991497
1153.0,0.03929144831144349
1152.0,0.041197296600497646
1151.0,0.04339941178682327
1150.0,0.04595055323640551
1149.0,0.04875964967565971
1148.0,0.05188057561946402
1147.0,0.055270639696704205
1146.0,0.058836539841526925
1145.0,0.06253226035662252
1144.0,0.06641148980334699
1143.0,0.0702746216219956
1142.0,0.07412091069849924
1141.0,0.07789763319239285
1140.0,0.08149786036382611
1139.0,0.08481129482684358
1138.0,0.08783110394037297
1137.0,0.09065796163869155
1136.0,0.09323411045927221
1135.0,0.09571734235437201
1134.0,0.09805153492691598
1133.0,0.10039834085387778
1132.0,0.1028679566179056
1131.0,0.10546241500425357
1130.0,0.10835105612944096
1129.0,0.11159583226295333
1128.0,0.11526126223036814
1127.0,0.11941504393502012
1126.0,0.12395544975390482
1125.0,0.12901118623942476
1124.0,0.13442229258007088
1123.0,0.13984173868172167
1122.0,0.14502632627358292
1121.0,0.14984407757790774
1120.0,0.1540961611012175
1119.0,0.157390760389438
1118.0,0.15958022226351387
1117.0,0.16064767110457878
1116.0,0.16058480731610647
1115.0,0.15945481236316117
1114.0,0.15745316350498495
1113.0,0.15521228117215347
1112.0,0.1532918545439932
1111.0,0.1523039792658345
1110.0,0.1527358982292355
1109.0,0.1548399223480541
1108.0,0.158765704493959
1107.0,0.16405589990615188
1106.0,0.17031035910102887
1105.0,0.17743966305730785
1104.0,0.18508681872492616
1103.0,0.19314197048118253
1102.0,0.20121128604875071
1101.0,0.2093630380682967
1100.0,0.21724080737600282
1099.0,0.22453519065426075
1098.0,0.23099212905622624
1097.0,0.23672178898102136
1096.0,0.24161805822532467
1095.0,0.2453459307445678
1094.0,0.24795155218056153
1093.0,0.24964591123729196
1092.0,0.2505729008782511
1091.0,0.25072759170157966
1090.0,0.2501091587285782
1089.0,0.2488749284644165
1088.0,0.24726030606467186
1087.0,0.24496406623222855
1086.0,0.2423003749122612
1085.0,0.2395021247734732
1084.0,0.2364222755333547
1083.0,0.23284413391781955
1082.0,0.22855951336008817
1081.0,0.22373478173189043
1080.0,0.2183882175068499
1079.0,0.21239785381766252
1078.0,0.20572113427860006
1077.0,0.19866490432545336
1076.0,0.19145144875959463
1075.0,0.1840903491132253
1074.0,0.17685194018930606
1073.0,0.16986061257465734
1072.0,0.16310648362356628
1071.0,0.1565803347950816
1070.0,0.15033494452126717
1069.0,0.1446020033459312
1068.0,0.13930272594796111
1067.0,0.13424477592854833
1066.0,0.12942053944731513
1065.0,0.125054563914468
1064.0,0.12113366304327466
1063.0,0.1175323851046286
1062.0,0.11418662533951118
1061.0,0.11125903931710734
1060.0,0.10885296955122903
1059.0,0.10684878687013422
1058.0,0.10540705207704448
1057.0,0.10457745396059215
1056.0,0.10430127304069425
1055.0,0.10452220372428545
1054.0,0.10518567091669917
1053.0,0.1063491830140364
1052.0,0.10790539730951965
1051.0,0.10974669484546551
1050.0,0.11176432672943282
1049.0,0.11401718864502697
1048.0,0.11633856484638239
1047.0,0.11861534322942724
1046.0,0.12067469921519258
1045.0,0.12251347193039863
1044.0,0.12407101507707297
1043.0,0.1251124891538875
1042.0,0.12569216687196105
1041.0,0.12586622117202761
1040.0,0.12563416426995122
1039.0,0.1249387366082999
1038.0,0.12389767862220635
1037.0,0.12274386688641381
1036.0,0.12153565465853111
1035.0,0.12027350336042275
1034.0,0.11907213473291511
1033.0,0.11787408022996826
1032.0,0.11667932161702477
1031.0,0.11531789579397489
1030.0,0.11379137583250243
1029.0,0.11221396516162851
1028.0,0.11075433910702048
1027.0,0.10946720807225518
1026.0,0.10874138309586101
1025.0,0.10902040301031102
1024.0,0.11103465569966264
1023.0,0.11543118508166672
1022.0,0.12268625668776156
1021.0,0.13294519952329842
1020.0,0.14575470293388149
1019.0,0.15970566838856382
1018.0,0.17263072694617465
1017.0,0.18223636771963214
1016.0,0.18641901143180806
1015.0,0.18435585086803474
1014.0,0.17678668671733244
1013.0,0.16596098184053343
1012.0,0.15434394001645568
1011.0,0.14339193156306385
1010.0,0.13388996015562338
1009.0,0.12586622117202761
1008.0,0.11907213473291511
1007.0,0.11317099532301778
1006.0,0.10812816955441629
1005.0,0.10385974855798041
1004.0,0.10034361969436434
1003.0,0.09734452478207412
1002.0,0.09468993788391455
1001.0,0.09231997575758011
1000.0,0.09017663034908807
999.0,0.08825662214406838
998.0,0.08650404038287651
997.0,0.08496970974083906
996.0,0.08365134772453975
995.0,0.08244197917456386
994.0,0.08134070657817682
993.0,0.08039897621588898
992.0,0.07956359344924135
991.0,0.07883394936226118
990.0,0.07820951434181311
989.0,0.07768983678560404
988.0,0.0772226580712021
987.0,0.07685964397479927
986.0,0.07660053384128362
985.0,0.0763933569825408
984.0,0.0763933569825408
983.0,0.07644514193245056
982.0,0.07649693305789551
981.0,0.07660053384128362
980.0,0.07660053384128362
979.0,0.07654873036034848
978.0,0.07649693305789551
977.0,0.07649693305789551
976.0,0.07649693305789551
975.0,0.0763933569825408
974.0,0.07623803917129979
973.0,0.0760310351245288
972.0,0.07577241873988227
971.0,0.07530729697981409
970.0,0.07468790850035045
969.0,0.07391491307485598
968.0,0.0729891310243489
967.0,0.07191154033502922
966.0,0.07068327324650436
965.0,0.06940751155740177
964.0,0.06833876031551878
963.0,0.06727263269847072
962.0,0.06625970050306473
961.0,0.06519865825346338
960.0,0.06414020196211956
959.0,0.06303410289212974
958.0,0.06203099704854709
957.0,0.0611301784870133
956.0,0.06038092104330195
955.0,0.05963295401433477
954.0,0.058936011780097886
953.0,0.058190526991161784
952.0,0.05749589383191922
951.0,0.056950888991593285
950.0,0.056456022846545606
949.0,0.05606053552778367
948.0,0.05566540802921782
947.0,0.05531996611868961
946.0,0.054876229877880656
945.0,0.05443294655761144
944.0,0.05403929642243144
943.0,0.05374429280060267
942.0,0.0534986094304124
941.0,0.05340037498486727
940.0,0.05325306496641513
939.0,0.05305672930217464
938.0,0.05281143447390635
937.0,0.05256627811294923
936.0,0.05237025261564554
935.0,0.05222329153526162
934.0,0.05207638016827354
933.0,0.05192951848105887
932.0,0.051684859310652254
931.0,0.05139145012356372
930.0,0.05100054597304693
929.0,0.05065879322950262
928.0,0.05036607620073763
927.0,0.05012229596312534
926.0,0.04982994019179987
925.0,0.04953778109440221
924.0,0.04934311749548925
923.0,0.04919717703534143
922.0,0.04909991063361274
921.0,0.04900266601119507
920.0,0.048905443158337114
919.0,0.04875964967565971
918.0,0.04866248120408234
917.0,0.0486139051197072
916.0,0.04866248120408234
915.0,0.048808242065293994
914.0,0.04909991063361274
913.0,0.04963514562387683
912.0,0.050463626623857394
911.0,0.05153812993871654
910.0,0.05286048235717078
909.0,0.05438372077326825
908.0,0.05620880107069848
907.0,0.05824018618530458
906.0,0.06048074738138154
905.0,0.06278310913729457
904.0,0.06504729218214189
903.0,0.06706985716921054
902.0,0.06894915322260897
901.0,0.07063217075990047
900.0,0.07221915065262552
899.0,0.0734517753643813
898.0,0.07437854520917098
897.0,0.07494587968815725
896.0,0.07525564752005143
895.0,0.07541061433058172
894.0,0.07535895258283709
893.0,0.07535895258283709
892.0,0.07535895258283709
891.0,0.07541061433058172
890.0,0.07556563645676939
889.0,0.07577241873988227
888.0,0.07623803917129979
887.0,0.07685964397479927
886.0,0.0777417765670334
885.0,0.07904229404455076
884.0,0.08066036321258663
883.0,0.08270459905431071
882.0,0.08512818245994969
881.0,0.08820340956274775
880.0,0.09189045960744768
879.0,0.09604229147682952
878.0,0.1005078038618683
877.0,0.10518567091669917
876.0,0.10974669484546551
875.0,0.11396072443355765
874.0,0.11730473761840288
873.0,0.11935787359571504
872.0,0.11975822410451964
871.0,0.11833009232793867
870.0,0.11526126223036814
869.0,0.11109074073646874
868.0,0.1063491830140364
867.0,0.1014393550602879
866.0,0.09669292003582619
865.0,0.09242742120144909
864.0,0.08873582900163002
863.0,0.0856568428805593
862.0,0.08317771540408803
861.0,0.08134070657817682
860.0,0.08003329851661278
859.0,0.07914650387874067
858.0,0.07841755960658348
857.0,0.07789763319239285
856.0,0.07758597585436577
855.0,0.07737832847680104
854.0,0.07727454200674
853.0,0.0772226580712021
852.0,0.07727454200674
851.0,0.07727454200674
850.0,0.0772226580712021
849.0,0.07706704344478843
848.0,0.07691148455760066
847.0,0.07685964397479927
846.0,0.07696333132921396
845.0,0.07732643214144574
844.0,0.0777417765670334
843.0,0.07800156869172903
842.0,0.07794959783282618
841.0,0.07763790321520991
840.0,0.07727454200674
839.0,0.07675598136972361
838.0,0.07618627890881036
837.0,0.07556563645676939
836.0,0.07489427319033615
835.0,0.07406940213152868
834.0,0.07304051161972436
833.0,0.07196279359311708
832.0,0.07083661679493547
831.0,0.06976434723371505
830.0,0.06869471857832687
829.0,0.06777998612288094
828.0,0.06696850489759454
827.0,0.06615853710127872
826.0,0.06545105233385295
825.0,0.06479513257341862
824.0,0.06429125215733666
823.0,0.06383825908884244
822.0,0.06348625752110681
821.0,0.06318476880236723
820.0,0.06288348923294618
819.0,0.06263258248271053
818.0,0.06243196139961715
817.0,0.062331685600995
816.0,0.062331685600995
815.0,0.062381820606176586
814.0,0.06243196139961715
813.0,0.06253226035662252
812.0,0.06263258248271053
811.0,0.06278310913729457
810.0,0.06288348923294618
809.0,0.06288348923294618
808.0,0.06288348923294618
807.0,0.06278310913729457
806.0,0.0627329277885873
805.0,0.06268275223750575
804.0,0.06253226035662252
803.0,0.06223143295006417
802.0,0.06173051653708872
801.0,0.06123017721688262
800.0,0.06108018775522828
799.0,0.06173051653708872
798.0,0.06358680028852026
797.0,0.06681652082538614
796.0,0.07073438174693436
795.0,0.07427547306393745
794.0,0.07660053384128362
793.0,0.07748213975538865
792.0,0.07696333132921396
791.0,0.07525564752005143
790.0,0.0725783049495814
789.0,0.06940751155740177
788.0,0.06610796423578891
787.0,0.06298389253518577
786.0,0.05998184499233683
785.0,0.05734718830678798
784.0,0.05507339001378431
783.0,0.05300765925162776
782.0,0.05119595406718891
781.0,0.04953778109440221
780.0,0.048128442871635535
779.0,0.04686877481655505
778.0,0.04575749056067524
777.0,0.04474531717982
776.0,0.043735497301724546
775.0,0.042775942156833
774.0,0.04172287445230238
773.0,0.040672354027829094
772.0,0.03952922246570112
771.0,0.038436537637930535
770.0,0.03739392707587297
769.0,0.03644826642590382
768.0,0.03545753392086315
767.0,0.03437503289075727
766.0,0.033295223342125535
765.0,0.03245202378113787
764.0,0.03189079887180224
763.0,0.03151705144606498
762.0,0.031003673351687855
761.0,0.03030458888152676
760.0,0.029513651152349718
759.0,0.028677754757187035
758.0,0.027843464140506313
757.0,0.027056991894431892
756.0,0.026225806029419818
755.0,0.02544225514642018
754.0,0.02475205875931885
753.0,0.024154774532432866
752.0,0.02355831062115543
751.0,0.02296266477531872
750.0,0.022505030926963654
749.0,0.022367834754000393
748.0,0.022642270454698687
747.0,0.023237476732539397
746.0,0.024476287039668643
745.0,0.026595025589939425
744.0,0.029792641193145286
743.0,0.03414006319292828
742.0,0.03981472339538916
741.0,0.04730440041308315
740.0,0.05690137699451481
739.0,0.0684912781333824
738.0,0.08181233864107451
737.0,0.0964759355287379
736.0,0.11198908775497118
735.0,0.1277271537757949
734.0,0.14369413356670102
733.0,0.159956669396506
732.0,0.17685194018930606
731.0,0.19449914184159978
730.0,0.21317762050081246
729.0,0.23358715288760057
728.0,0.2553159367231137
727.0,0.2765443279648143
726.0,0.2948207551263238
725.0,0.30803489723263966
724.0,0.3143478158844757
723.0,0.31273865375649357
722.0,0.3031196283172377
721.0,0.2874344721266917
720.0,0.26800855098107057
719.0,0.24749059921115713
718.0,0.22767829327708022
717.0,0.20985563495709947
716.0,0.19449914184159978
715.0,0.18170810920000413
714.0,0.1712756728612086
713.0,0.16298005145909156
712.0,0.15633127702085625
711.0,0.15082636690117335
710.0,0.14599776687301103
709.0,0.14170347546611461
708.0,0.13780896894840278
707.0,0.13418561983203192
706.0,0.1308269726783169
705.0,0.1277271537757949
704.0,0.12464930342071079
703.0,0.12136332697348307
702.0,0.11764625361128611
701.0,0.11356568037106163
700.0,0.10952309103982927
699.0,0.10562854614376227
698.0,0.10204318999304807
697.0,0.09881421986284966
696.0,0.096150661903319
695.0,0.09382663635595145
694.0,0.09189045960744768
693.0,0.0900697402471693
692.0,0.08830984124613894
691.0,0.08661005636824437
690.0,0.08512818245994969
689.0,0.08402008585977572
688.0,0.08312512146131668
687.0,0.0823369756726251
686.0,0.08186477383364066
685.0,0.08207457793525874
684.0,0.08312512146131668
683.0,0.08433639649422697
682.0,0.08496970974083906
681.0,0.08475850269380558
680.0,0.08407278830288423
679.0,0.08317771540408803
678.0,0.08196966321511989
677.0,0.08018997982980403
676.0,0.07820951434181311
675.0,0.07649693305789551
674.0,0.07530729697981409
673.0,0.07437854520917098
672.0,0.07329750581735506
671.0,0.07206531825882068
670.0,0.07114346641808922
669.0,0.07109230975604719
668.0,0.07191154033502922
667.0,0.07186029312488018
666.0,0.07012147634321675
665.0,0.06777998612288094
664.0,0.0659562809644747
663.0,0.06484555278383164
662.0,0.06424089625468832
661.0,0.06378795567975115
660.0,0.06343599486473406
659.0,0.06293368798257193
658.0,0.062131203436140536
657.0,0.06108018775522828
656.0,0.060081579630943294
655.0,0.05898575629443026
654.0,0.05789269101064454
653.0,0.05685187064143715
652.0,0.05620880107069848
651.0,0.05606053552778367
650.0,0.056159373598738904
649.0,0.05620880107069848
648.0,0.05610995175152733
647.0,0.05566540802921782
646.0,0.05502409158795207
645.0,0.054186873412661596
644.0,0.053449489430144714
643.0,0.05295859474477971
642.0,0.05290953578037816
641.0,0.0531548860393769
640.0,0.05354773498692689
639.0,0.054186873412661596
638.0,0.055270639696704205
637.0,0.0571489934456626
636.0,0.05988213325228142
635.0,0.0630843190547461
634.0,0.06620911585658007
633.0,0.068389593637038
632.0,0.06874559358358656
631.0,0.06696850489759454
630.0,0.06414020196211956
629.0,0.061780582187257016
628.0,0.06068046892176193
627.0,0.06058059667068294
626.0,0.06083032037482261
625.0,0.06103020277710969
624.0,0.0611301784870133
623.0,0.06108018775522828
622.0,0.06083032037482261
621.0,0.060430831344098435
620.0,0.05988213325228142
619.0,0.05923456436878238
618.0,0.0583891978463662
617.0,0.05744631966579017
616.0,0.05655495097496965
615.0,0.05581353871631256
614.0,0.05531996611868961
613.0,0.05536929814372171
612.0,0.055912320584565744
611.0,0.05635711724787096
610.0,0.056406567231630955
609.0,0.05610995175152733
608.0,0.05571477931124735
607.0,0.05541863577307371
606.0,0.05507339001378431
605.0,0.05438372077326825
604.0,0.05300765925162776
603.0,0.05100054597304693
602.0,0.04900266601119507
601.0,0.04774046340917959
600.0,0.047691990337874746
