cm-1,A
4000.0,0.0173
3999.0,0.0174
3998.0,0.0174
3997.0,0.0174
3996.0,0.0174
3995.0,0.0174
3994.0,0.0174
3993.0,0.0174
3992.0,0.0174
3991.0,0.0174
3990.0,0.0174
3989.0,0.0173
3988.0,0.0174
3987.0,0.0174
3986.0,0.0174
3985.0,0.0174
3984.0,0.0174
3983.0,0.0174
3982.0,0.0174
3981.0,0.0174
3980.0,0.0174
3979.0,0.0174
3978.0,0.0174
3977.0,0.0174
3976.0,0.0174
3975.0,0.0173
3974.0,0.0173
3973.0,0.0173
3972.0,0.0173
3971.0,0.0173
3970.0,0.0173
3969.0,0.0174
3968.0,0.0174
3967.0,0.0174
3966.0,0.0174
3965.0,0.0174
3964.0,0.0174
3963.0,0.0174
3962.0,0.0174
3961.0,0.0174
3960.0,0.0174
3959.0,0.0174
3958.0,0.0173
3957.0,0.0174
3956.0,0.0174
3955.0,0.0175
3954.0,0.0176
3953.0,0.0177
3952.0,0.0177
3951.0,0.0178
3950.0,0.0178
3949.0,0.0178
3948.0,0.0178
3947.0,0.0179
3946.0,0.018
3945.0,0.0179
3944.0,0.0179
3943.0,0.0178
3942.0,0.0178
3941.0,0.0178
3940.0,0.0177
3939.0,0.0176
3938.0,0.0175
3937.0,0.0176
3936.0,0.0177
3935.0,0.0178
3934.0,0.0177
3933.0,0.0177
3932.0,0.0176
3931.0,0.0176
3930.0,0.0176
3929.0,0.0177
3928.0,0.0178
3927.0,0.0178
3926.0,0.0177
3925.0,0.0175
3924.0,0.0175
3923.0,0.0175
3922.0,0.0175
3921.0,0.0176
3920.0,0.0176
3919.0,0.0177
3918.0,0.0177
3917.0,0.0177
3916.0,0.0176
3915.0,0.0176
3914.0,0.0175
3913.0,0.0175
3912.0,0.0175
3911.0,0.0176
3910.0,0.0176
3909.0,0.0177
3908.0,0.0178
3907.0,0.0178
3906.0,0.0177
3905.0,0.0177
3904.0,0.0179
3903.0,0.0182
3902.0,0.0184
3901.0,0.0183
3900.0,0.0181
3899.0,0.0179
3898.0,0.0178
3897.0,0.0177
3896.0,0.0177
3895.0,0.0178
3894.0,0.0178
3893.0,0.0179
3892.0,0.0179
3891.0,0.0179
3890.0,0.018
3889.0,0.0182
3888.0,0.0182
3887.0,0.0179
3886.0,0.0177
3885.0,0.0179
3884.0,0.0182
3883.0,0.0183
3882.0,0.0182
3881.0,0.018
3880.0,0.018
3879.0,0.0181
3878.0,0.0183
3877.0,0.0183
3876.0,0.0181
3875.0,0.0179
3874.0,0.0181
3873.0,0.0183
3872.0,0.0184
3871.0,0.0182
3870.0,0.018
3869.0,0.0182
3868.0,0.0184
3867.0,0.0185
3866.0,0.0182
3865.0,0.018
3864.0,0.0181
3863.0,0.0181
3862.0,0.0181
3861.0,0.0179
3860.0,0.0178
3859.0,0.0177
3858.0,0.0179
3857.0,0.0183
3856.0,0.0185
3855.0,0.0182
3854.0,0.018
3853.0,0.0181
3852.0,0.0182
3851.0,0.0182
3850.0,0.0181
3849.0,0.018
3848.0,0.018
3847.0,0.018
3846.0,0.0179
3845.0,0.0178
3844.0,0.0178
3843.0,0.0178
3842.0,0.0179
3841.0,0.018
3840.0,0.018
3839.0,0.018
3838.0,0.0181
3837.0,0.0182
3836.0,0.0183
3835.0,0.0183
3834.0,0.0183
3833.0,0.0182
3832.0,0.0181
3831.0,0.0181
3830.0,0.0183
3829.0,0.0183
3828.0,0.0182
3827.0,0.018
3826.0,0.0179
3825.0,0.0181
3824.0,0.0183
3823.0,0.018
3822.0,0.0178
3821.0,0.018
3820.0,0.0185
3819.0,0.019
3818.0,0.019
3817.0,0.0187
3816.0,0.0185
3815.0,0.0185
3814.0,0.0185
3813.0,0.0184
3812.0,0.0182
3811.0,0.0182
3810.0,0.0183
3809.0,0.0182
3808.0,0.018
3807.0,0.0178
3806.0,0.0181
3805.0,0.0185
3804.0,0.0188
3803.0,0.0185
3802.0,0.0182
3801.0,0.0183
3800.0,0.0186
3799.0,0.0187
3798.0,0.0186
3797.0,0.0184
3796.0,0.0183
3795.0,0.0184
3794.0,0.0184
3793.0,0.0183
3792.0,0.0182
3791.0,0.0182
3790.0,0.0183
3789.0,0.0183
3788.0,0.0183
3787.0,0.0183
3786.0,0.0183
3785.0,0.0183
3784.0,0.0184
3783.0,0.0185
3782.0,0.0184
3781.0,0.0183
3780.0,0.0181
3779.0,0.0182
3778.0,0.0183
3777.0,0.0183
3776.0,0.0183
3775.0,0.0182
3774.0,0.0182
3773.0,0.0183
3772.0,0.0184
3771.0,0.0183
3770.0,0.0184
3769.0,0.0186
3768.0,0.0187
3767.0,0.0187
3766.0,0.0185
3765.0,0.0184
3764.0,0.0185
3763.0,0.0185
3762.0,0.0185
3761.0,0.0183
3760.0,0.0183
3759.0,0.0183
3758.0,0.0183
3757.0,0.0183
3756.0,0.0184
3755.0,0.0185
3754.0,0.0185
3753.0,0.0186
3752.0,0.0188
3751.0,0.019
3750.0,0.0189
3749.0,0.0188
3748.0,0.019
3747.0,0.0193
3746.0,0.019
3745.0,0.0186
3744.0,0.0186
3743.0,0.0187
3742.0,0.0187
3741.0,0.0185
3740.0,0.0183
3739.0,0.0183
3738.0,0.0182
3737.0,0.018
3736.0,0.0182
3735.0,0.0184
3734.0,0.0184
3733.0,0.0181
3732.0,0.0177
3731.0,0.0175
3730.0,0.0175
3729.0,0.0175
3728.0,0.0174
3727.0,0.0175
3726.0,0.0178
3725.0,0.0182
3724.0,0.0183
3723.0,0.0184
3722.0,0.0184
3721.0,0.0184
3720.0,0.0185
3719.0,0.0185
3718.0,0.0186
3717.0,0.0187
3716.0,0.0188
3715.0,0.0188
3714.0,0.0186
3713.0,0.0183
3712.0,0.0182
3711.0,0.0183
3710.0,0.0184
3709.0,0.0183
3708.0,0.0182
3707.0,0.0181
3706.0,0.018
3705.0,0.018
3704.0,0.018
3703.0,0.018
3702.0,0.0181
3701.0,0.0183
3700.0,0.0184
3699.0,0.0184
3698.0,0.0183
3697.0,0.0181
3696.0,0.0181
3695.0,0.0182
3694.0,0.0183
3693.0,0.0184
3692.0,0.0185
3691.0,0.0188
3690.0,0.0192
3689.0,0.0194
3688.0,0.0195
3687.0,0.0196
3686.0,0.0196
3685.0,0.0196
3684.0,0.0195
3683.0,0.0194
3682.0,0.0192
3681.0,0.0192
3680.0,0.0193
3679.0,0.0198
3678.0,0.0202
3677.0,0.0201
3676.0,0.02
3675.0,0.02
3674.0,0.0202
3673.0,0.0205
3672.0,0.0204
3671.0,0.0202
3670.0,0.0203
3669.0,0.0206
3668.0,0.0207
3667.0,0.0207
3666.0,0.0206
3665.0,0.0206
3664.0,0.0205
3663.0,0.0204
3662.0,0.0204
3661.0,0.0205
3660.0,0.0208
3659.0,0.0211
3658.0,0.0213
3657.0,0.0213
3656.0,0.0213
3655.0,0.0214
3654.0,0.0216
3653.0,0.0218
3652.0,0.022
3651.0,0.0221
3650.0,0.0226
3649.0,0.023
3648.0,0.023
3647.0,0.0228
3646.0,0.0227
3645.0,0.0226
3644.0,0.0226
3643.0,0.0226
3642.0,0.0227
3641.0,0.0228
3640.0,0.0228
3639.0,0.0228
3638.0,0.0229
3637.0,0.023
3636.0,0.023
3635.0,0.0229
3634.0,0.0229
3633.0,0.0232
3632.0,0.0236
3631.0,0.0238
3630.0,0.0239
3629.0,0.0242
3628.0,0.0243
3627.0,0.0243
3626.0,0.0242
3625.0,0.0242
3624.0,0.0242
3623.0,0.0245
3622.0,0.0247
3621.0,0.0249
3620.0,0.025
3619.0,0.0252
3618.0,0.0255
3617.0,0.0258
3616.0,0.0261
3615.0,0.0263
3614.0,0.0265
3613.0,0.0265
3612.0,0.0265
3611.0,0.0264
3610.0,0.0262
3609.0,0.0261
3608.0,0.0262
3607.0,0.0264
3606.0,0.0265
3605.0,0.0265
3604.0,0.0265
3603.0,0.0266
3602.0,0.0267
3601.0,0.0269
3600.0,0.0272
3599.0,0.0274
3598.0,0.0276
3597.0,0.0276
3596.0,0.0277
3595.0,0.0277
3594.0,0.0278
3593.0,0.028
3592.0,0.0282
3591.0,0.0284
3590.0,0.0286
3589.0,0.0288
3588.0,0.0292
3587.0,0.0295
3586.0,0.0297
3585.0,0.0297
3584.0,0.0297
3583.0,0.0298
3582.0,0.03
3581.0,0.0302
3580.0,0.0304
3579.0,0.0306
3578.0,0.0307
3577.0,0.0308
3576.0,0.031
3575.0,0.0312
3574.0,0.0313
3573.0,0.0315
3572.0,0.0317
3571.0,0.032
3570.0,0.0323
3569.0,0.0325
3568.0,0.0328
3567.0,0.0331
3566.0,0.0334
3565.0,0.0335
3564.0,0.0336
3563.0,0.0337
3562.0,0.0338
3561.0,0.034
3560.0,0.0341
3559.0,0.0343
3558.0,0.0344
3557.0,0.0345
3556.0,0.0347
3555.0,0.0348
3554.0,0.0349
3553.0,0.035
3552.0,0.0353
3551.0,0.0355
3550.0,0.0356
3549.0,0.0357
3548.0,0.0358
3547.0,0.036
3546.0,0.0364
3545.0,0.0368
3544.0,0.037
3543.0,0.0371
3542.0,0.0371
3541.0,0.0371
3540.0,0.0372
3539.0,0.0373
3538.0,0.0375
3537.0,0.0376
3536.0,0.0378
3535.0,0.0378
3534.0,0.0379
3533.0,0.0379
3532.0,0.0378
3531.0,0.0378
3530.0,0.0379
3529.0,0.038
3528.0,0.0382
3527.0,0.0384
3526.0,0.0385
3525.0,0.0385
3524.0,0.0385
3523.0,0.0385
3522.0,0.0387
3521.0,0.0387
3520.0,0.0387
3519.0,0.0387
3518.0,0.0387
3517.0,0.0388
3516.0,0.0389
3515.0,0.039
3514.0,0.039
3513.0,0.0391
3512.0,0.0391
3511.0,0.0392
3510.0,0.0393
3509.0,0.0395
3508.0,0.0396
3507.0,0.0396
3506.0,0.0397
3505.0,0.0397
3504.0,0.0398
3503.0,0.04
3502.0,0.0402
3501.0,0.0403
3500.0,0.0403
3499.0,0.0403
3498.0,0.0404
3497.0,0.0405
3496.0,0.0405
3495.0,0.0406
3494.0,0.0407
3493.0,0.0409
3492.0,0.0411
3491.0,0.0413
3490.0,0.0414
3489.0,0.0414
3488.0,0.0414
3487.0,0.0414
3486.0,0.0415
3485.0,0.0417
3484.0,0.0418
3483.0,0.042
3482.0,0.0422
3481.0,0.0423
3480.0,0.0423
3479.0,0.0424
3478.0,0.0424
3477.0,0.0425
3476.0,0.0427
3475.0,0.0429
3474.0,0.0432
3473.0,0.0434
3472.0,0.0436
3471.0,0.0437
3470.0,0.0438
3469.0,0.0439
3468.0,0.044
3467.0,0.0441
3466.0,0.0443
3465.0,0.0444
3464.0,0.0445
3463.0,0.0446
3462.0,0.0448
3461.0,0.045
3460.0,0.0452
3459.0,0.0454
3458.0,0.0455
3457.0,0.0457
3456.0,0.0458
3455.0,0.0461
3454.0,0.0464
3453.0,0.0467
3452.0,0.0469
3451.0,0.0471
3450.0,0.0472
3449.0,0.0473
3448.0,0.0475
3447.0,0.0478
3446.0,0.048
3445.0,0.0483
3444.0,0.0485
3443.0,0.0488
3442.0,0.0491
3441.0,0.0493
3440.0,0.0494
3439.0,0.0495
3438.0,0.0497
3437.0,0.0498
3436.0,0.05
3435.0,0.0501
3434.0,0.0503
3433.0,0.0505
3432.0,0.0506
3431.0,0.0508
3430.0,0.051
3429.0,0.0512
3428.0,0.0514
3427.0,0.0516
3426.0,0.0517
3425.0,0.0518
3424.0,0.0518
3423.0,0.0519
3422.0,0.0521
3421.0,0.0523
3420.0,0.0525
3419.0,0.0527
3418.0,0.0529
3417.0,0.053
3416.0,0.053
3415.0,0.053
3414.0,0.053
3413.0,0.053
3412.0,0.053
3411.0,0.0531
3410.0,0.0532
3409.0,0.0532
3408.0,0.0533
3407.0,0.0534
3406.0,0.0534
3405.0,0.0534
3404.0,0.0534
3403.0,0.0535
3402.0,0.0535
3401.0,0.0536
3400.0,0.0536
3399.0,0.0535
3398.0,0.0535
3397.0,0.0536
3396.0,0.0536
3395.0,0.0537
3394.0,0.0537
3393.0,0.0538
3392.0,0.0539
3391.0,0.0539
3390.0,0.0539
3389.0,0.0538
3388.0,0.0537
3387.0,0.0535
3386.0,0.0534
3385.0,0.0533
3384.0,0.0533
3383.0,0.0533
3382.0,0.0534
3381.0,0.0534
3380.0,0.0534
3379.0,0.0534
3378.0,0.0533
3377.0,0.0532
3376.0,0.0531
3375.0,0.053
3374.0,0.053
3373.0,0.0528
3372.0,0.0526
3371.0,0.0525
3370.0,0.0524
3369.0,0.0524
3368.0,0.0524
3367.0,0.0523
3366.0,0.0522
3365.0,0.0521
3364.0,0.0521
3363.0,0.0521
3362.0,0.052
3361.0,0.0519
3360.0,0.0518
3359.0,0.0517
3358.0,0.0518
3357.0,0.0518
3356.0,0.0517
3355.0,0.0516
3354.0,0.0514
3353.0,0.0512
3352.0,0.051
3351.0,0.0509
3350.0,0.0509
3349.0,0.0508
3348.0,0.0508
3347.0,0.0507
3346.0,0.0505
3345.0,0.0504
3344.0,0.0504
3343.0,0.0503
3342.0,0.0502
3341.0,0.0501
3340.0,0.0499
3339.0,0.0497
3338.0,0.0495
3337.0,0.0495
3336.0,0.0496
3335.0,0.0496
3334.0,0.0496
3333.0,0.0496
3332.0,0.0494
3331.0,0.0493
3330.0,0.0491
3329.0,0.0489
3328.0,0.0487
3327.0,0.0485
3326.0,0.0483
3325.0,0.0482
3324.0,0.0481
3323.0,0.0481
3322.0,0.048
3321.0,0.0479
3320.0,0.0477
3319.0,0.0476
3318.0,0.0474
3317.0,0.0473
3316.0,0.0472
3315.0,0.0472
3314.0,0.0471
3313.0,0.0471
3312.0,0.047
3311.0,0.0471
3310.0,0.047
3309.0,0.0469
3308.0,0.0467
3307.0,0.0465
3306.0,0.0463
3305.0,0.0462
3304.0,0.0462
3303.0,0.0462
3302.0,0.0461
3301.0,0.046
3300.0,0.0459
3299.0,0.0457
3298.0,0.0455
3297.0,0.0454
3296.0,0.0453
3295.0,0.0452
3294.0,0.0452
3293.0,0.0451
3292.0,0.0451
3291.0,0.045
3290.0,0.045
3289.0,0.045
3288.0,0.0449
3287.0,0.0449
3286.0,0.0448
3285.0,0.0447
3284.0,0.0446
3283.0,0.0445
3282.0,0.0445
3281.0,0.0445
3280.0,0.0445
3279.0,0.0444
3278.0,0.0443
3277.0,0.0442
3276.0,0.0441
3275.0,0.0441
3274.0,0.0441
3273.0,0.0442
3272.0,0.0443
3271.0,0.0444
3270.0,0.0443
3269.0,0.0441
3268.0,0.044
3267.0,0.0438
3266.0,0.0437
3265.0,0.0437
3264.0,0.0437
3263.0,0.0437
3262.0,0.0437
3261.0,0.0436
3260.0,0.0436
3259.0,0.0435
3258.0,0.0435
3257.0,0.0434
3256.0,0.0432
3255.0,0.0432
3254.0,0.0432
3253.0,0.0434
3252.0,0.0434
3251.0,0.0435
3250.0,0.0434
3249.0,0.0434
3248.0,0.0433
3247.0,0.0432
3246.0,0.0431
3245.0,0.0429
3244.0,0.0429
3243.0,0.0428
3242.0,0.0428
3241.0,0.0427
3240.0,0.0426
3239.0,0.0425
3238.0,0.0424
3237.0,0.0424
3236.0,0.0423
3235.0,0.0422
3234.0,0.0421
3233.0,0.0419
3232.0,0.0418
3231.0,0.0418
3230.0,0.0417
3229.0,0.0417
3228.0,0.0416
3227.0,0.0415
3226.0,0.0413
3225.0,0.041
3224.0,0.0408
3223.0,0.0405
3222.0,0.0404
3221.0,0.0404
3220.0,0.0403
3219.0,0.0402
3218.0,0.04
3217.0,0.0398
3216.0,0.0395
3215.0,0.0393
3214.0,0.0392
3213.0,0.0391
3212.0,0.0391
3211.0,0.0391
3210.0,0.0391
3209.0,0.039
3208.0,0.0389
3207.0,0.0388
3206.0,0.0386
3205.0,0.0384
3204.0,0.0383
3203.0,0.0382
3202.0,0.0381
3201.0,0.038
3200.0,0.0379
3199.0,0.0377
3198.0,0.0376
3197.0,0.0375
3196.0,0.0374
3195.0,0.0373
3194.0,0.0373
3193.0,0.0372
3192.0,0.037
3191.0,0.0368
3190.0,0.0366
3189.0,0.0365
3188.0,0.0364
3187.0,0.0364
3186.0,0.0363
3185.0,0.0363
3184.0,0.0362
3183.0,0.0361
3182.0,0.036
3181.0,0.0359
3180.0,0.0358
3179.0,0.0357
3178.0,0.0357
3177.0,0.0356
3176.0,0.0355
3175.0,0.0353
3174.0,0.0352
3173.0,0.035
3172.0,0.0349
3171.0,0.0347
3170.0,0.0346
3169.0,0.0345
3168.0,0.0344
3167.0,0.0343
3166.0,0.0342
3165.0,0.0341
3164.0,0.0341
3163.0,0.034
3162.0,0.0339
3161.0,0.0339
3160.0,0.0338
3159.0,0.0337
3158.0,0.0335
3157.0,0.0334
3156.0,0.0333
3155.0,0.0333
3154.0,0.0332
3153.0,0.0332
3152.0,0.0331
3151.0,0.0329
3150.0,0.0328
3149.0,0.0327
3148.0,0.0326
3147.0,0.0325
3146.0,0.0324
3145.0,0.0322
3144.0,0.0321
3143.0,0.032
3142.0,0.032
3141.0,0.032
3140.0,0.032
3139.0,0.032
3138.0,0.032
3137.0,0.032
3136.0,0.0319
3135.0,0.0319
3134.0,0.0318
3133.0,0.0318
3132.0,0.0318
3131.0,0.0318
3130.0,0.0319
3129.0,0.0319
3128.0,0.0318
3127.0,0.0317
3126.0,0.0315
3125.0,0.0314
3124.0,0.0313
3123.0,0.0311
3122.0,0.031
3121.0,0.0309
3120.0,0.0308
3119.0,0.0307
3118.0,0.0307
3117.0,0.0308
3116.0,0.0308
3115.0,0.0308
3114.0,0.0307
3113.0,0.0307
3112.0,0.0308
3111.0,0.0309
3110.0,0.0309
3109.0,0.0309
3108.0,0.0309
3107.0,0.0309
3106.0,0.031
3105.0,0.0311
3104.0,0.0311
3103.0,0.031
3102.0,0.031
3101.0,0.0308
3100.0,0.0307
3099.0,0.0305
3098.0,0.0303
3097.0,0.0301
3096.0,0.03
3095.0,0.0299
3094.0,0.0299
3093.0,0.0298
3092.0,0.0298
3091.0,0.0298
3090.0,0.0299
3089.0,0.0299
3088.0,0.03
3087.0,0.0301
3086.0,0.0302
3085.0,0.0302
3084.0,0.0303
3083.0,0.0303
3082.0,0.0303
3081.0,0.0303
3080.0,0.0302
3079.0,0.0302
3078.0,0.0301
3077.0,0.0301
3076.0,0.0301
3075.0,0.0301
3074.0,0.0301
3073.0,0.0301
3072.0,0.0301
3071.0,0.03
3070.0,0.0299
3069.0,0.0299
3068.0,0.0297
3067.0,0.0296
3066.0,0.0296
3065.0,0.0295
3064.0,0.0295
3063.0,0.0295
3062.0,0.0294
3061.0,0.0293
3060.0,0.0293
3059.0,0.0294
3058.0,0.0296
3057.0,0.0297
3056.0,0.0297
3055.0,0.0296
3054.0,0.0295
3053.0,0.0293
3052.0,0.0292
3051.0,0.0291
3050.0,0.0289
3049.0,0.0286
3048.0,0.0283
3047.0,0.028
3046.0,0.0278
3045.0,0.0276
3044.0,0.0275
3043.0,0.0274
3042.0,0.0272
3041.0,0.027
3040.0,0.0268
3039.0,0.0267
3038.0,0.0265
3037.0,0.0264
3036.0,0.0264
3035.0,0.0263
3034.0,0.0263
3033.0,0.0263
3032.0,0.0263
3031.0,0.0264
3030.0,0.0264
3029.0,0.0264
3028.0,0.0263
3027.0,0.0262
3026.0,0.0262
3025.0,0.0262
3024.0,0.0262
3023.0,0.0263
3022.0,0.0263
3021.0,0.0264
3020.0,0.0264
3019.0,0.0266
3018.0,0.0267
3017.0,0.0269
3016.0,0.027
3015.0,0.027
3014.0,0.0271
3013.0,0.0272
3012.0,0.0273
3011.0,0.0273
3010.0,0.0274
3009.0,0.0274
3008.0,0.0275
3007.0,0.0276
3006.0,0.0277
3005.0,0.0278
3004.0,0.0279
3003.0,0.028
3002.0,0.0281
3001.0,0.0281
3000.0,0.0282
2999.0,0.0282
2998.0,0.0283
2997.0,0.0283
2996.0,0.0285
2995.0,0.0286
2994.0,0.0288
2993.0,0.0289
2992.0,0.0291
2991.0,0.0293
2990.0,0.0295
2989.0,0.0296
2988.0,0.0298
2987.0,0.03
2986.0,0.0301
2985.0,0.0303
2984.0,0.0304
2983.0,0.0306
2982.0,0.0309
2981.0,0.0311
2980.0,0.0314
2979.0,0.0316
2978.0,0.0319
2977.0,0.0322
2976.0,0.0325
2975.0,0.0328
2974.0,0.0332
2973.0,0.0336
2972.0,0.034
2971.0,0.0345
2970.0,0.0349
2969.0,0.0353
2968.0,0.0357
2967.0,0.0362
2966.0,0.0366
2965.0,0.037
2964.0,0.0374
2963.0,0.0378
2962.0,0.0381
2961.0,0.0383
2960.0,0.0385
2959.0,0.0386
2958.0,0.0387
2957.0,0.0387
2956.0,0.0386
2955.0,0.0384
2954.0,0.0382
2953.0,0.0379
2952.0,0.0376
2951.0,0.0372
2950.0,0.0368
2949.0,0.0362
2948.0,0.0357
2947.0,0.0351
2946.0,0.0346
2945.0,0.0341
2944.0,0.0335
2943.0,0.0329
2942.0,0.0324
2941.0,0.0319
2940.0,0.0315
2939.0,0.0311
2938.0,0.0308
2937.0,0.0305
2936.0,0.0302
2935.0,0.0301
2934.0,0.0299
2933.0,0.0298
2932.0,0.0296
2931.0,0.0294
2930.0,0.0292
2929.0,0.0291
2928.0,0.0291
2927.0,0.0291
2926.0,0.029
2925.0,0.029
2924.0,0.0289
2923.0,0.0289
2922.0,0.0288
2921.0,0.0287
2920.0,0.0286
2919.0,0.0285
2918.0,0.0284
2917.0,0.0284
2916.0,0.0283
2915.0,0.0283
2914.0,0.0283
2913.0,0.0282
2912.0,0.0282
2911.0,0.0281
2910.0,0.0281
2909.0,0.0281
2908.0,0.0281
2907.0,0.0281
2906.0,0.0281
2905.0,0.0281
2904.0,0.0281
2903.0,0.028
2902.0,0.028
2901.0,0.028
2900.0,0.028
2899.0,0.0281
2898.0,0.0281
2897.0,0.0282
2896.0,0.0283
2895.0,0.0284
2894.0,0.0285
2893.0,0.0286
2892.0,0.0287
2891.0,0.0287
2890.0,0.0288
2889.0,0.0287
2888.0,0.0286
2887.0,0.0284
2886.0,0.0283
2885.0,0.0282
2884.0,0.0281
2883.0,0.0279
2882.0,0.0278
2881.0,0.0277
2880.0,0.0276
2879.0,0.0275
2878.0,0.0275
2877.0,0.0274
2876.0,0.0274
2875.0,0.0273
2874.0,0.0273
2873.0,0.0272
2872.0,0.0271
2871.0,0.0271
2870.0,0.027
2869.0,0.027
2868.0,0.0269
2867.0,0.0269
2866.0,0.0268
2865.0,0.0267
2864.0,0.0267
2863.0,0.0267
2862.0,0.0267
2861.0,0.0267
2860.0,0.0267
2859.0,0.0268
2858.0,0.0268
2857.0,0.0268
2856.0,0.0267
2855.0,0.0266
2854.0,0.0264
2853.0,0.0263
2852.0,0.0263
2851.0,0.0262
2850.0,0.0261
2849.0,0.026
2848.0,0.0258
2847.0,0.0255
2846.0,0.0253
2845.0,0.025
2844.0,0.0249
2843.0,0.0247
2842.0,0.0246
2841.0,0.0246
2840.0,0.0245
2839.0,0.0244
2838.0,0.0244
2837.0,0.0243
2836.0,0.0242
2835.0,0.0242
2834.0,0.024
2833.0,0.0239
2832.0,0.0238
2831.0,0.0238
2830.0,0.0237
2829.0,0.0237
2828.0,0.0237
2827.0,0.0237
2826.0,0.0237
2825.0,0.0237
2824.0,0.0236
2823.0,0.0236
2822.0,0.0235
2821.0,0.0234
2820.0,0.0233
2819.0,0.0233
2818.0,0.0232
2817.0,0.0232
2816.0,0.0231
2815.0,0.0231
2814.0,0.0231
2813.0,0.0232
2812.0,0.0232
2811.0,0.0233
2810.0,0.0233
2809.0,0.0232
2808.0,0.0231
2807.0,0.023
2806.0,0.023
2805.0,0.023
2804.0,0.023
2803.0,0.023
2802.0,0.023
2801.0,0.0229
2800.0,0.0229
2799.0,0.0229
2798.0,0.0229
2797.0,0.0228
2796.0,0.0228
2795.0,0.0228
2794.0,0.0228
2793.0,0.0228
2792.0,0.0228
2791.0,0.0227
2790.0,0.0227
2789.0,0.0226
2788.0,0.0225
2787.0,0.0224
2786.0,0.0224
2785.0,0.0224
2784.0,0.0224
2783.0,0.0224
2782.0,0.0224
2781.0,0.0224
2780.0,0.0223
2779.0,0.0222
2778.0,0.0222
2777.0,0.0222
2776.0,0.0222
2775.0,0.0223
2774.0,0.0223
2773.0,0.0223
2772.0,0.0223
2771.0,0.0222
2770.0,0.0221
2769.0,0.0221
2768.0,0.0221
2767.0,0.0221
2766.0,0.0221
2765.0,0.0221
2764.0,0.0221
2763.0,0.0221
2762.0,0.0221
2761.0,0.0221
2760.0,0.0222
2759.0,0.0222
2758.0,0.0221
2757.0,0.0221
2756.0,0.0221
2755.0,0.0221
2754.0,0.022
2753.0,0.022
2752.0,0.0219
2751.0,0.0218
2750.0,0.0217
2749.0,0.0217
2748.0,0.0217
2747.0,0.0218
2746.0,0.0218
2745.0,0.0218
2744.0,0.0217
2743.0,0.0217
2742.0,0.0217
2741.0,0.0217
2740.0,0.0217
2739.0,0.0218
2738.0,0.0218
2737.0,0.0218
2736.0,0.0217
2735.0,0.0216
2734.0,0.0215
2733.0,0.0214
2732.0,0.0214
2731.0,0.0215
2730.0,0.0215
2729.0,0.0214
2728.0,0.0213
2727.0,0.0212
2726.0,0.0212
2725.0,0.0212
2724.0,0.0213
2723.0,0.0213
2722.0,0.0213
2721.0,0.0213
2720.0,0.0212
2719.0,0.0212
2718.0,0.0211
2717.0,0.021
2716.0,0.021
2715.0,0.021
2714.0,0.021
2713.0,0.021
2712.0,0.021
2711.0,0.0209
2710.0,0.0209
2709.0,0.0208
2708.0,0.0208
2707.0,0.0208
2706.0,0.0208
2705.0,0.0208
2704.0,0.0208
2703.0,0.0207
2702.0,0.0207
2701.0,0.0207
2700.0,0.0207
2699.0,0.0207
2698.0,0.0207
2697.0,0.0207
2696.0,0.0207
2695.0,0.0207
2694.0,0.0208
2693.0,0.0208
2692.0,0.0207
2691.0,0.0207
2690.0,0.0207
2689.0,0.0206
2688.0,0.0206
2687.0,0.0206
2686.0,0.0206
2685.0,0.0205
2684.0,0.0205
2683.0,0.0205
2682.0,0.0204
2681.0,0.0204
2680.0,0.0204
2679.0,0.0203
2678.0,0.0203
2677.0,0.0203
2676.0,0.0203
2675.0,0.0204
2674.0,0.0205
2673.0,0.0205
2672.0,0.0205
2671.0,0.0205
2670.0,0.0204
2669.0,0.0204
2668.0,0.0204
2667.0,0.0203
2666.0,0.0203
2665.0,0.0203
2664.0,0.0203
2663.0,0.0202
2662.0,0.0202
2661.0,0.0201
2660.0,0.0201
2659.0,0.0201
2658.0,0.0201
2657.0,0.0201
2656.0,0.0201
2655.0,0.0201
2654.0,0.0201
2653.0,0.0202
2652.0,0.0202
2651.0,0.0202
2650.0,0.0201
2649.0,0.0201
2648.0,0.0201
2647.0,0.0201
2646.0,0.0201
2645.0,0.0201
2644.0,0.0201
2643.0,0.0201
2642.0,0.0201
2641.0,0.0201
2640.0,0.0201
2639.0,0.0201
2638.0,0.0201
2637.0,0.0201
2636.0,0.0202
2635.0,0.0202
2634.0,0.0202
2633.0,0.0203
2632.0,0.0203
2631.0,0.0203
2630.0,0.0203
2629.0,0.0203
2628.0,0.0203
2627.0,0.0203
2626.0,0.0202
2625.0,0.0202
2624.0,0.0202
2623.0,0.0202
2622.0,0.0202
2621.0,0.0202
2620.0,0.0202
2619.0,0.0202
2618.0,0.0202
2617.0,0.0201
2616.0,0.02
2615.0,0.0199
2614.0,0.0199
2613.0,0.0199
2612.0,0.0199
2611.0,0.0199
2610.0,0.02
2609.0,0.02
2608.0,0.0199
2607.0,0.0199
2606.0,0.0199
2605.0,0.0199
2604.0,0.0199
2603.0,0.0199
2602.0,0.0199
2601.0,0.0199
2600.0,0.0198
2599.0,0.0198
2598.0,0.0197
2597.0,0.0197
2596.0,0.0197
2595.0,0.0198
2594.0,0.0198
2593.0,0.0198
2592.0,0.0199
2591.0,0.0199
2590.0,0.0199
2589.0,0.0199
2588.0,0.0199
2587.0,0.0199
2586.0,0.0198
2585.0,0.0199
2584.0,0.0199
2583.0,0.0199
2582.0,0.0199
2581.0,0.0198
2580.0,0.0198
2579.0,0.0199
2578.0,0.0199
2577.0,0.0199
2576.0,0.0199
2575.0,0.0199
2574.0,0.0198
2573.0,0.0198
2572.0,0.0197
2571.0,0.0197
2570.0,0.0198
2569.0,0.0198
2568.0,0.0199
2567.0,0.02
2566.0,0.02
2565.0,0.02
2564.0,0.02
2563.0,0.0199
2562.0,0.0199
2561.0,0.0199
2560.0,0.0199
2559.0,0.0199
2558.0,0.0199
2557.0,0.0199
2556.0,0.0198
2555.0,0.0198
2554.0,0.0198
2553.0,0.0199
2552.0,0.0199
2551.0,0.02
2550.0,0.02
2549.0,0.02
2548.0,0.0199
2547.0,0.0199
2546.0,0.0199
2545.0,0.0199
2544.0,0.0199
2543.0,0.0199
2542.0,0.0199
2541.0,0.0198
2540.0,0.0198
2539.0,0.0199
2538.0,0.0199
2537.0,0.0199
2536.0,0.0199
2535.0,0.0198
2534.0,0.0197
2533.0,0.0196
2532.0,0.0196
2531.0,0.0195
2530.0,0.0195
2529.0,0.0195
2528.0,0.0195
2527.0,0.0195
2526.0,0.0195
2525.0,0.0195
2524.0,0.0196
2523.0,0.0196
2522.0,0.0196
2521.0,0.0196
2520.0,0.0196
2519.0,0.0196
2518.0,0.0196
2517.0,0.0195
2516.0,0.0195
2515.0,0.0195
2514.0,0.0195
2513.0,0.0195
2512.0,0.0196
2511.0,0.0196
2510.0,0.0196
2509.0,0.0195
2508.0,0.0194
2507.0,0.0194
2506.0,0.0194
2505.0,0.0193
2504.0,0.0193
2503.0,0.0193
2502.0,0.0194
2501.0,0.0194
2500.0,0.0193
2499.0,0.0193
2498.0,0.0193
2497.0,0.0193
2496.0,0.0193
2495.0,0.0193
2494.0,0.0192
2493.0,0.0192
2492.0,0.0192
2491.0,0.0192
2490.0,0.0191
2489.0,0.0191
2488.0,0.019
2487.0,0.019
2486.0,0.019
2485.0,0.019
2484.0,0.0189
2483.0,0.0189
2482.0,0.0188
2481.0,0.0188
2480.0,0.0188
2479.0,0.0188
2478.0,0.0188
2477.0,0.0188
2476.0,0.0188
2475.0,0.0188
2474.0,0.0188
2473.0,0.0188
2472.0,0.0187
2471.0,0.0186
2470.0,0.0186
2469.0,0.0186
2468.0,0.0186
2467.0,0.0186
2466.0,0.0187
2465.0,0.0187
2464.0,0.0187
2463.0,0.0187
2462.0,0.0187
2461.0,0.0187
2460.0,0.0186
2459.0,0.0185
2458.0,0.0184
2457.0,0.0184
2456.0,0.0184
2455.0,0.0184
2454.0,0.0184
2453.0,0.0184
2452.0,0.0184
2451.0,0.0184
2450.0,0.0185
2449.0,0.0185
2448.0,0.0185
2447.0,0.0184
2446.0,0.0184
2445.0,0.0184
2444.0,0.0183
2443.0,0.0183
2442.0,0.0183
2441.0,0.0183
2440.0,0.0183
2439.0,0.0182
2438.0,0.0182
2437.0,0.0182
2436.0,0.0182
2435.0,0.0182
2434.0,0.0182
2433.0,0.0183
2432.0,0.0183
2431.0,0.0184
2430.0,0.0185
2429.0,0.0185
2428.0,0.0185
2427.0,0.0186
2426.0,0.0186
2425.0,0.0185
2424.0,0.0184
2423.0,0.0184
2422.0,0.0184
2421.0,0.0185
2420.0,0.0186
2419.0,0.0186
2418.0,0.0186
2417.0,0.0186
2416.0,0.0186
2415.0,0.0187
2414.0,0.0187
2413.0,0.0188
2412.0,0.0188
2411.0,0.0189
2410.0,0.0188
2409.0,0.0188
2408.0,0.0188
2407.0,0.0188
2406.0,0.0188
2405.0,0.0189
2404.0,0.0189
2403.0,0.019
2402.0,0.019
2401.0,0.019
2400.0,0.019
2399.0,0.019
2398.0,0.019
2397.0,0.019
2396.0,0.019
2395.0,0.0191
2394.0,0.0191
2393.0,0.0191
2392.0,0.0191
2391.0,0.0191
2390.0,0.019
2389.0,0.0188
2388.0,0.0186
2387.0,0.0184
2386.0,0.0182
2385.0,0.0179
2384.0,0.0176
2383.0,0.0173
2382.0,0.017
2381.0,0.0167
2380.0,0.0163
2379.0,0.016
2378.0,0.0157
2377.0,0.0154
2376.0,0.015
2375.0,0.0146
2374.0,0.0142
2373.0,0.0137
2372.0,0.0134
2371.0,0.0132
2370.0,0.0129
2369.0,0.0129
2368.0,0.0135
2367.0,0.0146
2366.0,0.0156
2365.0,0.0158
2364.0,0.0154
2363.0,0.0148
2362.0,0.0147
2361.0,0.0151
2360.0,0.0162
2359.0,0.0172
2358.0,0.0171
2357.0,0.0165
2356.0,0.0153
2355.0,0.0152
2354.0,0.0097
2353.0,0.0083
2352.0,0.0092
2351.0,0.009
2350.0,0.0088
2349.0,0.0079
2348.0,0.007
2347.0,0.0061
2346.0,0.0056
2345.0,0.0053
2344.0,0.0049
2343.0,0.0045
2342.0,0.0044
2341.0,0.0041
2340.0,0.0045
2339.0,0.0037
2338.0,0.0102
2337.0,0.0126
2336.0,0.0122
2335.0,0.0129
2334.0,0.0127
2333.0,0.0124
2332.0,0.012
2331.0,0.0117
2330.0,0.0117
2329.0,0.0116
2328.0,0.0115
2327.0,0.0115
2326.0,0.0116
2325.0,0.0119
2324.0,0.0123
2323.0,0.0128
2322.0,0.0131
2321.0,0.0132
2320.0,0.0132
2319.0,0.0131
2318.0,0.0131
2317.0,0.013
2316.0,0.0131
2315.0,0.0132
2314.0,0.0133
2313.0,0.0132
2312.0,0.013
2311.0,0.0129
2310.0,0.0129
2309.0,0.0131
2308.0,0.0134
2307.0,0.0138
2306.0,0.0141
2305.0,0.0143
2304.0,0.0145
2303.0,0.0146
2302.0,0.0147
2301.0,0.0148
2300.0,0.0149
2299.0,0.015
2298.0,0.0152
2297.0,0.0153
2296.0,0.0155
2295.0,0.0156
2294.0,0.0158
2293.0,0.016
2292.0,0.0162
2291.0,0.0164
2290.0,0.0166
2289.0,0.0167
2288.0,0.0169
2287.0,0.017
2286.0,0.0172
2285.0,0.0173
2284.0,0.0174
2283.0,0.0173
2282.0,0.0173
2281.0,0.0172
2280.0,0.0171
2279.0,0.017
2278.0,0.017
2277.0,0.0169
2276.0,0.0168
2275.0,0.0168
2274.0,0.0169
2273.0,0.0169
2272.0,0.0169
2271.0,0.0169
2270.0,0.0168
2269.0,0.0168
2268.0,0.0167
2267.0,0.0167
2266.0,0.0166
2265.0,0.0166
2264.0,0.0166
2263.0,0.0166
2262.0,0.0167
2261.0,0.0168
2260.0,0.0168
2259.0,0.0169
2258.0,0.0169
2257.0,0.0168
2256.0,0.0168
2255.0,0.0168
2254.0,0.0167
2253.0,0.0167
2252.0,0.0167
2251.0,0.0168
2250.0,0.0169
2249.0,0.0169
2248.0,0.0169
2247.0,0.0168
2246.0,0.0168
2245.0,0.0168
2244.0,0.0168
2243.0,0.0168
2242.0,0.0168
2241.0,0.0168
2240.0,0.0168
2239.0,0.0168
2238.0,0.0168
2237.0,0.0168
2236.0,0.0168
2235.0,0.0167
2234.0,0.0167
2233.0,0.0167
2232.0,0.0166
2231.0,0.0166
2230.0,0.0166
2229.0,0.0166
2228.0,0.0166
2227.0,0.0165
2226.0,0.0165
2225.0,0.0164
2224.0,0.0164
2223.0,0.0164
2222.0,0.0164
2221.0,0.0163
2220.0,0.0163
2219.0,0.0162
2218.0,0.0162
2217.0,0.0162
2216.0,0.0162
2215.0,0.0163
2214.0,0.0163
2213.0,0.0163
2212.0,0.0162
2211.0,0.0162
2210.0,0.0162
2209.0,0.0162
2208.0,0.0162
2207.0,0.0162
2206.0,0.0161
2205.0,0.0161
2204.0,0.016
2203.0,0.016
2202.0,0.0159
2201.0,0.0159
2200.0,0.0158
2199.0,0.0158
2198.0,0.0158
2197.0,0.0157
2196.0,0.0157
2195.0,0.0158
2194.0,0.0157
2193.0,0.0157
2192.0,0.0156
2191.0,0.0156
2190.0,0.0156
2189.0,0.0156
2188.0,0.0156
2187.0,0.0156
2186.0,0.0156
2185.0,0.0156
2184.0,0.0155
2183.0,0.0155
2182.0,0.0154
2181.0,0.0153
2180.0,0.0153
2179.0,0.0153
2178.0,0.0153
2177.0,0.0154
2176.0,0.0154
2175.0,0.0154
2174.0,0.0155
2173.0,0.0155
2172.0,0.0155
2171.0,0.0155
2170.0,0.0155
2169.0,0.0154
2168.0,0.0154
2167.0,0.0154
2166.0,0.0154
2165.0,0.0154
2164.0,0.0154
2163.0,0.0155
2162.0,0.0155
2161.0,0.0155
2160.0,0.0155
2159.0,0.0154
2158.0,0.0154
2157.0,0.0154
2156.0,0.0155
2155.0,0.0155
2154.0,0.0155
2153.0,0.0155
2152.0,0.0155
2151.0,0.0155
2150.0,0.0155
2149.0,0.0155
2148.0,0.0155
2147.0,0.0156
2146.0,0.0156
2145.0,0.0155
2144.0,0.0155
2143.0,0.0155
2142.0,0.0155
2141.0,0.0154
2140.0,0.0154
2139.0,0.0154
2138.0,0.0154
2137.0,0.0155
2136.0,0.0155
2135.0,0.0155
2134.0,0.0155
2133.0,0.0155
2132.0,0.0155
2131.0,0.0155
2130.0,0.0155
2129.0,0.0154
2128.0,0.0154
2127.0,0.0154
2126.0,0.0154
2125.0,0.0155
2124.0,0.0155
2123.0,0.0154
2122.0,0.0154
2121.0,0.0154
2120.0,0.0154
2119.0,0.0155
2118.0,0.0155
2117.0,0.0155
2116.0,0.0155
2115.0,0.0154
2114.0,0.0154
2113.0,0.0153
2112.0,0.0153
2111.0,0.0153
2110.0,0.0152
2109.0,0.0152
2108.0,0.0152
2107.0,0.0152
2106.0,0.0152
2105.0,0.0151
2104.0,0.0151
2103.0,0.0151
2102.0,0.0151
2101.0,0.0151
2100.0,0.0151
2099.0,0.015
2098.0,0.0149
2097.0,0.0149
2096.0,0.0148
2095.0,0.0149
2094.0,0.0149
2093.0,0.0148
2092.0,0.0147
2091.0,0.0147
2090.0,0.0146
2089.0,0.0146
2088.0,0.0145
2087.0,0.0145
2086.0,0.0145
2085.0,0.0145
2084.0,0.0144
2083.0,0.0144
2082.0,0.0144
2081.0,0.0144
2080.0,0.0143
2079.0,0.0143
2078.0,0.0142
2077.0,0.0142
2076.0,0.0141
2075.0,0.0141
2074.0,0.014
2073.0,0.014
2072.0,0.014
2071.0,0.014
2070.0,0.0139
2069.0,0.0139
2068.0,0.0138
2067.0,0.0137
2066.0,0.0137
2065.0,0.0136
2064.0,0.0135
2063.0,0.0135
2062.0,0.0135
2061.0,0.0134
2060.0,0.0133
2059.0,0.0133
2058.0,0.0132
2057.0,0.0131
2056.0,0.0131
2055.0,0.013
2054.0,0.013
2053.0,0.013
2052.0,0.0129
2051.0,0.0128
2050.0,0.0127
2049.0,0.0126
2048.0,0.0126
2047.0,0.0126
2046.0,0.0126
2045.0,0.0126
2044.0,0.0125
2043.0,0.0124
2042.0,0.0124
2041.0,0.0124
2040.0,0.0124
2039.0,0.0123
2038.0,0.0123
2037.0,0.0123
2036.0,0.0123
2035.0,0.0123
2034.0,0.0122
2033.0,0.0122
2032.0,0.0121
2031.0,0.0121
2030.0,0.0121
2029.0,0.0121
2028.0,0.0121
2027.0,0.012
2026.0,0.012
2025.0,0.012
2024.0,0.0119
2023.0,0.0119
2022.0,0.0119
2021.0,0.012
2020.0,0.012
2019.0,0.012
2018.0,0.0119
2017.0,0.0119
2016.0,0.0118
2015.0,0.0118
2014.0,0.0118
2013.0,0.0118
2012.0,0.0118
2011.0,0.0117
2010.0,0.0117
2009.0,0.0117
2008.0,0.0117
2007.0,0.0118
2006.0,0.0118
2005.0,0.0118
2004.0,0.0118
2003.0,0.0118
2002.0,0.0118
2001.0,0.0119
2000.0,0.0119
1999.0,0.012
1998.0,0.012
1997.0,0.012
1996.0,0.0121
1995.0,0.0121
1994.0,0.0122
1993.0,0.0122
1992.0,0.0121
1991.0,0.0121
1990.0,0.0121
1989.0,0.0121
1988.0,0.0121
1987.0,0.0121
1986.0,0.0121
1985.0,0.0121
1984.0,0.012
1983.0,0.0121
1982.0,0.0121
1981.0,0.0122
1980.0,0.0122
1979.0,0.0122
1978.0,0.0122
1977.0,0.0121
1976.0,0.0121
1975.0,0.0122
1974.0,0.0123
1973.0,0.0123
1972.0,0.0123
1971.0,0.0124
1970.0,0.0124
1969.0,0.0124
1968.0,0.0125
1967.0,0.0126
1966.0,0.0126
1965.0,0.0127
1964.0,0.0127
1963.0,0.0128
1962.0,0.0129
1961.0,0.013
1960.0,0.0131
1959.0,0.0132
1958.0,0.0132
1957.0,0.0133
1956.0,0.0134
1955.0,0.0134
1954.0,0.0135
1953.0,0.0136
1952.0,0.0136
1951.0,0.0136
1950.0,0.0136
1949.0,0.0135
1948.0,0.0135
1947.0,0.0135
1946.0,0.0135
1945.0,0.0135
1944.0,0.0134
1943.0,0.0132
1942.0,0.013
1941.0,0.0127
1940.0,0.0126
1939.0,0.0124
1938.0,0.0123
1937.0,0.0122
1936.0,0.012
1935.0,0.0119
1934.0,0.0117
1933.0,0.0116
1932.0,0.0114
1931.0,0.0113
1930.0,0.0112
1929.0,0.011
1928.0,0.0108
1927.0,0.0107
1926.0,0.0106
1925.0,0.0105
1924.0,0.0104
1923.0,0.0104
1922.0,0.0103
1921.0,0.0102
1920.0,0.0101
1919.0,0.01
1918.0,0.0098
1917.0,0.0096
1916.0,0.0095
1915.0,0.0094
1914.0,0.0094
1913.0,0.0093
1912.0,0.0092
1911.0,0.0091
1910.0,0.009
1909.0,0.0088
1908.0,0.0087
1907.0,0.0086
1906.0,0.0085
1905.0,0.0083
1904.0,0.0082
1903.0,0.0081
1902.0,0.008
1901.0,0.0079
1900.0,0.0078
1899.0,0.0077
1898.0,0.0076
1897.0,0.0075
1896.0,0.0073
1895.0,0.0073
1894.0,0.0072
1893.0,0.0071
1892.0,0.007
1891.0,0.0069
1890.0,0.0068
1889.0,0.0066
1888.0,0.0065
1887.0,0.0064
1886.0,0.0062
1885.0,0.0061
1884.0,0.006
1883.0,0.006
1882.0,0.0059
1881.0,0.0059
1880.0,0.0058
1879.0,0.0057
1878.0,0.0056
1877.0,0.0055
1876.0,0.0053
1875.0,0.0052
1874.0,0.0052
1873.0,0.0052
1872.0,0.0053
1871.0,0.0053
1870.0,0.0053
1869.0,0.0051
1868.0,0.0049
1867.0,0.0048
1866.0,0.0047
1865.0,0.0046
1864.0,0.0046
1863.0,0.0045
1862.0,0.0045
1861.0,0.0045
1860.0,0.0044
1859.0,0.0044
1858.0,0.0043
1857.0,0.0043
1856.0,0.0042
1855.0,0.0042
1854.0,0.0042
1853.0,0.0041
1852.0,0.0041
1851.0,0.0041
1850.0,0.0042
1849.0,0.0043
1848.0,0.0043
1847.0,0.0044
1846.0,0.0044
1845.0,0.0042
1844.0,0.0041
1843.0,0.0041
1842.0,0.0042
1841.0,0.0042
1840.0,0.0043
1839.0,0.0043
1838.0,0.0043
1837.0,0.0043
1836.0,0.0043
1835.0,0.0043
1834.0,0.0045
1833.0,0.0046
1832.0,0.0047
1831.0,0.0047
1830.0,0.0047
1829.0,0.0046
1828.0,0.0046
1827.0,0.0046
1826.0,0.0045
1825.0,0.0043
1824.0,0.0041
1823.0,0.004
1822.0,0.004
1821.0,0.0038
1820.0,0.0037
1819.0,0.0036
1818.0,0.0035
1817.0,0.0033
1816.0,0.0032
1815.0,0.0031
1814.0,0.003
1813.0,0.0028
1812.0,0.0027
1811.0,0.0025
1810.0,0.0023
1809.0,0.002
1808.0,0.0018
1807.0,0.0016
1806.0,0.0016
1805.0,0.0015
1804.0,0.0014
1803.0,0.0013
1802.0,0.0012
1801.0,0.0009
1800.0,0.0006
1799.0,0.0005
1798.0,0.0003
1797.0,0.0002
1796.0,0.0001
1795.0,0.0001
1794.0,-0.0
1793.0,-0.0004
1792.0,-0.0007
1791.0,-0.001
1790.0,-0.0011
1789.0,-0.0012
1788.0,-0.0014
1787.0,-0.0014
1786.0,-0.0015
1785.0,-0.0017
1784.0,-0.0019
1783.0,-0.002
1782.0,-0.0021
1781.0,-0.0023
1780.0,-0.0026
1779.0,-0.0027
1778.0,-0.0027
1777.0,-0.0028
1776.0,-0.0028
1775.0,-0.0028
1774.0,-0.0028
1773.0,-0.0032
1772.0,-0.0034
1771.0,-0.0033
1770.0,-0.0031
1769.0,-0.0031
1768.0,-0.0031
1767.0,-0.003
1766.0,-0.0027
1765.0,-0.0024
1764.0,-0.0021
1763.0,-0.0016
1762.0,-0.0011
1761.0,-0.0006
1760.0,-0.0001
1759.0,0.0008
1758.0,0.0018
1757.0,0.0027
1756.0,0.0038
1755.0,0.0051
1754.0,0.0067
1753.0,0.0083
1752.0,0.0104
1751.0,0.0134
1750.0,0.017
1749.0,0.0208
1748.0,0.025
1747.0,0.0298
1746.0,0.0352
1745.0,0.0413
1744.0,0.0485
1743.0,0.0566
1742.0,0.0651
1741.0,0.0749
1740.0,0.0871
1739.0,0.0999
1738.0,0.1101
1737.0,0.1178
1736.0,0.1264
1735.0,0.1416
1734.0,0.1633
1733.0,0.1813
1732.0,0.1937
1731.0,0.2061
1730.0,0.2203
1729.0,0.2351
1728.0,0.2491
1727.0,0.2623
1726.0,0.2759
1725.0,0.2907
1724.0,0.3066
1723.0,0.3222
1722.0,0.3352
1721.0,0.3446
1720.0,0.3521
1719.0,0.3619
1718.0,0.3761
1717.0,0.3884
1716.0,0.3932
1715.0,0.393
1714.0,0.3896
1713.0,0.3822
1712.0,0.371
1711.0,0.3571
1710.0,0.3415
1709.0,0.325
1708.0,0.3073
1707.0,0.2875
1706.0,0.266
1705.0,0.247
1704.0,0.2329
1703.0,0.2218
1702.0,0.2101
1701.0,0.195
1700.0,0.1801
1699.0,0.1702
1698.0,0.1635
1697.0,0.1564
1696.0,0.1482
1695.0,0.1412
1694.0,0.1365
1693.0,0.133
1692.0,0.1295
1691.0,0.1257
1690.0,0.1218
1689.0,0.1188
1688.0,0.1164
1687.0,0.1141
1686.0,0.1114
1685.0,0.1088
1684.0,0.1069
1683.0,0.1051
1682.0,0.1033
1681.0,0.1015
1680.0,0.0997
1679.0,0.0977
1678.0,0.0957
1677.0,0.0937
1676.0,0.0917
1675.0,0.0898
1674.0,0.0881
1673.0,0.0868
1672.0,0.0854
1671.0,0.0837
1670.0,0.082
1669.0,0.0806
1668.0,0.0795
1667.0,0.0783
1666.0,0.077
1665.0,0.0758
1664.0,0.0744
1663.0,0.0731
1662.0,0.0719
1661.0,0.071
1660.0,0.0701
1659.0,0.0691
1658.0,0.0683
1657.0,0.0675
1656.0,0.0668
1655.0,0.0658
1654.0,0.0649
1653.0,0.0647
1652.0,0.0645
1651.0,0.0642
1650.0,0.0638
1649.0,0.0633
1648.0,0.0629
1647.0,0.0627
1646.0,0.0626
1645.0,0.0624
1644.0,0.0621
1643.0,0.0618
1642.0,0.0614
1641.0,0.0611
1640.0,0.0608
1639.0,0.0603
1638.0,0.0597
1637.0,0.059
1636.0,0.0583
1635.0,0.0573
1634.0,0.0564
1633.0,0.0556
1632.0,0.0548
1631.0,0.054
1630.0,0.053
1629.0,0.0521
1628.0,0.0514
1627.0,0.0506
1626.0,0.0499
1625.0,0.0492
1624.0,0.0486
1623.0,0.0481
1622.0,0.0477
1621.0,0.0474
1620.0,0.0472
1619.0,0.047
1618.0,0.0472
1617.0,0.0483
1616.0,0.0494
1615.0,0.0499
1614.0,0.0497
1613.0,0.0493
1612.0,0.0486
1611.0,0.0478
1610.0,0.0469
1609.0,0.0458
1608.0,0.0448
1607.0,0.0437
1606.0,0.0427
1605.0,0.0417
1604.0,0.0408
1603.0,0.0399
1602.0,0.0391
1601.0,0.0382
1600.0,0.0374
1599.0,0.0366
1598.0,0.0359
1597.0,0.0354
1596.0,0.0349
1595.0,0.0345
1594.0,0.0342
1593.0,0.0339
1592.0,0.0337
1591.0,0.0336
1590.0,0.0335
1589.0,0.0336
1588.0,0.0338
1587.0,0.0343
1586.0,0.0351
1585.0,0.0364
1584.0,0.0384
1583.0,0.041
1582.0,0.0438
1581.0,0.0466
1580.0,0.0488
1579.0,0.05
1578.0,0.0502
1577.0,0.049
1576.0,0.0469
1575.0,0.0447
1574.0,0.0429
1573.0,0.0414
1572.0,0.0399
1571.0,0.0382
1570.0,0.0364
1569.0,0.0349
1568.0,0.0339
1567.0,0.0331
1566.0,0.0324
1565.0,0.0316
1564.0,0.031
1563.0,0.0305
1562.0,0.0302
1561.0,0.03
1560.0,0.0298
1559.0,0.0296
1558.0,0.0287
1557.0,0.028
1556.0,0.0275
1555.0,0.0271
1554.0,0.0268
1553.0,0.0265
1552.0,0.0263
1551.0,0.026
1550.0,0.0257
1549.0,0.0254
1548.0,0.0251
1547.0,0.0249
1546.0,0.0248
1545.0,0.0247
1544.0,0.0246
1543.0,0.0245
1542.0,0.0242
1541.0,0.0241
1540.0,0.0238
1539.0,0.0233
1538.0,0.023
1537.0,0.0231
1536.0,0.0231
1535.0,0.0232
1534.0,0.0233
1533.0,0.0235
1532.0,0.0235
1531.0,0.0235
1530.0,0.0235
1529.0,0.0235
1528.0,0.0236
1527.0,0.0234
1526.0,0.0232
1525.0,0.0231
1524.0,0.0229
1523.0,0.0227
1522.0,0.0224
1521.0,0.0222
1520.0,0.0219
1519.0,0.0217
1518.0,0.0216
1517.0,0.0215
1516.0,0.0213
1515.0,0.0212
1514.0,0.0213
1513.0,0.0219
1512.0,0.0229
1511.0,0.0243
1510.0,0.026
1509.0,0.0284
1508.0,0.0335
1507.0,0.0423
1506.0,0.0479
1505.0,0.0485
1504.0,0.0468
1503.0,0.0438
1502.0,0.0399
1501.0,0.0357
1500.0,0.0317
1499.0,0.028
1498.0,0.0247
1497.0,0.0221
1496.0,0.0203
1495.0,0.019
1494.0,0.0183
1493.0,0.0179
1492.0,0.0176
1491.0,0.0172
1490.0,0.0167
1489.0,0.0165
1488.0,0.0165
1487.0,0.0163
1486.0,0.0162
1485.0,0.0162
1484.0,0.0165
1483.0,0.0167
1482.0,0.017
1481.0,0.0174
1480.0,0.0178
1479.0,0.0181
1478.0,0.0184
1477.0,0.0188
1476.0,0.0193
1475.0,0.0197
1474.0,0.02
1473.0,0.0206
1472.0,0.0213
1471.0,0.0217
1470.0,0.0221
1469.0,0.0227
1468.0,0.0236
1467.0,0.0248
1466.0,0.0264
1465.0,0.0289
1464.0,0.0316
1463.0,0.0338
1462.0,0.0358
1461.0,0.0377
1460.0,0.0397
1459.0,0.042
1458.0,0.0451
1457.0,0.049
1456.0,0.0514
1455.0,0.0523
1454.0,0.0528
1453.0,0.0531
1452.0,0.0533
1451.0,0.0531
1450.0,0.0528
1449.0,0.0525
1448.0,0.0522
1447.0,0.0517
1446.0,0.0514
1445.0,0.0512
1444.0,0.051
1443.0,0.0508
1442.0,0.0505
1441.0,0.0501
1440.0,0.0496
1439.0,0.0487
1438.0,0.0472
1437.0,0.0449
1436.0,0.0421
1435.0,0.0396
1434.0,0.0373
1433.0,0.035
1432.0,0.0324
1431.0,0.0296
1430.0,0.0268
1429.0,0.0244
1428.0,0.0226
1427.0,0.0213
1426.0,0.0203
1425.0,0.0194
1424.0,0.0188
1423.0,0.0187
1422.0,0.0189
1421.0,0.0196
1420.0,0.0216
1419.0,0.0254
1418.0,0.0305
1417.0,0.0366
1416.0,0.0441
1415.0,0.0534
1414.0,0.0649
1413.0,0.0786
1412.0,0.0934
1411.0,0.1069
1410.0,0.1165
1409.0,0.1213
1408.0,0.1213
1407.0,0.1168
1406.0,0.1088
1405.0,0.0994
1404.0,0.0906
1403.0,0.0836
1402.0,0.0781
1401.0,0.0733
1400.0,0.0687
1399.0,0.0642
1398.0,0.0604
1397.0,0.0574
1396.0,0.0546
1395.0,0.0515
1394.0,0.0485
1393.0,0.0462
1392.0,0.0444
1391.0,0.0427
1390.0,0.041
1389.0,0.0395
1388.0,0.0379
1387.0,0.0367
1386.0,0.0359
1385.0,0.0356
1384.0,0.0357
1383.0,0.0361
1382.0,0.037
1381.0,0.0382
1380.0,0.0398
1379.0,0.0418
1378.0,0.0439
1377.0,0.0462
1376.0,0.0488
1375.0,0.0516
1374.0,0.0544
1373.0,0.0567
1372.0,0.0581
1371.0,0.0588
1370.0,0.0586
1369.0,0.0574
1368.0,0.055
1367.0,0.0518
1366.0,0.0481
1365.0,0.044
1364.0,0.0393
1363.0,0.0341
1362.0,0.0294
1361.0,0.0257
1360.0,0.023
1359.0,0.0209
1358.0,0.0193
1357.0,0.018
1356.0,0.0171
1355.0,0.0164
1354.0,0.016
1353.0,0.016
1352.0,0.0163
1351.0,0.0168
1350.0,0.0178
1349.0,0.0191
1348.0,0.0208
1347.0,0.0228
1346.0,0.0251
1345.0,0.0276
1344.0,0.0301
1343.0,0.0324
1342.0,0.0343
1341.0,0.0357
1340.0,0.0362
1339.0,0.0356
1338.0,0.0337
1337.0,0.0311
1336.0,0.028
1335.0,0.0249
1334.0,0.0221
1333.0,0.0198
1332.0,0.0181
1331.0,0.0171
1330.0,0.0166
1329.0,0.0168
1328.0,0.0174
1327.0,0.0183
1326.0,0.0196
1325.0,0.0211
1324.0,0.0229
1323.0,0.0248
1322.0,0.0268
1321.0,0.0289
1320.0,0.031
1319.0,0.0332
1318.0,0.0353
1317.0,0.0374
1316.0,0.0395
1315.0,0.0417
1314.0,0.044
1313.0,0.0466
1312.0,0.0494
1311.0,0.0523
1310.0,0.0553
1309.0,0.0585
1308.0,0.0618
1307.0,0.065
1306.0,0.0682
1305.0,0.0714
1304.0,0.0748
1303.0,0.0786
1302.0,0.0831
1301.0,0.0884
1300.0,0.0946
1299.0,0.1015
1298.0,0.109
1297.0,0.1169
1296.0,0.1252
1295.0,0.1334
1294.0,0.1414
1293.0,0.1494
1292.0,0.1574
1291.0,0.165
1290.0,0.1722
1289.0,0.1792
1288.0,0.186
1287.0,0.1922
1286.0,0.1978
1285.0,0.2029
1284.0,0.2075
1283.0,0.2115
1282.0,0.2148
1281.0,0.2178
1280.0,0.2206
1279.0,0.2229
1278.0,0.2249
1277.0,0.2271
1276.0,0.2299
1275.0,0.2333
1274.0,0.2377
1273.0,0.2437
1272.0,0.2515
1271.0,0.2608
1270.0,0.2713
1269.0,0.2829
1268.0,0.2954
1267.0,0.3084
1266.0,0.3212
1265.0,0.334
1264.0,0.3463
1263.0,0.3574
1262.0,0.3669
1261.0,0.375
1260.0,0.3815
1259.0,0.386
1258.0,0.3885
1257.0,0.3903
1256.0,0.3921
1255.0,0.3939
1254.0,0.3961
1253.0,0.3994
1252.0,0.4039
1251.0,0.4093
1250.0,0.4152
1249.0,0.4221
1248.0,0.4299
1247.0,0.4377
1246.0,0.4453
1245.0,0.4528
1244.0,0.46
1243.0,0.466
1242.0,0.47
1241.0,0.4723
1240.0,0.4725
1239.0,0.4695
1238.0,0.4631
1237.0,0.4537
1236.0,0.4417
1235.0,0.4269
1234.0,0.4099
1233.0,0.3919
1232.0,0.3736
1231.0,0.3552
1230.0,0.3373
1229.0,0.3203
1228.0,0.3045
1227.0,0.2894
1226.0,0.2749
1225.0,0.2614
1224.0,0.2488
1223.0,0.2369
1222.0,0.2258
1221.0,0.2154
1220.0,0.2059
1219.0,0.197
1218.0,0.1887
1217.0,0.1811
1216.0,0.1743
1215.0,0.1679
1214.0,0.1619
1213.0,0.1565
1212.0,0.1514
1211.0,0.1467
1210.0,0.1422
1209.0,0.1381
1208.0,0.1342
1207.0,0.1305
1206.0,0.127
1205.0,0.1237
1204.0,0.1205
1203.0,0.1175
1202.0,0.1145
1201.0,0.1117
1200.0,0.1091
1199.0,0.1064
1198.0,0.1038
1197.0,0.1013
1196.0,0.0989
1195.0,0.0965
1194.0,0.0941
1193.0,0.0919
1192.0,0.0899
1191.0,0.0881
1190.0,0.0864
1189.0,0.0849
1188.0,0.0836
1187.0,0.0827
1186.0,0.082
1185.0,0.0818
1184.0,0.0821
1183.0,0.0827
1182.0,0.0838
1181.0,0.0852
1180.0,0.0869
1179.0,0.0886
1178.0,0.0902
1177.0,0.0916
1176.0,0.0927
1175.0,0.0933
1174.0,0.0932
1173.0,0.0925
1172.0,0.0911
1171.0,0.0888
1170.0,0.0859
1169.0,0.0827
1168.0,0.0795
1167.0,0.0765
1166.0,0.0738
1165.0,0.0715
1164.0,0.0697
1163.0,0.0683
1162.0,0.0672
1161.0,0.0663
1160.0,0.0658
1159.0,0.0655
1158.0,0.0656
1157.0,0.066
1156.0,0.0667
1155.0,0.0679
1154.0,0.0696
1153.0,0.0717
1152.0,0.0744
1151.0,0.0776
1150.0,0.0812
1149.0,0.0854
1148.0,0.09
1147.0,0.0951
1146.0,0.1006
1145.0,0.1064
1144.0,0.1125
1143.0,0.1186
1142.0,0.1247
1141.0,0.1307
1140.0,0.1364
1139.0,0.1418
1138.0,0.1469
1137.0,0.1517
1136.0,0.1564
1135.0,0.1609
1134.0,0.1651
1133.0,0.1693
1132.0,0.1738
1131.0,0.1784
1130.0,0.1835
1129.0,0.1892
1128.0,0.1957
1127.0,0.2031
1126.0,0.2112
1125.0,0.2203
1124.0,0.23
1123.0,0.2399
1122.0,0.2495
1121.0,0.2585
1120.0,0.2665
1119.0,0.2727
1118.0,0.2768
1117.0,0.2789
1116.0,0.2791
1115.0,0.2772
1114.0,0.2739
1113.0,0.2703
1112.0,0.2674
1111.0,0.2661
1110.0,0.267
1109.0,0.2711
1108.0,0.2781
1107.0,0.2877
1106.0,0.2993
1105.0,0.3128
1104.0,0.328
1103.0,0.3442
1102.0,0.3608
1101.0,0.3776
1100.0,0.3944
1099.0,0.4101
1098.0,0.4242
1097.0,0.4367
1096.0,0.4471
1095.0,0.4549
1094.0,0.4597
1093.0,0.4622
1092.0,0.4627
1091.0,0.4606
1090.0,0.4559
1089.0,0.4496
1088.0,0.4421
1087.0,0.4332
1086.0,0.4232
1085.0,0.4127
1084.0,0.402
1083.0,0.3902
1082.0,0.3772
1081.0,0.3636
1080.0,0.3493
1079.0,0.3344
1078.0,0.3192
1077.0,0.3043
1076.0,0.2901
1075.0,0.2763
1074.0,0.2631
1073.0,0.2508
1072.0,0.2396
1071.0,0.2291
1070.0,0.2195
1069.0,0.2107
1068.0,0.2029
1067.0,0.1957
1066.0,0.1892
1065.0,0.1832
1064.0,0.1779
1063.0,0.1731
1062.0,0.1687
1061.0,0.1651
1060.0,0.1621
1059.0,0.16
1058.0,0.1586
1057.0,0.1582
1056.0,0.1586
1055.0,0.1596
1054.0,0.1612
1053.0,0.1635
1052.0,0.1664
1051.0,0.1697
1050.0,0.1731
1049.0,0.1767
1048.0,0.1803
1047.0,0.1837
1046.0,0.1866
1045.0,0.1892
1044.0,0.1913
1043.0,0.1926
1042.0,0.193
1041.0,0.1927
1040.0,0.1918
1039.0,0.1903
1038.0,0.1885
1037.0,0.1864
1036.0,0.1843
1035.0,0.182
1034.0,0.1796
1033.0,0.1774
1032.0,0.1754
1031.0,0.1734
1030.0,0.1714
1029.0,0.1693
1028.0,0.1675
1027.0,0.1662
1026.0,0.1659
1025.0,0.1678
1024.0,0.1728
1023.0,0.1819
1022.0,0.1958
1021.0,0.2146
1020.0,0.2372
1019.0,0.2608
1018.0,0.2809
1017.0,0.2932
1016.0,0.2941
1015.0,0.2831
1014.0,0.2635
1013.0,0.2407
1012.0,0.2191
1011.0,0.2006
1010.0,0.1857
1009.0,0.1738
1008.0,0.1641
1007.0,0.1562
1006.0,0.1495
1005.0,0.1441
1004.0,0.1397
1003.0,0.1359
1002.0,0.1326
1001.0,0.1296
1000.0,0.1269
999.0,0.1244
998.0,0.1221
997.0,0.1201
996.0,0.1184
995.0,0.1169
994.0,0.1154
993.0,0.1142
992.0,0.1131
991.0,0.1122
990.0,0.1114
989.0,0.1107
988.0,0.1103
987.0,0.1101
986.0,0.1102
985.0,0.1103
984.0,0.1103
983.0,0.1102
982.0,0.1098
981.0,0.1095
980.0,0.1092
979.0,0.109
978.0,0.1089
977.0,0.1089
976.0,0.1089
975.0,0.109
974.0,0.1088
973.0,0.1085
972.0,0.108
971.0,0.1073
970.0,0.1063
969.0,0.1051
968.0,0.1039
967.0,0.1025
966.0,0.101
965.0,0.0995
964.0,0.0981
963.0,0.0966
962.0,0.0951
961.0,0.0938
960.0,0.0926
959.0,0.0914
958.0,0.0904
957.0,0.0894
956.0,0.0885
955.0,0.0877
954.0,0.0868
953.0,0.0861
952.0,0.0854
951.0,0.0847
950.0,0.084
949.0,0.0834
948.0,0.083
947.0,0.0825
946.0,0.0821
945.0,0.0816
944.0,0.0812
943.0,0.0807
942.0,0.0802
941.0,0.0799
940.0,0.0797
939.0,0.0795
938.0,0.0792
937.0,0.0789
936.0,0.0786
935.0,0.0783
934.0,0.078
933.0,0.0776
932.0,0.0772
931.0,0.0768
930.0,0.0765
929.0,0.0761
928.0,0.0758
927.0,0.0754
926.0,0.075
925.0,0.0745
924.0,0.074
923.0,0.0734
922.0,0.0729
921.0,0.0725
920.0,0.0722
919.0,0.072
918.0,0.072
917.0,0.0721
916.0,0.0724
915.0,0.0729
914.0,0.0735
913.0,0.0744
912.0,0.0756
911.0,0.0771
910.0,0.079
909.0,0.0813
908.0,0.084
907.0,0.087
906.0,0.0901
905.0,0.0932
904.0,0.0963
903.0,0.0992
902.0,0.1018
901.0,0.1042
900.0,0.1063
899.0,0.1081
898.0,0.1093
897.0,0.1101
896.0,0.1106
895.0,0.1109
894.0,0.1109
893.0,0.1109
892.0,0.111
891.0,0.1113
890.0,0.1117
889.0,0.1123
888.0,0.1133
887.0,0.1145
886.0,0.1161
885.0,0.1181
884.0,0.1208
883.0,0.1241
882.0,0.128
881.0,0.1328
880.0,0.1384
879.0,0.1445
878.0,0.1512
877.0,0.1581
876.0,0.165
875.0,0.171
874.0,0.1753
873.0,0.1774
872.0,0.177
871.0,0.1739
870.0,0.1685
869.0,0.1616
868.0,0.1539
867.0,0.1462
866.0,0.1389
865.0,0.1325
864.0,0.1272
863.0,0.1228
862.0,0.1192
861.0,0.1165
860.0,0.1144
859.0,0.113
858.0,0.1119
857.0,0.1113
856.0,0.1111
855.0,0.1109
854.0,0.1107
853.0,0.1105
852.0,0.1103
851.0,0.1102
850.0,0.1101
849.0,0.11
848.0,0.11
847.0,0.11
846.0,0.11
845.0,0.1101
844.0,0.1104
843.0,0.1107
842.0,0.1107
841.0,0.1106
840.0,0.1104
839.0,0.11
838.0,0.1094
837.0,0.1086
836.0,0.1077
835.0,0.1066
834.0,0.1053
833.0,0.104
832.0,0.1029
831.0,0.1018
830.0,0.1009
829.0,0.1
828.0,0.0993
827.0,0.0986
826.0,0.0979
825.0,0.0972
824.0,0.0967
823.0,0.0962
822.0,0.0956
821.0,0.0952
820.0,0.095
819.0,0.0948
818.0,0.0947
817.0,0.0945
816.0,0.0945
815.0,0.0946
814.0,0.0947
813.0,0.095
812.0,0.0953
811.0,0.0954
810.0,0.0953
809.0,0.0951
808.0,0.0949
807.0,0.0947
806.0,0.0944
805.0,0.0941
804.0,0.0938
803.0,0.0933
802.0,0.0927
801.0,0.0922
800.0,0.0922
799.0,0.093
798.0,0.0951
797.0,0.0988
796.0,0.1034
795.0,0.108
794.0,0.1112
793.0,0.1127
792.0,0.1122
791.0,0.11
790.0,0.1068
789.0,0.1032
788.0,0.0998
787.0,0.0963
786.0,0.0929
785.0,0.0898
784.0,0.0873
783.0,0.0853
782.0,0.0834
781.0,0.0818
780.0,0.0804
779.0,0.0791
778.0,0.0776
777.0,0.0763
776.0,0.075
775.0,0.074
774.0,0.0731
773.0,0.0721
772.0,0.0712
771.0,0.0701
770.0,0.069
769.0,0.0679
768.0,0.0669
767.0,0.0657
766.0,0.0643
765.0,0.0629
764.0,0.0617
763.0,0.0606
762.0,0.0594
761.0,0.0583
760.0,0.0572
759.0,0.0559
758.0,0.0546
757.0,0.0533
756.0,0.0521
755.0,0.0508
754.0,0.0495
753.0,0.0481
752.0,0.0467
751.0,0.0452
750.0,0.0437
749.0,0.0425
748.0,0.0418
747.0,0.0416
746.0,0.0419
745.0,0.0432
744.0,0.0462
743.0,0.0512
742.0,0.0588
741.0,0.0696
740.0,0.0837
739.0,0.101
738.0,0.1209
737.0,0.1429
736.0,0.1666
735.0,0.1912
734.0,0.2162
733.0,0.2426
732.0,0.271
731.0,0.3019
730.0,0.3359
729.0,0.3742
728.0,0.4167
727.0,0.4607
726.0,0.5008
725.0,0.5302
724.0,0.5416
723.0,0.5303
722.0,0.4979
721.0,0.4521
720.0,0.4036
719.0,0.3605
718.0,0.3256
717.0,0.298
716.0,0.2755
715.0,0.2571
714.0,0.2423
713.0,0.2311
712.0,0.2226
711.0,0.2156
710.0,0.2092
709.0,0.2035
708.0,0.1987
707.0,0.1944
706.0,0.1901
705.0,0.1858
704.0,0.1816
703.0,0.1769
702.0,0.1717
701.0,0.1663
700.0,0.1612
699.0,0.1563
698.0,0.1516
697.0,0.1474
696.0,0.144
695.0,0.1411
694.0,0.1382
693.0,0.1356
692.0,0.1338
691.0,0.1323
690.0,0.1304
689.0,0.1281
688.0,0.1259
687.0,0.1244
686.0,0.1234
685.0,0.1231
684.0,0.1238
683.0,0.1251
682.0,0.1263
681.0,0.1269
680.0,0.1264
679.0,0.1247
678.0,0.1219
677.0,0.1188
676.0,0.1166
675.0,0.1152
674.0,0.1141
673.0,0.113
672.0,0.1119
671.0,0.1111
670.0,0.1102
669.0,0.1105
668.0,0.1128
667.0,0.1139
666.0,0.1126
665.0,0.1106
664.0,0.109
663.0,0.108
662.0,0.1072
661.0,0.1065
660.0,0.1059
659.0,0.1054
658.0,0.1048
657.0,0.1042
656.0,0.104
655.0,0.1041
654.0,0.1042
653.0,0.1041
652.0,0.1039
651.0,0.1034
650.0,0.1025
649.0,0.1014
648.0,0.1007
647.0,0.1005
646.0,0.1004
645.0,0.1003
644.0,0.1002
643.0,0.1004
642.0,0.1011
641.0,0.1024
640.0,0.104
639.0,0.1056
638.0,0.107
637.0,0.1091
636.0,0.1123
635.0,0.1157
634.0,0.1182
633.0,0.1189
632.0,0.1182
631.0,0.1165
630.0,0.1141
629.0,0.112
628.0,0.1105
627.0,0.1095
626.0,0.1087
625.0,0.1076
624.0,0.1062
623.0,0.1046
622.0,0.1031
621.0,0.1023
620.0,0.1022
619.0,0.1021
618.0,0.1011
617.0,0.0996
616.0,0.0982
615.0,0.0973
614.0,0.0969
613.0,0.097
612.0,0.0973
611.0,0.0968
610.0,0.0957
609.0,0.0949
608.0,0.0949
607.0,0.0948
606.0,0.0941
605.0,0.0937
604.0,0.095
603.0,0.0977
602.0,0.1
601.0,0.1006
600.0,0.0995
