cm-1,A
4000.0,0.010683695010048622
3999.0,0.010728208358306901
3998.0,0.01077272626946324
3997.0,0.010817248744452446
3996.0,0.010906307389674463
3995.0,0.010995384301463185
3994.0,0.011039929609661936
3993.0,0.011039929609661936
3992.0,0.010995384301463185
3991.0,0.010995384301463185
3990.0,0.011039929609661936
3989.0,0.011084479487313281
3988.0,0.011129033935354915
3987.0,0.01117359295472431
3986.0,0.01117359295472431
3985.0,0.01117359295472431
3984.0,0.011129033935354915
3983.0,0.011084479487313281
3982.0,0.011084479487313281
3981.0,0.011039929609661936
3980.0,0.010995384301463185
3979.0,0.010950843561779777
3978.0,0.010950843561779777
3977.0,0.010995384301463185
3976.0,0.011039929609661936
3975.0,0.011039929609661936
3974.0,0.011084479487313281
3973.0,0.011084479487313281
3972.0,0.011084479487313281
3971.0,0.011039929609661936
3970.0,0.010995384301463185
3969.0,0.010950843561779777
3968.0,0.010906307389674463
3967.0,0.010950843561779777
3966.0,0.010995384301463185
3965.0,0.011084479487313281
3964.0,0.011084479487313281
3963.0,0.011084479487313281
3962.0,0.010995384301463185
3961.0,0.01086177578421088
3960.0,0.010728208358306901
3959.0,0.010683695010048622
3958.0,0.010683695010048622
3957.0,0.01077272626946324
3956.0,0.010906307389674463
3955.0,0.010995384301463185
3954.0,0.011039929609661936
3953.0,0.010995384301463185
3952.0,0.010995384301463185
3951.0,0.010950843561779777
3950.0,0.010906307389674463
3949.0,0.01086177578421088
3948.0,0.010817248744452446
3947.0,0.010817248744452446
3946.0,0.01077272626946324
3945.0,0.01086177578421088
3944.0,0.010950843561779777
3943.0,0.010995384301463185
3942.0,0.010995384301463185
3941.0,0.010950843561779777
3940.0,0.010906307389674463
3939.0,0.010906307389674463
3938.0,0.010950843561779777
3937.0,0.010950843561779777
3936.0,0.010906307389674463
3935.0,0.01086177578421088
3934.0,0.010906307389674463
3933.0,0.010995384301463185
3932.0,0.011039929609661936
3931.0,0.010995384301463185
3930.0,0.01086177578421088
3929.0,0.01077272626946324
3928.0,0.010728208358306901
3927.0,0.01077272626946324
3926.0,0.010906307389674463
3925.0,0.011039929609661936
3924.0,0.011129033935354915
3923.0,0.011084479487313281
3922.0,0.010995384301463185
3921.0,0.010906307389674463
3920.0,0.01086177578421088
3919.0,0.01086177578421088
3918.0,0.010906307389674463
3917.0,0.010995384301463185
3916.0,0.011084479487313281
3915.0,0.011129033935354915
3914.0,0.011218156546359825
3913.0,0.011307297450183107
3912.0,0.011396456654336085
3911.0,0.011396456654336085
3910.0,0.011351874764248926
3909.0,0.011218156546359825
3908.0,0.011039929609661936
3907.0,0.010817248744452446
3906.0,0.010683695010048622
3905.0,0.010594681998483901
3904.0,0.01046119667949763
3903.0,0.010283280051895272
3902.0,0.010194349063173958
3901.0,0.010194349063173958
3900.0,0.010327752376126709
3899.0,0.010416710688994968
3898.0,0.010550182333308289
3897.0,0.010683695010048622
3896.0,0.01077272626946324
3895.0,0.01086177578421088
3894.0,0.01086177578421088
3893.0,0.010950843561779777
3892.0,0.011039929609661936
3891.0,0.010995384301463185
3890.0,0.01086177578421088
3889.0,0.010817248744452446
3888.0,0.01086177578421088
3887.0,0.010906307389674463
3886.0,0.010950843561779777
3885.0,0.010906307389674463
3884.0,0.010728208358306901
3883.0,0.010639186223752484
3882.0,0.010728208358306901
3881.0,0.01086177578421088
3880.0,0.010906307389674463
3879.0,0.01077272626946324
3878.0,0.010683695010048622
3877.0,0.010639186223752484
3876.0,0.010683695010048622
3875.0,0.010683695010048622
3874.0,0.010594681998483901
3873.0,0.010416710688994968
3872.0,0.010283280051895272
3871.0,0.010283280051895272
3870.0,0.010327752376126709
3869.0,0.010283280051895272
3868.0,0.010194349063173958
3867.0,0.010194349063173958
3866.0,0.010283280051895272
3865.0,0.010550182333308289
3864.0,0.01077272626946324
3863.0,0.010817248744452446
3862.0,0.01077272626946324
3861.0,0.01077272626946324
3860.0,0.010817248744452446
3859.0,0.010817248744452446
3858.0,0.010683695010048622
3857.0,0.010416710688994968
3856.0,0.010105436281226954
3855.0,0.010149890396819572
3854.0,0.010594681998483901
3853.0,0.01077272626946324
3852.0,0.010639186223752484
3851.0,0.010683695010048622
3850.0,0.010995384301463185
3849.0,0.011262724711199823
3848.0,0.011351874764248926
3847.0,0.011307297450183107
3846.0,0.011218156546359825
3845.0,0.011039929609661936
3844.0,0.010817248744452446
3843.0,0.010505687227290839
3842.0,0.010194349063173958
3841.0,0.009972101229705377
3840.0,0.009927665307847056
3839.0,0.010060986715464404
3838.0,0.010194349063173958
3837.0,0.01023881228122181
3836.0,0.010283280051895272
3835.0,0.010416710688994968
3834.0,0.010594681998483901
3833.0,0.01077272626946324
3832.0,0.010950843561779777
3831.0,0.011129033935354915
3830.0,0.011218156546359825
3829.0,0.011262724711199823
3828.0,0.011262724711199823
3827.0,0.011262724711199823
3826.0,0.011084479487313281
3825.0,0.010817248744452446
3824.0,0.010550182333308289
3823.0,0.01037222925484893
3822.0,0.010505687227290839
3821.0,0.010728208358306901
3820.0,0.010683695010048622
3819.0,0.010550182333308289
3818.0,0.010639186223752484
3817.0,0.010906307389674463
3816.0,0.011218156546359825
3815.0,0.011441043121384498
3814.0,0.011619434777991433
3813.0,0.011842527443247208
3812.0,0.0119764380713403
3811.0,0.0119764380713403
3810.0,0.011753276624621556
3809.0,0.011485634166333858
3808.0,0.011351874764248926
3807.0,0.011218156546359825
3806.0,0.011039929609661936
3805.0,0.01086177578421088
3804.0,0.010817248744452446
3803.0,0.010906307389674463
3802.0,0.011084479487313281
3801.0,0.011129033935354915
3800.0,0.010950843561779777
3799.0,0.010906307389674463
3798.0,0.011084479487313281
3797.0,0.011351874764248926
3796.0,0.011574829993696856
3795.0,0.011708658092512314
3794.0,0.011842527443247208
3793.0,0.012021084124518078
3792.0,0.01215504982870197
3791.0,0.012289056869694281
3790.0,0.012333735073725371
3789.0,0.012289056869694281
3788.0,0.012244383261476699
3787.0,0.012199714248127602
3786.0,0.01215504982870197
3785.0,0.012110390002254778
3784.0,0.011931796607364653
3783.0,0.011753276624621556
3782.0,0.011664044143949504
3781.0,0.011664044143949504
3780.0,0.011753276624621556
3779.0,0.011842527443247208
3778.0,0.011842527443247208
3777.0,0.011887159731648111
3776.0,0.0119764380713403
3775.0,0.012110390002254778
3774.0,0.01215504982870197
3773.0,0.01215504982870197
3772.0,0.012110390002254778
3771.0,0.01215504982870197
3770.0,0.012199714248127602
3769.0,0.01215504982870197
3768.0,0.012065734767841452
3767.0,0.012110390002254778
3766.0,0.01215504982870197
3765.0,0.01215504982870197
3764.0,0.012021084124518078
3763.0,0.011887159731648111
3762.0,0.011708658092512314
3761.0,0.011664044143949504
3760.0,0.011708658092512314
3759.0,0.011797899741219142
3758.0,0.011797899741219142
3757.0,0.011664044143949504
3756.0,0.011485634166333858
3755.0,0.011218156546359825
3754.0,0.010906307389674463
3753.0,0.010594681998483901
3752.0,0.010505687227290839
3751.0,0.010550182333308289
3750.0,0.010505687227290839
3749.0,0.01046119667949763
3748.0,0.010550182333308289
3747.0,0.010728208358306901
3746.0,0.010906307389674463
3745.0,0.011084479487313281
3744.0,0.011129033935354915
3743.0,0.011039929609661936
3742.0,0.011129033935354915
3741.0,0.01117359295472431
3740.0,0.011039929609661936
3739.0,0.01077272626946324
3738.0,0.01046119667949763
3737.0,0.010327752376126709
3736.0,0.010283280051895272
3735.0,0.010283280051895272
3734.0,0.01023881228122181
3733.0,0.010327752376126709
3732.0,0.010594681998483901
3731.0,0.010906307389674463
3730.0,0.011218156546359825
3729.0,0.011351874764248926
3728.0,0.011351874764248926
3727.0,0.011351874764248926
3726.0,0.011396456654336085
3725.0,0.011441043121384498
3724.0,0.011485634166333858
3723.0,0.011574829993696856
3722.0,0.011708658092512314
3721.0,0.011842527443247208
3720.0,0.012021084124518078
3719.0,0.012244383261476699
3718.0,0.012378417874516323
3717.0,0.012378417874516323
3716.0,0.012289056869694281
3715.0,0.0119764380713403
3714.0,0.011619434777991433
3713.0,0.011351874764248926
3712.0,0.011307297450183107
3711.0,0.011396456654336085
3710.0,0.011530229790124524
3709.0,0.011708658092512314
3708.0,0.0119764380713403
3707.0,0.012289056869694281
3706.0,0.012512493866907004
3705.0,0.01260190086298274
3704.0,0.012691326268817527
3703.0,0.012736045877764557
3702.0,0.012825498912458322
3701.0,0.012780770091995297
3700.0,0.012736045877764557
3699.0,0.012736045877764557
3698.0,0.012825498912458322
3697.0,0.012914970375878188
3696.0,0.012959713020733288
3695.0,0.012825498912458322
3694.0,0.01264661126420652
3693.0,0.012423105273012602
3692.0,0.012289056869694281
3691.0,0.012333735073725371
3690.0,0.012512493866907004
3689.0,0.01264661126420652
3688.0,0.012691326268817527
3687.0,0.012959713020733288
3686.0,0.013362604389846044
3685.0,0.01372104409400876
3684.0,0.013945219230304673
3683.0,0.013990068146738865
3682.0,0.013945219230304673
3681.0,0.013900374944870508
3680.0,0.01381070026317599
3679.0,0.013541787262693505
3678.0,0.013273040668781544
3677.0,0.01318349541446362
3676.0,0.013362604389846044
3675.0,0.013317820220494436
3674.0,0.013138729709955221
3673.0,0.013093968619278806
3672.0,0.013362604389846044
3671.0,0.01385553528947936
3670.0,0.014438812226654996
3669.0,0.014708281407112
3668.0,0.014843078722943437
3667.0,0.015067833932588037
3666.0,0.01538268676325183
3665.0,0.015697768020096703
3664.0,0.015922966097169144
3663.0,0.016148281008528276
3662.0,0.01632861713980338
3661.0,0.01646391839700767
3660.0,0.016509028184833463
3659.0,0.016509028184833463
3658.0,0.016554142658660398
3657.0,0.016644385668211692
3656.0,0.016734647433454652
3655.0,0.016644385668211692
3654.0,0.01646391839700767
3653.0,0.016148281008528276
3652.0,0.015832872853011715
3651.0,0.015742798294583915
3650.0,0.016058141016111804
3649.0,0.016418813294209356
3648.0,0.016554142658660398
3647.0,0.01677978535189717
3646.0,0.017231422748988034
3645.0,0.01781925440359733
3644.0,0.01840788278591865
3643.0,0.018861217359339655
3642.0,0.019178833355664393
3641.0,0.019360432556262852
3640.0,0.01954210772389997
3639.0,0.019678413991243593
3638.0,0.019860222254245663
3637.0,0.01995115493504329
3636.0,0.02004210665933459
3635.0,0.020087589665283012
3634.0,0.020087589665283012
3633.0,0.01995115493504329
3632.0,0.019769308608968306
3631.0,0.019769308608968306
3630.0,0.020178569969774962
3629.0,0.020861530453190058
3628.0,0.02122621566987748
3627.0,0.02140867317992523
3626.0,0.02168250325324883
3625.0,0.022139270735302752
3624.0,0.02245929405346514
3623.0,0.022642270454698687
3622.0,0.022733787572707387
3621.0,0.022871099419317753
3620.0,0.023054249440757957
3619.0,0.023237476732539397
3618.0,0.023283295636617574
3617.0,0.02342078135989012
3616.0,0.023695883447997224
3615.0,0.024108863598207186
3614.0,0.024522236834125355
3613.0,0.02475205875931885
3612.0,0.02484402159331056
3611.0,0.024798037742147727
3610.0,0.02484402159331056
3609.0,0.02498200236711723
3608.0,0.025258095499050004
3607.0,0.02562649291857677
3606.0,0.025902996205869
3605.0,0.02613355016462182
3604.0,0.02636422658259252
3603.0,0.026502691267936695
3602.0,0.026687379547098322
3601.0,0.02691835039863255
3600.0,0.027149444152769986
3599.0,0.027426919073445077
3598.0,0.0277045713888604
3597.0,0.028028723600243666
3596.0,0.028353117935693284
3595.0,0.02872415126189476
3594.0,0.029002634427514717
3593.0,0.029188389127482228
3592.0,0.02932775731028059
3591.0,0.02942069428514915
3590.0,0.029513651152349718
3589.0,0.02969962459782227
3588.0,0.030118356253500123
3587.0,0.030537492025363155
3586.0,0.03081714076773867
3585.0,0.031143625385307683
3584.0,0.03151705144606498
3583.0,0.03193753992355086
3582.0,0.032311649546687526
3581.0,0.03263926003405038
3580.0,0.032873418923587305
3579.0,0.033060836978886954
3578.0,0.0332483359486222
3577.0,0.033482823553208085
3576.0,0.03376437590141812
3575.0,0.03409308450480819
3574.0,0.03432802877989327
3573.0,0.034516075754861264
3572.0,0.03461012978487776
3571.0,0.03461012978487776
3570.0,0.03456310022373987
3569.0,0.03461012978487776
3568.0,0.03484535401307465
3567.0,0.03522197797762394
3566.0,0.03555179208333925
3565.0,0.03583468937826462
3564.0,0.03621217265444465
3563.0,0.03668448861388862
3562.0,0.0371100126082089
3561.0,0.03744126420403626
3560.0,0.03772539537668518
3559.0,0.03800971255993524
3558.0,0.038341651362284734
3557.0,0.038673844065289176
3556.0,0.038911280232103884
3555.0,0.03910132267333921
3554.0,0.039338992729018196
3553.0,0.03957679292217042
3552.0,0.039767126871487646
3551.0,0.039909932095080425
3550.0,0.040005161671583744
3549.0,0.04010041213405646
3548.0,0.0402909757535701
3547.0,0.040529297924893015
3546.0,0.04081545726880842
3545.0,0.04105406750606355
3544.0,0.041340572947066834
3543.0,0.041627267521392675
3542.0,0.04196198390166317
3541.0,0.04224908912272074
3540.0,0.04253638427006878
3539.0,0.042775942156833
3538.0,0.0431115453499229
3537.0,0.04339941178682327
3536.0,0.04368746915880539
3535.0,0.0439276630048171
3534.0,0.04402377775167454
3533.0,0.044167989767578186
3532.0,0.044312249686494276
3531.0,0.044456557540257124
3530.0,0.04460091336073302
3529.0,0.04469717723830824
3528.0,0.04484161307420642
3527.0,0.04503426894157925
3526.0,0.04522701031028298
3525.0,0.045516282844447975
3524.0,0.045902279520810385
3523.0,0.046192002334692894
3522.0,0.04643358574299339
3521.0,0.04653025674659861
3520.0,0.04662694927330402
3519.0,0.04677202844014605
3518.0,0.04701393480294458
3517.0,0.04730440041308315
3516.0,0.047643522676209304
3515.0,0.047982909952573705
3514.0,0.04832256265669943
3513.0,0.0486139051197072
3512.0,0.04885683989244738
3511.0,0.048954051864180226
3510.0,0.04909991063361274
3509.0,0.049294465226138895
3508.0,0.04953778109440221
3507.0,0.04978123335813667
3506.0,0.05002482217034632
3505.0,0.05026854768429301
3504.0,0.05056119896349576
3503.0,0.050902874887084115
3502.0,0.051244819831730126
3501.0,0.05153812993871654
3500.0,0.05188057561946402
3499.0,0.05217431555754937
3498.0,0.052468254304406825
3497.0,0.05266432405126009
3496.0,0.05286048235717078
3495.0,0.05305672930217464
3494.0,0.05325306496641513
3493.0,0.05354773498692689
3492.0,0.05394093961487645
3491.0,0.05438372077326825
3490.0,0.05482695382609992
3489.0,0.055172003656783764
3488.0,0.05541863577307371
3487.0,0.05561604235915585
3486.0,0.055764156206519866
3485.0,0.055961719945581745
3484.0,0.05620880107069848
3483.0,0.05655495097496965
3482.0,0.05690137699451481
3481.0,0.05724807957018618
3480.0,0.05764465029232335
3479.0,0.05799194697768684
3478.0,0.0583395216116076
3477.0,0.05868737463933793
3476.0,0.05908526241971446
3475.0,0.05943371350990989
3474.0,0.05973260855398799
3473.0,0.05998184499233683
3472.0,0.0601813371786204
3471.0,0.060430831344098435
3470.0,0.060730413661268745
3469.0,0.06103020277710969
3468.0,0.061380218497318895
3467.0,0.061680456657844385
3466.0,0.06198090252378963
3465.0,0.062281556382736136
3464.0,0.06263258248271053
3463.0,0.06303410289212974
3462.0,0.06343599486473406
3461.0,0.06383825908884244
3460.0,0.06419054619006714
3459.0,0.06449273417528723
3458.0,0.06479513257341862
3457.0,0.06514819703433927
3456.0,0.06550154875643233
3455.0,0.06590573164451952
3454.0,0.06636088747507496
3453.0,0.06681652082538614
3452.0,0.06722192993944942
3451.0,0.06752623532284674
3450.0,0.06777998612288094
3449.0,0.06798309356579857
3448.0,0.06833876031551878
3447.0,0.06874559358358656
3446.0,0.06915280831750303
3445.0,0.06945847013556561
3444.0,0.06981534770138009
3443.0,0.07022356719509815
3442.0,0.07068327324650436
3441.0,0.07114346641808922
3440.0,0.07155293679081787
3439.0,0.07186029312488018
3438.0,0.07221915065262552
3437.0,0.07262963696097646
3436.0,0.07304051161972436
3435.0,0.0734517753643813
3434.0,0.07376047895413773
3433.0,0.07412091069849924
3432.0,0.07443009045662374
3431.0,0.07479107858799638
3430.0,0.07515236702446293
3429.0,0.07551395626608493
3428.0,0.07587584681417514
3427.0,0.07618627890881036
3426.0,0.07644514193245056
3425.0,0.07665234350217442
3424.0,0.07675598136972361
3423.0,0.07691148455760066
3422.0,0.07711890879170658
3421.0,0.07743023101428781
3420.0,0.0777417765670334
3419.0,0.07800156869172903
3418.0,0.07820951434181311
3417.0,0.07836553894629472
3416.0,0.07846958649875768
3415.0,0.07862570458152551
3414.0,0.07867775641617802
3413.0,0.07878187880504961
3412.0,0.0788860261633193
3411.0,0.07904229404455076
3410.0,0.07925073872429178
3409.0,0.0794592834975203
3408.0,0.07966792846041071
3407.0,0.07982447798997727
3406.0,0.07992887570247587
3405.0,0.07998108397108505
3404.0,0.07998108397108505
3403.0,0.08003329851661278
3402.0,0.08013774644446192
3401.0,0.08029446545087904
3400.0,0.08045124103115198
3399.0,0.08055578953476306
3398.0,0.08060807322614072
3397.0,0.08066036321258663
3396.0,0.08071265949561734
3395.0,0.08071265949561734
3394.0,0.08071265949561734
3393.0,0.08071265949561734
3392.0,0.08071265949561734
3391.0,0.08060807322614072
3390.0,0.0805035121369384
3389.0,0.08034671768963575
3388.0,0.08024221949810584
3387.0,0.08018997982980403
3386.0,0.08018997982980403
3385.0,0.08018997982980403
3384.0,0.08008551934056851
3383.0,0.07982447798997727
3382.0,0.07956359344924135
3381.0,0.07935499859321249
3380.0,0.07919861817434581
3379.0,0.07904229404455076
3378.0,0.0788860261633193
3377.0,0.07872981449018734
3376.0,0.07857365898473456
3375.0,0.07831352451639795
3374.0,0.07810552907089763
3373.0,0.07784567476894111
3372.0,0.07763790321520991
3371.0,0.07748213975538865
3370.0,0.07732643214144574
3369.0,0.0772226580712021
3368.0,0.07711890879170658
3367.0,0.07696333132921396
3366.0,0.07680780957933253
3365.0,0.07654873036034848
3364.0,0.07628980560343712
3363.0,0.07592757008963713
3362.0,0.07551395626608493
3361.0,0.07515236702446293
3360.0,0.07499749231902242
3359.0,0.07489427319033615
3358.0,0.07479107858799638
3357.0,0.07458476291575367
3356.0,0.07432700607875953
3355.0,0.07396640332115534
3354.0,0.07370901311513656
3353.0,0.07350321072677968
3352.0,0.07340034609297241
3351.0,0.07329750581735506
3350.0,0.07309189829456408
3349.0,0.07283502570063005
3348.0,0.07252697900472405
3347.0,0.07216786713341827
3346.0,0.07186029312488018
3345.0,0.07155293679081787
3344.0,0.0713481533463054
3343.0,0.07119462910671581
3342.0,0.0709900145060387
3341.0,0.07078549626260622
3340.0,0.07052998382251041
3339.0,0.07032568205141221
3338.0,0.07007043991541217
3337.0,0.06986635415888243
3336.0,0.06966236426227002
3335.0,0.06945847013556561
3334.0,0.0692037370166998
3333.0,0.0688982543673613
3332.0,0.0684912781333824
3331.0,0.0680846829187538
3330.0,0.06767846801070698
3329.0,0.06737405597821788
3328.0,0.0671712330991534
3327.0,0.06701917807680191
3326.0,0.06686717627326577
3325.0,0.06661395809694559
3324.0,0.06641148980334699
3323.0,0.06615853710127872
3322.0,0.06590573164451952
3321.0,0.06565307326174441
3320.0,0.0654005617819271
3319.0,0.06519865825346338
3318.0,0.06494641076893504
3317.0,0.06474471821595262
3316.0,0.06454311928839007
3315.0,0.06439198148213077
3314.0,0.06419054619006714
3313.0,0.06393888339001164
3312.0,0.06363708040225546
3311.0,0.06328524178879635
3310.0,0.06303410289212974
3309.0,0.0627329277885873
3308.0,0.06253226035662252
3307.0,0.062381820606176586
3306.0,0.062331685600995
3305.0,0.062281556382736136
3304.0,0.06218131530164395
3303.0,0.06203099704854709
3302.0,0.061780582187257016
3301.0,0.06148027482350815
3300.0,0.06123017721688262
3299.0,0.06108018775522828
3298.0,0.06093025007657582
3297.0,0.060730413661268745
3296.0,0.060530669156469985
3295.0,0.06028111764589528
3294.0,0.05998184499233683
3293.0,0.05968277842578207
3292.0,0.05938391766259232
3291.0,0.059135024033278416
3290.0,0.05898575629443026
3289.0,0.0588862729628985
3288.0,0.058836539841526925
3287.0,0.058737090681050264
3286.0,0.05858795962645047
3285.0,0.05843887976392925
3284.0,0.0582898510583536
3283.0,0.058190526991161784
3282.0,0.05804158346918653
3281.0,0.05789269101064454
3280.0,0.057743849580535134
3279.0,0.0575950591438934
3278.0,0.05754547365752294
3277.0,0.05749589383191922
3276.0,0.05744631966579017
3275.0,0.057396751157843484
3274.0,0.05729763111133224
3273.0,0.05709945885970602
3272.0,0.05690137699451481
3271.0,0.0567528748621382
3270.0,0.05665390164340933
3269.0,0.05660442349104544
3268.0,0.05655495097496965
3267.0,0.05655495097496965
3266.0,0.05660442349104544
3265.0,0.05660442349104544
3264.0,0.05665390164340933
3263.0,0.05665390164340933
3262.0,0.05655495097496965
3261.0,0.056456022846545606
3260.0,0.05635711724787096
3259.0,0.05625823416868636
3258.0,0.05620880107069848
3257.0,0.056159373598738904
3256.0,0.056159373598738904
3255.0,0.056159373598738904
3254.0,0.056159373598738904
3253.0,0.056159373598738904
3252.0,0.056159373598738904
3251.0,0.05606053552778367
3250.0,0.055912320584565744
3249.0,0.05571477931124735
3248.0,0.055566682299785564
3247.0,0.05536929814372171
3246.0,0.055172003656783764
3245.0,0.0549747987575373
3244.0,0.054728418492290265
3243.0,0.05438372077326825
3242.0,0.05403929642243144
3241.0,0.05369514500652506
3240.0,0.053449489430144714
3239.0,0.05330216275425803
3238.0,0.05310580489767336
3237.0,0.05286048235717078
3236.0,0.0525172634430815
3235.0,0.05212534510230182
3234.0,0.05178270644002936
3233.0,0.05153812993871654
3232.0,0.051244819831730126
3231.0,0.05095170768433621
3230.0,0.0506099933550872
3229.0,0.05026854768429301
3228.0,0.05002482217034632
3227.0,0.04978123335813667
3226.0,0.04944043838819989
3225.0,0.04909991063361274
3224.0,0.04871106272232795
3223.0,0.04837110616336182
3222.0,0.04807992647970649
3221.0,0.04778894189133087
3220.0,0.04754660357696672
3219.0,0.04730440041308315
3218.0,0.047062332249019345
3217.0,0.04677202844014605
3216.0,0.046481918555007384
3215.0,0.046143701775014145
3214.0,0.04580574818413763
3213.0,0.045516282844447975
3212.0,0.045323413081356456
3211.0,0.04508244626504121
3210.0,0.04488976902944808
3209.0,0.04464904263234004
3208.0,0.04440844959427559
3207.0,0.04411991377462465
3206.0,0.04383156952463674
3205.0,0.0435434165901003
3204.0,0.04325545471730896
3203.0,0.042967683653061695
3202.0,0.04268010314465909
3201.0,0.042344833056508824
3200.0,0.042057664554595586
3199.0,0.04186632432376469
3198.0,0.04167506835594681
3197.0,0.041483896576958834
3196.0,0.04124505013091051
3195.0,0.040958607678906356
3194.0,0.04072004986906119
3193.0,0.04043395336207234
3192.0,0.04019568349166214
3191.0,0.040005161671583744
3190.0,0.03981472339538916
3189.0,0.03957679292217042
3188.0,0.039338992729018196
3187.0,0.03905380426616856
3186.0,0.038816290187564384
3185.0,0.03862637240519895
3184.0,0.03838909190871931
3183.0,0.038151940981675736
3182.0,0.03791491948264003
3181.0,0.03772539537668518
3180.0,0.03763066432997886
3179.0,0.037488606492403154
3178.0,0.037299268295658994
3177.0,0.0371100126082089
3176.0,0.03682628362474838
3175.0,0.036542739883292485
3174.0,0.03621217265444465
3173.0,0.03592902944204468
3172.0,0.035693217696063595
3171.0,0.03555179208333925
3170.0,0.03541041251009669
3169.0,0.03526907894637077
3168.0,0.03517488211661135
3167.0,0.03503362516890207
3166.0,0.03489241415094413
3165.0,0.03475124903287918
3164.0,0.03461012978487776
3163.0,0.03442204208947208
3162.0,0.034187046963396917
3161.0,0.03385826726096752
3160.0,0.03352973627071565
3159.0,0.033295223342125535
3158.0,0.033154576345083564
3157.0,0.033060836978886954
3156.0,0.032920265855503006
3155.0,0.03273290844021437
3154.0,0.032545631817259224
3153.0,0.03235843591698884
3152.0,0.03217132066984485
3151.0,0.031984286006358165
3150.0,0.03179733185715028
3149.0,0.031657169041054534
3148.0,0.031563752288295444
3147.0,0.03142366482450232
3146.0,0.03133029827960798
3145.0,0.031143625385307683
3144.0,0.030957032694186815
3143.0,0.0307239045110681
3142.0,0.030537492025363155
3141.0,0.030351159519274695
3140.0,0.030211462585061133
3139.0,0.030071810571884017
3138.0,0.029885677714903025
3137.0,0.02969962459782227
3136.0,0.029513651152349718
3135.0,0.02942069428514915
3134.0,0.02932775731028059
3133.0,0.029281296279810798
3132.0,0.029188389127482228
3131.0,0.02904906565457588
3130.0,0.028956208163971375
3129.0,0.028816959143838528
3128.0,0.028677754757187035
3127.0,0.028538594975413334
3126.0,0.028353117935693284
3125.0,0.028214062120885508
3124.0,0.028075050815808744
3123.0,0.02798240132598462
3122.0,0.027889771597169544
3121.0,0.027797161620935595
3120.0,0.0277045713888604
3119.0,0.027658283674251827
3118.0,0.027565723042634938
3117.0,0.027426919073445077
3116.0,0.027288159452933503
3115.0,0.027195677663422346
3114.0,0.027056991894431892
3113.0,0.02691835039863255
3112.0,0.026872146400301444
3111.0,0.02682594731702781
3110.0,0.026872146400301444
3109.0,0.026872146400301444
3108.0,0.02691835039863255
3107.0,0.02691835039863255
3106.0,0.026872146400301444
3105.0,0.02682594731702781
3104.0,0.026687379547098322
3103.0,0.02654885597506529
3102.0,0.02636422658259252
3101.0,0.02613355016462182
3100.0,0.025949097207122573
3099.0,0.025718641122169483
3098.0,0.02553436426275746
3097.0,0.02539620791296726
3096.0,0.025258095499050004
3095.0,0.02521206778644225
3094.0,0.02512002699306959
3093.0,0.025074013910237447
3092.0,0.025028005701930978
3091.0,0.02498200236711723
3090.0,0.024936003904763915
3089.0,0.02484402159331056
3088.0,0.024798037742147727
3087.0,0.024798037742147727
3086.0,0.024798037742147727
3085.0,0.024798037742147727
3084.0,0.024798037742147727
3083.0,0.02484402159331056
3082.0,0.02484402159331056
3081.0,0.024798037742147727
3080.0,0.024706084643793647
3079.0,0.02461415101053266
3078.0,0.024476287039668643
3077.0,0.024338466818941473
3076.0,0.024292536462819925
3075.0,0.024200690320592466
3074.0,0.024154774532432866
3073.0,0.02406295751688936
3072.0,0.024017056287453542
3071.0,0.023971159908874107
3070.0,0.023971159908874107
3069.0,0.023925268380126097
3068.0,0.023879381700184332
3067.0,0.023833499868024743
3066.0,0.023741750742954926
3065.0,0.02365002099672653
3064.0,0.02351246269481
3063.0,0.02342078135989012
3062.0,0.023283295636617574
3061.0,0.023191662661933732
3060.0,0.023100049017062307
3059.0,0.02300845469384938
3058.0,0.02296266477531872
3057.0,0.02300845469384938
3056.0,0.02300845469384938
3055.0,0.02300845469384938
3054.0,0.02291687968414724
3053.0,0.02277955336461468
3052.0,0.02259651912656535
3051.0,0.022413561996148967
3050.0,0.0221849739168134
3049.0,0.021956506090037076
3048.0,0.021773818325474092
3047.0,0.02159120737696063
3046.0,0.021363051615525652
3045.0,0.021089422824428272
3044.0,0.02081596632558158
3043.0,0.020633757603838898
3042.0,0.02045162529590483
3041.0,0.020315076172974234
3040.0,0.020178569969774962
3039.0,0.02004210665933459
3038.0,0.01995115493504329
3037.0,0.019860222254245663
3036.0,0.019860222254245663
3035.0,0.019860222254245663
3034.0,0.019814763052665052
3033.0,0.019769308608968306
3032.0,0.019723858922159776
3031.0,0.019632973815224997
3030.0,0.01958753839310856
3029.0,0.01958753839310856
3028.0,0.01958753839310856
3027.0,0.019632973815224997
3026.0,0.019632973815224997
3025.0,0.019678413991243593
3024.0,0.019723858922159776
3023.0,0.019723858922159776
3022.0,0.019769308608968306
3021.0,0.019860222254245663
3020.0,0.019996628416253603
3019.0,0.020178569969774962
3018.0,0.02036058777709271
3017.0,0.020497151212598652
3016.0,0.020633757603838898
3015.0,0.020770406977844713
3014.0,0.0209982515252789
3013.0,0.0211806132671577
3012.0,0.021363051615525652
3011.0,0.021499930688540836
3010.0,0.02168250325324883
3009.0,0.021910826943857264
3008.0,0.0221849739168134
3007.0,0.022413561996148967
3006.0,0.02259651912656535
3005.0,0.022688026603074007
3004.0,0.02277955336461468
3003.0,0.022871099419317753
3002.0,0.02296266477531872
3001.0,0.023100049017062307
3000.0,0.023191662661933732
2999.0,0.023283295636617574
2998.0,0.023329119375188556
2997.0,0.023466619608062178
2996.0,0.023604163388120325
2995.0,0.023787622882622816
2994.0,0.023879381700184332
2993.0,0.023879381700184332
2992.0,0.023925268380126097
2991.0,0.02406295751688936
2990.0,0.024246610963712723
2989.0,0.024430342106337877
2988.0,0.024660115394541604
2987.0,0.02484402159331056
2986.0,0.025074013910237447
2985.0,0.02539620791296726
2984.0,0.025718641122169483
2983.0,0.026087429580295085
2982.0,0.026502691267936695
2981.0,0.02691835039863255
2980.0,0.027334407733889066
2979.0,0.027750864037404455
2978.0,0.02812138297373412
2977.0,0.028445846553939003
2976.0,0.028770552723758724
2975.0,0.029141943003497595
2974.0,0.029513651152349718
2973.0,0.029885677714903025
2972.0,0.03025802323714588
2971.0,0.030537492025363155
2970.0,0.030770520137356927
2969.0,0.030957032694186815
2968.0,0.031143625385307683
2967.0,0.03128362253321426
2966.0,0.03142366482450232
2965.0,0.03147035562516054
2964.0,0.03142366482450232
2963.0,0.03133029827960798
2962.0,0.031143625385307683
2961.0,0.030957032694186815
2960.0,0.0307239045110681
2959.0,0.030490901403433135
2958.0,0.03025802323714588
2957.0,0.029978734171634214
2956.0,0.029653123769906697
2955.0,0.02932775731028059
2954.0,0.028956208163971375
2953.0,0.02858497661500481
2952.0,0.028167720075074953
2951.0,0.027750864037404455
2950.0,0.027288159452933503
2949.0,0.026872146400301444
2948.0,0.026502691267936695
2947.0,0.026225806029419818
2946.0,0.025949097207122573
2945.0,0.025718641122169483
2944.0,0.02544225514642018
2943.0,0.02521206778644225
2942.0,0.025028005701930978
2941.0,0.024890010313838973
2940.0,0.02484402159331056
2939.0,0.024890010313838973
2938.0,0.025028005701930978
2937.0,0.02516604495145991
2936.0,0.025258095499050004
2935.0,0.025304128090317013
2934.0,0.025350165561278004
2933.0,0.02539620791296726
2932.0,0.02544225514642018
2931.0,0.02544225514642018
2930.0,0.02553436426275746
2929.0,0.025672564576383117
2928.0,0.025810808881832736
2927.0,0.025949097207122573
2926.0,0.025995203102585407
2925.0,0.025949097207122573
2924.0,0.025902996205869
2923.0,0.025856900097785074
2922.0,0.025764722556973707
2921.0,0.02562649291857677
2920.0,0.02544225514642018
2919.0,0.025304128090317013
2918.0,0.02516604495145991
2917.0,0.025074013910237447
2916.0,0.025028005701930978
2915.0,0.02498200236711723
2914.0,0.02498200236711723
2913.0,0.02498200236711723
2912.0,0.025028005701930978
2911.0,0.025028005701930978
2910.0,0.02498200236711723
2909.0,0.024936003904763915
2908.0,0.02484402159331056
2907.0,0.02475205875931885
2906.0,0.024522236834125355
2905.0,0.024292536462819925
2904.0,0.023971159908874107
2903.0,0.02365002099672653
2902.0,0.023283295636617574
2901.0,0.02296266477531872
2900.0,0.022733787572707387
2899.0,0.022505030926963654
2898.0,0.022367834754000393
2897.0,0.02227639471115217
2896.0,0.022139270735302752
2895.0,0.021910826943857264
2894.0,0.02168250325324883
2893.0,0.021499930688540836
2892.0,0.021317434843055594
2891.0,0.02122621566987748
2890.0,0.021135015652343103
2889.0,0.021043834782408455
2888.0,0.020861530453190058
2887.0,0.02067930261797568
2886.0,0.020542681902151694
2885.0,0.02045162529590483
2884.0,0.02036058777709271
2883.0,0.020315076172974234
2882.0,0.020178569969774962
2881.0,0.020087589665283012
2880.0,0.019996628416253603
2879.0,0.01990568621470623
2878.0,0.019860222254245663
2877.0,0.019814763052665052
2876.0,0.019769308608968306
2875.0,0.019769308608968306
2874.0,0.019769308608968306
2873.0,0.019814763052665052
2872.0,0.019769308608968306
2871.0,0.019723858922159776
2870.0,0.019678413991243593
2869.0,0.01958753839310856
2868.0,0.01958753839310856
2867.0,0.01958753839310856
2866.0,0.019632973815224997
2865.0,0.019723858922159776
2864.0,0.019860222254245663
2863.0,0.019996628416253603
2862.0,0.020178569969774962
2861.0,0.02036058777709271
2860.0,0.020497151212598652
2859.0,0.020633757603838898
2858.0,0.020724852408976924
2857.0,0.020861530453190058
2856.0,0.0209982515252789
2855.0,0.021043834782408455
2854.0,0.021043834782408455
2853.0,0.020907099361673565
2852.0,0.020633757603838898
2851.0,0.020315076172974234
2850.0,0.01990568621470623
2849.0,0.01954210772389997
2848.0,0.019133445417920836
2847.0,0.018770512579999288
2846.0,0.018362575344230914
2845.0,0.018045555530026514
2844.0,0.017774008325325275
2843.0,0.017547848615010242
2842.0,0.01727661233145472
2841.0,0.017005545341335804
2840.0,0.016734647433454652
2839.0,0.016554142658660398
2838.0,0.016373712875465518
2837.0,0.01628352608625061
2836.0,0.016148281008528276
2835.0,0.016103208673694303
2834.0,0.016013078034810446
2833.0,0.015922966097169144
2832.0,0.015832872853011715
2831.0,0.01578783323856614
2830.0,0.01578783323856614
2829.0,0.015742798294583915
2828.0,0.015652742414136167
2827.0,0.015562705203923999
2826.0,0.015517693597737248
2825.0,0.01547268665620738
2824.0,0.015427684378367834
2823.0,0.015427684378367834
2822.0,0.015427684378367834
2821.0,0.015337693809893471
2820.0,0.015292705517326866
2819.0,0.015202742910707112
2818.0,0.015157768594724175
2817.0,0.015157768594724175
2816.0,0.015202742910707112
2815.0,0.015247721884586563
2814.0,0.015202742910707112
2813.0,0.015157768594724175
2812.0,0.015067833932588037
2811.0,0.015022873584506602
2810.0,0.015067833932588037
2809.0,0.015067833932588037
2808.0,0.015112798935672522
2807.0,0.015112798935672522
2806.0,0.015112798935672522
2805.0,0.015112798935672522
2804.0,0.015112798935672522
2803.0,0.015112798935672522
2802.0,0.015067833932588037
2801.0,0.015067833932588037
2800.0,0.015022873584506602
2799.0,0.014977917890464765
2798.0,0.014888020460646079
2797.0,0.014798141635428141
2796.0,0.014708281407112
2795.0,0.014618439768003144
2794.0,0.01452861671041239
2793.0,0.0144837121472845
2792.0,0.0144837121472845
2791.0,0.01452861671041239
2790.0,0.01452861671041239
2789.0,0.01452861671041239
2788.0,0.0144837121472845
2787.0,0.0144837121472845
2786.0,0.0144837121472845
2785.0,0.0144837121472845
2784.0,0.0144837121472845
2783.0,0.014438812226654996
2782.0,0.014349026309051105
2781.0,0.014259258949925524
2780.0,0.014214382227394795
2779.0,0.014169510141607944
2778.0,0.014124642691606404
2777.0,0.014079779876432497
2776.0,0.014079779876432497
2775.0,0.014079779876432497
2774.0,0.014124642691606404
2773.0,0.014124642691606404
2772.0,0.014124642691606404
2771.0,0.014124642691606404
2770.0,0.014079779876432497
2769.0,0.01403492169512921
2768.0,0.013945219230304673
2767.0,0.013900374944870508
2766.0,0.013900374944870508
2765.0,0.01385553528947936
2764.0,0.013900374944870508
2763.0,0.013945219230304673
2762.0,0.013945219230304673
2761.0,0.013945219230304673
2760.0,0.013900374944870508
2759.0,0.01385553528947936
2758.0,0.01381070026317599
2757.0,0.013765869865004277
2756.0,0.01381070026317599
2755.0,0.01385553528947936
2754.0,0.013945219230304673
2753.0,0.013945219230304673
2752.0,0.013945219230304673
2751.0,0.013900374944870508
2750.0,0.013900374944870508
2749.0,0.013900374944870508
2748.0,0.013900374944870508
2747.0,0.013900374944870508
2746.0,0.013900374944870508
2745.0,0.01385553528947936
2744.0,0.01381070026317599
2743.0,0.013765869865004277
2742.0,0.013676222949234651
2741.0,0.013631406429727155
2740.0,0.013676222949234651
2739.0,0.01372104409400876
2738.0,0.01372104409400876
2737.0,0.013676222949234651
2736.0,0.013631406429727155
2735.0,0.013676222949234651
2734.0,0.01372104409400876
2733.0,0.01372104409400876
2732.0,0.01372104409400876
2731.0,0.013676222949234651
2730.0,0.013631406429727155
2729.0,0.013586594534531482
2728.0,0.013586594534531482
2727.0,0.013496984613259544
2726.0,0.013452186585275916
2725.0,0.013407393177789162
2724.0,0.013407393177789162
2723.0,0.013452186585275916
2722.0,0.013452186585275916
2721.0,0.013452186585275916
2720.0,0.013407393177789162
2719.0,0.013362604389846044
2718.0,0.013362604389846044
2717.0,0.013317820220494436
2716.0,0.013362604389846044
2715.0,0.013407393177789162
2714.0,0.013496984613259544
2713.0,0.013496984613259544
2712.0,0.013541787262693505
2711.0,0.013496984613259544
2710.0,0.013452186585275916
2709.0,0.013317820220494436
2708.0,0.01322826573375524
2707.0,0.01318349541446362
2706.0,0.01318349541446362
2705.0,0.01322826573375524
2704.0,0.01322826573375524
2703.0,0.01322826573375524
2702.0,0.01318349541446362
2701.0,0.013138729709955221
2700.0,0.013093968619278806
2699.0,0.013093968619278806
2698.0,0.013093968619278806
2697.0,0.013049212141483357
2696.0,0.013049212141483357
2695.0,0.013049212141483357
2694.0,0.013004460275618523
2693.0,0.013004460275618523
2692.0,0.013004460275618523
2691.0,0.013004460275618523
2690.0,0.013093968619278806
2689.0,0.01318349541446362
2688.0,0.01322826573375524
2687.0,0.01322826573375524
2686.0,0.01318349541446362
2685.0,0.013093968619278806
2684.0,0.013049212141483357
2683.0,0.013004460275618523
2682.0,0.013004460275618523
2681.0,0.012959713020733288
2680.0,0.012914970375878188
2679.0,0.012914970375878188
2678.0,0.012959713020733288
2677.0,0.013004460275618523
2676.0,0.013004460275618523
2675.0,0.012959713020733288
2674.0,0.012959713020733288
2673.0,0.012914970375878188
2672.0,0.012870232340102872
2671.0,0.012870232340102872
2670.0,0.012914970375878188
2669.0,0.012959713020733288
2668.0,0.012959713020733288
2667.0,0.012959713020733288
2666.0,0.012914970375878188
2665.0,0.012825498912458322
2664.0,0.012736045877764557
2663.0,0.012736045877764557
2662.0,0.012691326268817527
2661.0,0.012691326268817527
2660.0,0.012691326268817527
2659.0,0.012691326268817527
2658.0,0.012691326268817527
2657.0,0.012691326268817527
2656.0,0.012691326268817527
2655.0,0.012736045877764557
2654.0,0.012736045877764557
2653.0,0.012736045877764557
2652.0,0.012691326268817527
2651.0,0.012691326268817527
2650.0,0.012691326268817527
2649.0,0.012691326268817527
2648.0,0.012736045877764557
2647.0,0.012736045877764557
2646.0,0.012736045877764557
2645.0,0.012691326268817527
2644.0,0.012736045877764557
2643.0,0.012736045877764557
2642.0,0.012736045877764557
2641.0,0.012736045877764557
2640.0,0.012691326268817527
2639.0,0.01264661126420652
2638.0,0.01264661126420652
2637.0,0.01264661126420652
2636.0,0.01264661126420652
2635.0,0.012691326268817527
2634.0,0.012736045877764557
2633.0,0.012780770091995297
2632.0,0.012780770091995297
2631.0,0.012825498912458322
2630.0,0.012825498912458322
2629.0,0.012825498912458322
2628.0,0.012825498912458322
2627.0,0.012870232340102872
2626.0,0.012870232340102872
2625.0,0.012870232340102872
2624.0,0.012870232340102872
2623.0,0.012825498912458322
2622.0,0.012825498912458322
2621.0,0.012825498912458322
2620.0,0.012870232340102872
2619.0,0.012914970375878188
2618.0,0.012914970375878188
2617.0,0.012870232340102872
2616.0,0.012780770091995297
2615.0,0.012736045877764557
2614.0,0.01264661126420652
2613.0,0.01260190086298274
2612.0,0.01260190086298274
2611.0,0.01260190086298274
2610.0,0.01260190086298274
2609.0,0.012557195064198723
2608.0,0.012557195064198723
2607.0,0.01260190086298274
2606.0,0.01264661126420652
2605.0,0.012691326268817527
2604.0,0.012691326268817527
2603.0,0.01264661126420652
2602.0,0.01260190086298274
2601.0,0.01260190086298274
2600.0,0.01264661126420652
2599.0,0.012736045877764557
2598.0,0.012825498912458322
2597.0,0.012870232340102872
2596.0,0.012870232340102872
2595.0,0.012870232340102872
2594.0,0.012825498912458322
2593.0,0.012825498912458322
2592.0,0.012825498912458322
2591.0,0.012825498912458322
2590.0,0.012870232340102872
2589.0,0.012914970375878188
2588.0,0.012914970375878188
2587.0,0.012959713020733288
2586.0,0.012914970375878188
2585.0,0.012914970375878188
2584.0,0.012914970375878188
2583.0,0.012959713020733288
2582.0,0.013004460275618523
2581.0,0.012959713020733288
2580.0,0.012959713020733288
2579.0,0.012959713020733288
2578.0,0.012959713020733288
2577.0,0.012959713020733288
2576.0,0.012870232340102872
2575.0,0.012825498912458322
2574.0,0.012780770091995297
2573.0,0.012780770091995297
2572.0,0.012780770091995297
2571.0,0.012780770091995297
2570.0,0.012780770091995297
2569.0,0.012736045877764557
2568.0,0.012736045877764557
2567.0,0.012736045877764557
2566.0,0.012780770091995297
2565.0,0.012825498912458322
2564.0,0.012870232340102872
2563.0,0.012870232340102872
2562.0,0.012914970375878188
2561.0,0.012870232340102872
2560.0,0.012870232340102872
2559.0,0.012825498912458322
2558.0,0.012825498912458322
2557.0,0.012825498912458322
2556.0,0.012870232340102872
2555.0,0.012914970375878188
2554.0,0.012914970375878188
2553.0,0.012914970375878188
2552.0,0.012825498912458322
2551.0,0.012780770091995297
2550.0,0.012736045877764557
2549.0,0.012736045877764557
2548.0,0.012780770091995297
2547.0,0.012870232340102872
2546.0,0.012914970375878188
2545.0,0.012914970375878188
2544.0,0.012870232340102872
2543.0,0.012825498912458322
2542.0,0.012825498912458322
2541.0,0.012825498912458322
2540.0,0.012825498912458322
2539.0,0.012825498912458322
2538.0,0.012780770091995297
2537.0,0.012825498912458322
2536.0,0.012825498912458322
2535.0,0.012825498912458322
2534.0,0.012825498912458322
2533.0,0.012780770091995297
2532.0,0.012736045877764557
2531.0,0.012691326268817527
2530.0,0.012736045877764557
2529.0,0.012780770091995297
2528.0,0.012825498912458322
2527.0,0.012914970375878188
2526.0,0.012914970375878188
2525.0,0.012914970375878188
2524.0,0.012914970375878188
2523.0,0.012870232340102872
2522.0,0.012780770091995297
2521.0,0.012691326268817527
2520.0,0.01264661126420652
2519.0,0.01264661126420652
2518.0,0.012691326268817527
2517.0,0.012736045877764557
2516.0,0.012780770091995297
2515.0,0.012780770091995297
2514.0,0.012736045877764557
2513.0,0.012691326268817527
2512.0,0.01264661126420652
2511.0,0.01260190086298274
2510.0,0.01260190086298274
2509.0,0.012557195064198723
2508.0,0.01260190086298274
2507.0,0.01264661126420652
2506.0,0.01264661126420652
2505.0,0.012557195064198723
2504.0,0.012467797270160563
2503.0,0.012467797270160563
2502.0,0.012467797270160563
2501.0,0.012467797270160563
2500.0,0.012467797270160563
2499.0,0.012467797270160563
2498.0,0.012467797270160563
2497.0,0.012512493866907004
2496.0,0.012467797270160563
2495.0,0.012467797270160563
2494.0,0.012423105273012602
2493.0,0.012423105273012602
2492.0,0.012423105273012602
2491.0,0.012423105273012602
2490.0,0.012423105273012602
2489.0,0.012378417874516323
2488.0,0.012378417874516323
2487.0,0.012378417874516323
2486.0,0.012378417874516323
2485.0,0.012333735073725371
2484.0,0.012244383261476699
2483.0,0.012199714248127602
2482.0,0.01215504982870197
2481.0,0.01215504982870197
2480.0,0.012199714248127602
2479.0,0.012244383261476699
2478.0,0.012289056869694281
2477.0,0.012289056869694281
2476.0,0.012244383261476699
2475.0,0.012244383261476699
2474.0,0.012244383261476699
2473.0,0.012199714248127602
2472.0,0.01215504982870197
2471.0,0.012110390002254778
2470.0,0.012110390002254778
2469.0,0.01215504982870197
2468.0,0.012199714248127602
2467.0,0.012244383261476699
2466.0,0.012244383261476699
2465.0,0.012199714248127602
2464.0,0.01215504982870197
2463.0,0.012110390002254778
2462.0,0.012065734767841452
2461.0,0.012065734767841452
2460.0,0.012065734767841452
2459.0,0.012065734767841452
2458.0,0.012065734767841452
2457.0,0.012065734767841452
2456.0,0.012065734767841452
2455.0,0.012110390002254778
2454.0,0.012110390002254778
2453.0,0.012065734767841452
2452.0,0.012065734767841452
2451.0,0.012021084124518078
2450.0,0.012021084124518078
2449.0,0.012065734767841452
2448.0,0.012065734767841452
2447.0,0.012110390002254778
2446.0,0.01215504982870197
2445.0,0.01215504982870197
2444.0,0.01215504982870197
2443.0,0.01215504982870197
2442.0,0.01215504982870197
2441.0,0.012110390002254778
2440.0,0.012110390002254778
2439.0,0.012110390002254778
2438.0,0.012110390002254778
2437.0,0.012110390002254778
2436.0,0.012110390002254778
2435.0,0.012110390002254778
2434.0,0.012110390002254778
2433.0,0.012110390002254778
2432.0,0.012110390002254778
2431.0,0.01215504982870197
2430.0,0.012199714248127602
2429.0,0.012244383261476699
2428.0,0.012244383261476699
2427.0,0.012289056869694281
2426.0,0.012289056869694281
2425.0,0.012244383261476699
2424.0,0.012244383261476699
2423.0,0.012244383261476699
2422.0,0.012289056869694281
2421.0,0.012333735073725371
2420.0,0.012378417874516323
2419.0,0.012378417874516323
2418.0,0.012378417874516323
2417.0,0.012378417874516323
2416.0,0.012333735073725371
2415.0,0.012378417874516323
2414.0,0.012423105273012602
2413.0,0.012467797270160563
2412.0,0.012512493866907004
2411.0,0.012557195064198723
2410.0,0.012557195064198723
2409.0,0.012557195064198723
2408.0,0.012512493866907004
2407.0,0.012557195064198723
2406.0,0.012557195064198723
2405.0,0.01260190086298274
2404.0,0.01264661126420652
2403.0,0.012691326268817527
2402.0,0.012691326268817527
2401.0,0.012736045877764557
2400.0,0.012780770091995297
2399.0,0.012870232340102872
2398.0,0.012870232340102872
2397.0,0.012825498912458322
2396.0,0.012780770091995297
2395.0,0.012780770091995297
2394.0,0.012780770091995297
2393.0,0.012780770091995297
2392.0,0.012736045877764557
2391.0,0.012691326268817527
2390.0,0.01260190086298274
2389.0,0.012512493866907004
2388.0,0.012378417874516323
2387.0,0.01215504982870197
2386.0,0.011842527443247208
2385.0,0.011530229790124524
2384.0,0.011262724711199823
2383.0,0.011039929609661936
2382.0,0.010950843561779777
2381.0,0.010906307389674463
2380.0,0.011039929609661936
2379.0,0.011262724711199823
2378.0,0.011485634166333858
2377.0,0.011664044143949504
2376.0,0.011753276624621556
2375.0,0.011753276624621556
2374.0,0.011664044143949504
2373.0,0.011574829993696856
2372.0,0.011530229790124524
2371.0,0.011530229790124524
2370.0,0.011530229790124524
2369.0,0.011396456654336085
2368.0,0.01117359295472431
2367.0,0.01086177578421088
2366.0,0.010505687227290839
2365.0,0.01037222925484893
2364.0,0.010817248744452446
2363.0,0.011664044143949504
2362.0,0.012333735073725371
2361.0,0.012423105273012602
2360.0,0.012199714248127602
2359.0,0.011797899741219142
2358.0,0.011485634166333858
2357.0,0.011396456654336085
2356.0,0.011485634166333858
2355.0,0.011530229790124524
2354.0,0.011262724711199823
2353.0,0.010995384301463185
2352.0,0.010906307389674463
2351.0,0.010906307389674463
2350.0,0.01086177578421088
2349.0,0.010950843561779777
2348.0,0.01117359295472431
2347.0,0.011574829993696856
2346.0,0.011797899741219142
2345.0,0.011574829993696856
2344.0,0.010906307389674463
2343.0,0.010149890396819572
2342.0,0.00974996707218323
2341.0,0.009794384815193347
2340.0,0.010105436281226954
2339.0,0.01037222925484893
2338.0,0.010416710688994968
2337.0,0.01023881228122181
2336.0,0.010149890396819572
2335.0,0.010327752376126709
2334.0,0.010728208358306901
2333.0,0.011129033935354915
2332.0,0.011351874764248926
2331.0,0.011129033935354915
2330.0,0.010505687227290839
2329.0,0.009794384815193347
2328.0,0.009306039320248427
2327.0,0.00908424549391551
2326.0,0.00908424549391551
2325.0,0.009261671492462709
2324.0,0.009572341514736404
2323.0,0.009883233932095559
2322.0,0.010105436281226954
2321.0,0.010105436281226954
2320.0,0.01001654169860089
2319.0,0.009927665307847056
2318.0,0.009883233932095559
2317.0,0.00974996707218323
2316.0,0.009616741093766423
2315.0,0.009439170005980158
2314.0,0.009306039320248427
2313.0,0.009128595198514056
2312.0,0.009039900317800775
2311.0,0.008951223547323472
2310.0,0.008906891951112605
2309.0,0.008906891951112605
2308.0,0.008951223547323472
2307.0,0.009128595198514056
2306.0,0.009350411681145587
2305.0,0.009527946474380489
2304.0,0.00966114521239847
2303.0,0.00974996707218323
2302.0,0.009794384815193347
2301.0,0.009883233932095559
2300.0,0.009972101229705377
2299.0,0.010105436281226954
2298.0,0.010194349063173958
2297.0,0.010327752376126709
2296.0,0.01046119667949763
2295.0,0.010639186223752484
2294.0,0.01086177578421088
2293.0,0.011129033935354915
2292.0,0.011307297450183107
2291.0,0.011441043121384498
2290.0,0.011530229790124524
2289.0,0.011530229790124524
2288.0,0.011530229790124524
2287.0,0.011619434777991433
2286.0,0.011708658092512314
2285.0,0.011887159731648111
2284.0,0.012065734767841452
2283.0,0.012199714248127602
2282.0,0.012244383261476699
2281.0,0.012199714248127602
2280.0,0.01215504982870197
2279.0,0.012110390002254778
2278.0,0.012110390002254778
2277.0,0.012110390002254778
2276.0,0.01215504982870197
2275.0,0.012199714248127602
2274.0,0.012199714248127602
2273.0,0.012110390002254778
2272.0,0.012021084124518078
2271.0,0.0119764380713403
2270.0,0.0119764380713403
2269.0,0.012021084124518078
2268.0,0.012021084124518078
2267.0,0.012021084124518078
2266.0,0.0119764380713403
2265.0,0.0119764380713403
2264.0,0.0119764380713403
2263.0,0.012021084124518078
2262.0,0.012021084124518078
2261.0,0.012065734767841452
2260.0,0.012021084124518078
2259.0,0.012021084124518078
2258.0,0.0119764380713403
2257.0,0.011931796607364653
2256.0,0.011887159731648111
2255.0,0.011887159731648111
2254.0,0.011887159731648111
2253.0,0.011931796607364653
2252.0,0.011931796607364653
2251.0,0.011931796607364653
2250.0,0.011887159731648111
2249.0,0.011887159731648111
2248.0,0.011842527443247208
2247.0,0.011797899741219142
2246.0,0.011753276624621556
2245.0,0.011708658092512314
2244.0,0.011664044143949504
2243.0,0.011664044143949504
2242.0,0.011664044143949504
2241.0,0.011708658092512314
2240.0,0.011708658092512314
2239.0,0.011708658092512314
2238.0,0.011664044143949504
2237.0,0.011619434777991433
2236.0,0.011619434777991433
2235.0,0.011574829993696856
2234.0,0.011574829993696856
2233.0,0.011530229790124524
2232.0,0.011485634166333858
2231.0,0.011485634166333858
2230.0,0.011441043121384498
2229.0,0.011351874764248926
2228.0,0.011307297450183107
2227.0,0.011262724711199823
2226.0,0.011262724711199823
2225.0,0.011218156546359825
2224.0,0.01117359295472431
2223.0,0.01117359295472431
2222.0,0.01117359295472431
2221.0,0.01117359295472431
2220.0,0.011129033935354915
2219.0,0.011129033935354915
2218.0,0.011084479487313281
2217.0,0.010995384301463185
2216.0,0.010950843561779777
2215.0,0.010906307389674463
2214.0,0.01086177578421088
2213.0,0.01086177578421088
2212.0,0.010817248744452446
2211.0,0.010817248744452446
2210.0,0.010817248744452446
2209.0,0.010817248744452446
2208.0,0.01077272626946324
2207.0,0.01077272626946324
2206.0,0.010728208358306901
2205.0,0.010683695010048622
2204.0,0.010683695010048622
2203.0,0.010683695010048622
2202.0,0.010639186223752484
2201.0,0.010594681998483901
2200.0,0.010505687227290839
2199.0,0.01046119667949763
2198.0,0.01037222925484893
2197.0,0.010327752376126709
2196.0,0.010283280051895272
2195.0,0.010283280051895272
2194.0,0.010283280051895272
2193.0,0.010327752376126709
2192.0,0.010327752376126709
2191.0,0.01037222925484893
2190.0,0.010327752376126709
2189.0,0.010283280051895272
2188.0,0.01023881228122181
2187.0,0.01023881228122181
2186.0,0.010194349063173958
2185.0,0.010149890396819572
2184.0,0.010060986715464404
2183.0,0.01001654169860089
2182.0,0.01001654169860089
2181.0,0.01001654169860089
2180.0,0.010060986715464404
2179.0,0.010105436281226954
2178.0,0.010105436281226954
2177.0,0.010105436281226954
2176.0,0.010105436281226954
2175.0,0.010105436281226954
2174.0,0.010105436281226954
2173.0,0.010105436281226954
2172.0,0.01001654169860089
2171.0,0.009927665307847056
2170.0,0.009883233932095559
2169.0,0.009883233932095559
2168.0,0.009883233932095559
2167.0,0.009927665307847056
2166.0,0.009927665307847056
2165.0,0.009927665307847056
2164.0,0.009927665307847056
2163.0,0.009972101229705377
2162.0,0.01001654169860089
2161.0,0.01001654169860089
2160.0,0.01001654169860089
2159.0,0.009972101229705377
2158.0,0.009972101229705377
2157.0,0.009927665307847056
2156.0,0.009927665307847056
2155.0,0.009927665307847056
2154.0,0.009927665307847056
2153.0,0.009972101229705377
2152.0,0.009972101229705377
2151.0,0.01001654169860089
2150.0,0.01001654169860089
2149.0,0.01001654169860089
2148.0,0.010060986715464404
2147.0,0.010105436281226954
2146.0,0.010105436281226954
2145.0,0.010105436281226954
2144.0,0.010105436281226954
2143.0,0.010105436281226954
2142.0,0.010105436281226954
2141.0,0.01001654169860089
2140.0,0.009972101229705377
2139.0,0.009927665307847056
2138.0,0.009972101229705377
2137.0,0.009972101229705377
2136.0,0.01001654169860089
2135.0,0.01001654169860089
2134.0,0.010060986715464404
2133.0,0.010060986715464404
2132.0,0.010105436281226954
2131.0,0.010149890396819572
2130.0,0.010194349063173958
2129.0,0.010149890396819572
2128.0,0.010149890396819572
2127.0,0.010149890396819572
2126.0,0.010149890396819572
2125.0,0.010149890396819572
2124.0,0.010105436281226954
2123.0,0.010149890396819572
2122.0,0.010149890396819572
2121.0,0.010149890396819572
2120.0,0.010149890396819572
2119.0,0.010194349063173958
2118.0,0.01023881228122181
2117.0,0.01023881228122181
2116.0,0.01023881228122181
2115.0,0.01023881228122181
2114.0,0.010283280051895272
2113.0,0.010283280051895272
2112.0,0.010283280051895272
2111.0,0.010283280051895272
2110.0,0.010283280051895272
2109.0,0.010194349063173958
2108.0,0.010149890396819572
2107.0,0.010105436281226954
2106.0,0.010105436281226954
2105.0,0.010105436281226954
2104.0,0.010149890396819572
2103.0,0.010194349063173958
2102.0,0.010194349063173958
2101.0,0.010194349063173958
2100.0,0.010194349063173958
2099.0,0.010194349063173958
2098.0,0.010149890396819572
2097.0,0.010060986715464404
2096.0,0.009972101229705377
2095.0,0.009927665307847056
2094.0,0.009927665307847056
2093.0,0.009972101229705377
2092.0,0.009972101229705377
2091.0,0.01001654169860089
2090.0,0.009972101229705377
2089.0,0.009927665307847056
2088.0,0.009927665307847056
2087.0,0.009927665307847056
2086.0,0.009927665307847056
2085.0,0.009927665307847056
2084.0,0.009883233932095559
2083.0,0.009838807101520963
2082.0,0.009794384815193347
2081.0,0.00974996707218323
2080.0,0.00966114521239847
2079.0,0.009572341514736404
2078.0,0.009483555971770974
2077.0,0.009483555971770974
2076.0,0.009439170005980158
2075.0,0.009439170005980158
2074.0,0.00939478857608056
2073.0,0.009350411681145587
2072.0,0.009261671492462709
2071.0,0.009217308196862062
2070.0,0.009128595198514056
2069.0,0.00908424549391551
2068.0,0.00908424549391551
2067.0,0.00908424549391551
2066.0,0.009039900317800775
2065.0,0.008951223547323472
2064.0,0.008862564879688284
2063.0,0.008773924307505121
2062.0,0.008685301823389224
2061.0,0.008596697419959609
2060.0,0.008552401996197112
2059.0,0.00850811108984062
2058.0,0.008463824699968647
2057.0,0.008419542825660153
2056.0,0.008330992620051436
2055.0,0.008286724286910463
2054.0,0.008198201155356077
2053.0,0.008153946355103248
2052.0,0.008065450281052211
2051.0,0.008065450281052211
2050.0,0.007976972236149349
2049.0,0.007932739972333236
2048.0,0.007888512213050314
2047.0,0.007844288957383316
2046.0,0.007800070204414977
2045.0,0.007800070204414977
2044.0,0.007755855953228474
2043.0,0.007755855953228474
2042.0,0.007711646202907652
2041.0,0.007667440952535687
2040.0,0.0075790439479759275
2039.0,0.007534852191956709
2038.0,0.007490664932224611
2037.0,0.0074464821678643656
2036.0,0.0074464821678643656
2035.0,0.0074464821678643656
2034.0,0.0074464821678643656
2033.0,0.007402303897961815
2032.0,0.007358130121602358
2031.0,0.007358130121602358
2030.0,0.007358130121602358
2029.0,0.007313960837872058
2028.0,0.007269796045857202
2027.0,0.007313960837872058
2026.0,0.007313960837872058
2025.0,0.007269796045857202
2024.0,0.007225635744644521
2023.0,0.007225635744644521
2022.0,0.007137328610972382
2021.0,0.007093181776687496
2020.0,0.007049039429553483
2019.0,0.007004901568658406
2018.0,0.007004901568658406
2017.0,0.007004901568658406
2016.0,0.00696076819309055
2015.0,0.00696076819309055
2014.0,0.00696076819309055
2013.0,0.006916639301937977
2012.0,0.006916639301937977
2011.0,0.00696076819309055
2010.0,0.007004901568658406
2009.0,0.007004901568658406
2008.0,0.007049039429553483
2007.0,0.007093181776687496
2006.0,0.007093181776687496
2005.0,0.007093181776687496
2004.0,0.007093181776687496
2003.0,0.007137328610972382
2002.0,0.007137328610972382
2001.0,0.007137328610972382
2000.0,0.007093181776687496
1999.0,0.007093181776687496
1998.0,0.007093181776687496
1997.0,0.007093181776687496
1996.0,0.007137328610972382
1995.0,0.007225635744644521
1994.0,0.007269796045857202
1993.0,0.007313960837872058
1992.0,0.007313960837872058
1991.0,0.007313960837872058
1990.0,0.007358130121602358
1989.0,0.007358130121602358
1988.0,0.007402303897961815
1987.0,0.0074464821678643656
1986.0,0.007490664932224611
1985.0,0.007490664932224611
1984.0,0.007490664932224611
1983.0,0.007534852191956709
1982.0,0.0075790439479759275
1981.0,0.0075790439479759275
1980.0,0.0075790439479759275
1979.0,0.007534852191956709
1978.0,0.007534852191956709
1977.0,0.007490664932224611
1976.0,0.007534852191956709
1975.0,0.00762324020119709
1974.0,0.007711646202907652
1973.0,0.007755855953228474
1972.0,0.007800070204414977
1971.0,0.007888512213050314
1970.0,0.008021209005416363
1969.0,0.008109696063975047
1968.0,0.008153946355103248
1967.0,0.008242460465651913
1966.0,0.008330992620051436
1965.0,0.008419542825660153
1964.0,0.008552401996197112
1963.0,0.008685301823389224
1962.0,0.008862564879688284
1961.0,0.008951223547323472
1960.0,0.008995559669244813
1959.0,0.009039900317800775
1958.0,0.00908424549391551
1957.0,0.00908424549391551
1956.0,0.00908424549391551
1955.0,0.009128595198514056
1954.0,0.009172949432521227
1953.0,0.009128595198514056
1952.0,0.00908424549391551
1951.0,0.009039900317800775
1950.0,0.008995559669244813
1949.0,0.008951223547323472
1948.0,0.008818242332126802
1947.0,0.0087296108049002
1946.0,0.008596697419959609
1945.0,0.008463824699968647
1944.0,0.008375265465994541
1943.0,0.008242460465651913
1942.0,0.008065450281052211
1941.0,0.007888512213050314
1940.0,0.007755855953228474
1939.0,0.007667440952535687
1938.0,0.007534852191956709
1937.0,0.007358130121602358
1936.0,0.007137328610972382
1935.0,0.007004901568658406
1934.0,0.006828394969235152
1933.0,0.006651960076740071
1932.0,0.006475596832934416
1931.0,0.006343371384537999
1930.0,0.00621118618129457
1929.0,0.006079041198713275
1928.0,0.005946936412324799
1927.0,0.005858888873877532
1926.0,0.00577085918230158
1925.0,0.005638848091999105
1924.0,0.005506877116487674
1923.0,0.00537494623139545
1922.0,0.005199100705396198
1921.0,0.005067263269958211
1920.0,0.005067263269958211
1919.0,0.005067263269958211
1918.0,0.004979393875242044
1917.0,0.004803708402820517
1916.0,0.004671990922590297
1915.0,0.004628093971837721
1914.0,0.00458420145758498
1913.0,0.004452550524862486
1912.0,0.0043648054024501
1911.0,0.004320939488377862
1910.0,0.004233220950025984
1909.0,0.004101676353562844
1908.0,0.003970171588923321
1907.0,0.003926345514724705
1906.0,0.0038825238627120395
1905.0,0.0038387066319929275
1904.0,0.0037510854308679953
1903.0,0.0037510854308679953
1902.0,0.0036634819042162814
1901.0,0.0035758960449088217
1900.0,0.0034445503666347133
1899.0,0.0033570086445275926
1898.0,0.0032694845648473247
1897.0,0.0031819781204844855
1896.0,0.003050751504618754
1895.0,0.0029632891174733444
1894.0,0.0028758443407954637
1893.0,0.0028321285541661467
1892.0,0.0027884171674950053
1891.0,0.0027884171674950053
1890.0,0.0027447101798967477
1889.0,0.002569926202528716
1888.0,0.0024388843664115978
1887.0,0.002351545103793873
1886.0,0.002351545103793873
1885.0,0.0022642234021015284
1884.0,0.0022205691343961664
1883.0,0.0022205691343961664
1882.0,0.0022205691343961664
1881.0,0.0021769192542746563
1880.0,0.0020459959305969555
1879.0,0.0019587356365717845
1878.0,0.0018714928717336043
1877.0,0.0017842676290416026
1876.0,0.0017406615763013722
1875.0,0.0016970599014589638
1874.0,0.0016534626036355249
1873.0,0.0015662811355310335
1872.0,0.0015662811355310335
1871.0,0.0015662811355310335
1870.0,0.0015226969634936083
1869.0,0.001348404001626502
1868.0,0.0011306361176557367
1867.0,0.0010000277816797354
1866.0,0.0010435595295137379
1865.0,0.0010435595295137379
1864.0,0.0010870956412141197
1863.0,0.0011306361176557367
1862.0,0.0010870956412141197
1861.0,0.0010435595295137379
1860.0,0.0009565003968372565
1859.0,0.0009129773741116676
1858.0,0.0009129773741116676
1857.0,0.000869458712629001
1856.0,0.000869458712629001
1855.0,0.0009129773741116676
1854.0,0.0009129773741116676
1853.0,0.000869458712629001
1852.0,0.0008259444115150671
1851.0,0.0008259444115150671
1850.0,0.000869458712629001
1849.0,0.000869458712629001
1848.0,0.0009129773741116676
1847.0,0.0010000277816797354
1846.0,0.0011741809597138886
1845.0,0.0012177301682640973
1844.0,0.0011741809597138886
1843.0,0.0011306361176557367
1842.0,0.0011306361176557367
1841.0,0.0012177301682640973
1840.0,0.001348404001626502
1839.0,0.0014355417390583547
1838.0,0.0014791171649619628
1837.0,0.0014791171649619628
1836.0,0.0015226969634936083
1835.0,0.001609869681952425
1834.0,0.0016970599014589638
1833.0,0.0017842676290416026
1832.0,0.0018714928717336043
1831.0,0.0019587356365717845
1830.0,0.0018714928717336043
1829.0,0.0016534626036355249
1828.0,0.0015662811355310335
1827.0,0.0016970599014589638
1826.0,0.0018278780605593958
1825.0,0.0017842676290416026
1824.0,0.0016970599014589638
1823.0,0.0017406615763013722
1822.0,0.0018714928717336043
1821.0,0.0018714928717336043
1820.0,0.0018278780605593958
1819.0,0.0018278780605593958
1818.0,0.0017406615763013722
1817.0,0.001609869681952425
1816.0,0.0014355417390583547
1815.0,0.0013919706849057079
1814.0,0.001304841688344327
1813.0,0.0012177301682640973
1812.0,0.0010435595295137379
1811.0,0.0009129773741116676
1810.0,0.0008259444115150671
1809.0,0.0006954276616513155
1808.0,0.0006084382809090627
1807.0,0.0005649501236701937
1806.0,0.000521466320689834
1805.0,0.0003910410285830057
1804.0,0.00021720154586435392
1803.0,0.0001303078917322953
1802.0,4.343161980746579e-05
1801.0,-0.00021709297223004853
1800.0,-0.0004774613744551459
1799.0,-0.0005642161653756084
1798.0,-0.0006509536295951079
1797.0,-0.0008243766056055257
1796.0,-0.0009543984064577238
1795.0,-0.0009543984064577238
1794.0,-0.0009543984064577238
1793.0,-0.0011277002770349043
1792.0,-0.0014308122463981832
1791.0,-0.0016471913460383014
1790.0,-0.0016904542321527494
1789.0,-0.001733712809000476
1788.0,-0.001776967077439462
1787.0,-0.0018202170383281313
1786.0,-0.0019067040408846658
1785.0,-0.0021660617565077978
1784.0,-0.0024252646779014952
1783.0,-0.0025116312849080558
1782.0,-0.0025548081484823015
1781.0,-0.0027706281011936618
1780.0,-0.003029470553618019
1779.0,-0.0030725959676747294
1778.0,-0.003029470553618019
1777.0,-0.003115717099805959
1776.0,-0.003158833950862139
1775.0,-0.003029470553618019
1774.0,-0.002900068611387585
1773.0,-0.0030725959676747294
1772.0,-0.0034605321095062536
1771.0,-0.003546693102131737
1770.0,-0.0034174452021935586
1769.0,-0.0032881588260753603
1768.0,-0.003201946521692367
1767.0,-0.003029470553618019
1766.0,-0.0028137792246734072
1765.0,-0.0026411490000399773
1764.0,-0.002338880892056583
1763.0,-0.0018634626925240205
1762.0,-0.0014308122463981832
1761.0,-0.00121432528617893
1760.0,-0.0008243766056055257
1759.0,-4.3427276862573194e-05
1758.0,0.0010435595295137379
1757.0,0.0020459959305969555
1756.0,0.0030944893043338695
1755.0,0.0043648054024501
1754.0,0.005858888873877532
1753.0,0.007402303897961815
1752.0,0.009306039320248427
1751.0,0.01215504982870197
1750.0,0.015562705203923999
1749.0,0.019360432556262852
1748.0,0.023741750742954926
1747.0,0.028816959143838528
1746.0,0.03437503289075727
1745.0,0.04062466342415694
1744.0,0.04803141550708934
1743.0,0.05625823416868636
1742.0,0.06479513257341862
1741.0,0.07448164182257
1740.0,0.086239113587677
1739.0,0.09826930827078129
1738.0,0.10746019534136453
1737.0,0.11424311893073247
1736.0,0.12222565000860186
1735.0,0.13721290176465573
1734.0,0.15870311250971825
1733.0,0.17574396237031764
1732.0,0.1875545971272441
1731.0,0.20003947259401644
1730.0,0.21495504166845603
1729.0,0.23077041826340627
1728.0,0.2458811057745871
1727.0,0.2607441967314894
1726.0,0.27646223846794316
1725.0,0.2939653392856494
1724.0,0.31354248953088826
1723.0,0.3332948638801012
1722.0,0.3503731131594705
1721.0,0.3632113109656252
1720.0,0.37468754903832613
1719.0,0.39158094868271465
1718.0,0.417709317281006
1717.0,0.44117147518298827
1716.0,0.4502612687351011
1715.0,0.4494047925106721
1714.0,0.4421320384319778
1713.0,0.4275931324419442
1712.0,0.4071573168688998
1711.0,0.3828947694976219
1710.0,0.3572387967346795
1709.0,0.33208031468263854
1708.0,0.3072411818452758
1707.0,0.28158135817034435
1706.0,0.25539412458576116
1705.0,0.23328979273774086
1704.0,0.21774242633669827
1703.0,0.20600019901552957
1702.0,0.19422736806433094
1701.0,0.17986424812957003
1700.0,0.165706487557304
1699.0,0.15589576930248672
1698.0,0.1493537648169334
1697.0,0.14333151638846497
1696.0,0.1367961409713705
1695.0,0.13076828026902376
1694.0,0.12644690648638135
1693.0,0.12337808396572703
1692.0,0.12044539906102569
1691.0,0.11713408027837091
1690.0,0.1138478180292033
1689.0,0.11131515334030118
1688.0,0.10941133229451272
1687.0,0.10740457717110186
1686.0,0.10513034325474746
1685.0,0.1033635694704158
1684.0,0.1022080180607754
1683.0,0.1005625457138224
1682.0,0.09886874864462802
1681.0,0.09745322068600859
1680.0,0.09598811640261173
1679.0,0.09431203228814788
1678.0,0.09264239186882706
1677.0,0.09113982698272349
1676.0,0.08974922769985194
1675.0,0.08825662214406838
1674.0,0.0867160982395816
1673.0,0.08549817717268593
1672.0,0.08444188458847957
1671.0,0.08317771540408803
1670.0,0.08175990977858505
1669.0,0.08060807322614072
1668.0,0.07956359344924135
1667.0,0.07846958649875768
1666.0,0.07737832847680104
1665.0,0.0763933569825408
1664.0,0.07535895258283709
1663.0,0.07417242537525759
1662.0,0.07314329105030759
1661.0,0.07232173586200852
1660.0,0.07160414774328627
1659.0,0.07078549626260622
1658.0,0.06996838504902692
1657.0,0.0692037370166998
1656.0,0.0685421293109949
1655.0,0.06777998612288094
1654.0,0.06767846801070698
1653.0,0.06869471857832687
1652.0,0.0688982543673613
1651.0,0.06859298644342648
1650.0,0.06833876031551878
1649.0,0.06813548650796819
1648.0,0.06833876031551878
1647.0,0.0690000580438479
1646.0,0.06961138175567827
1645.0,0.0699173666076287
1644.0,0.0699173666076287
1643.0,0.06956040523329987
1642.0,0.0690000580438479
1641.0,0.06828793294324442
1640.0,0.06737405597821788
1639.0,0.06605739725873905
1638.0,0.06444235490698613
1637.0,0.062331685600995
1636.0,0.05973260855398799
1635.0,0.057198533682059516
1634.0,0.05531996611868961
1633.0,0.054088483180726676
1632.0,0.05290953578037816
1631.0,0.051684859310652254
1630.0,0.050414848673348
1629.0,0.04934311749548925
1628.0,0.04837110616336182
1627.0,0.04740126547022694
1626.0,0.04657860031896477
1625.0,0.045902279520810385
1624.0,0.04527520902093718
1623.0,0.04464904263234004
1622.0,0.04411991377462465
1621.0,0.0437835307566099
1620.0,0.04363944632667782
1619.0,0.043495409683302455
1618.0,0.04363944632667782
1617.0,0.044312249686494276
1616.0,0.04484161307420642
1615.0,0.04488976902944808
1614.0,0.04474531717982
1613.0,0.04450467081587295
1612.0,0.04402377775167454
1611.0,0.043303435105349175
1610.0,0.04248848854552012
1609.0,0.041627267521392675
1608.0,0.04076775094900409
1607.0,0.03981472339538916
1606.0,0.03886378261277468
1605.0,0.03796231343498735
1604.0,0.0371100126082089
1603.0,0.03621217265444465
1602.0,0.03541041251009669
1601.0,0.03470420418834386
1600.0,0.034046110897937076
1599.0,0.03334211579824231
1598.0,0.032686081712916426
1597.0,0.032124554451966825
1596.0,0.031657169041054534
1595.0,0.031236951802751545
1594.0,0.030863766403287585
1593.0,0.03058408764601861
1592.0,0.030397735151460825
1591.0,0.030211462585061133
1590.0,0.03002526987828502
1589.0,0.029978734171634214
1588.0,0.03002526987828502
1587.0,0.030118356253500123
1586.0,0.030444315779156517
1585.0,0.031096969696171817
1584.0,0.03207779326948268
1583.0,0.03334211579824231
1582.0,0.03475124903287918
1581.0,0.036117771071222604
1580.0,0.037299268295658994
1579.0,0.03800971255993524
1578.0,0.038199360808321536
1577.0,0.03772539537668518
1576.0,0.03649550058570927
1575.0,0.0349394793888016
1574.0,0.03367050483612166
1573.0,0.032686081712916426
1572.0,0.03170388495374454
1571.0,0.030490901403433135
1570.0,0.029141943003497595
1569.0,0.027936083991977778
1568.0,0.027056991894431892
1567.0,0.026456531467510258
1566.0,0.025902996205869
1565.0,0.025304128090317013
1564.0,0.02475205875931885
1563.0,0.024338466818941473
1562.0,0.02406295751688936
1561.0,0.023787622882622816
1560.0,0.02351246269481
1559.0,0.023237476732539397
1558.0,0.02255077261765881
1557.0,0.022230681908425698
1556.0,0.022230681908425698
1555.0,0.02200219004126036
1554.0,0.021636852916117055
1553.0,0.021271822861508305
1552.0,0.0209982515252789
1551.0,0.02067930261797568
1550.0,0.02026956933771462
1549.0,0.019996628416253603
1548.0,0.019769308608968306
1547.0,0.019632973815224997
1546.0,0.01949668180660491
1545.0,0.019269623464054586
1544.0,0.019042683770379876
1543.0,0.018679826740892747
1542.0,0.018362575344230914
1541.0,0.018362575344230914
1540.0,0.018362575344230914
1539.0,0.017909760704207134
1538.0,0.01759307113620534
1537.0,0.01768353030793479
1536.0,0.01781925440359733
1535.0,0.017955020928509757
1534.0,0.018136109008649592
1533.0,0.018226681372252695
1532.0,0.018226681372252695
1531.0,0.018226681372252695
1530.0,0.018226681372252695
1529.0,0.018271974638383703
1528.0,0.018271974638383703
1527.0,0.018136109008649592
1526.0,0.017909760704207134
1525.0,0.017774008325325275
1524.0,0.017638298366853045
1523.0,0.017367005605150476
1522.0,0.016960383953898095
1521.0,0.016509028184833463
1520.0,0.016148281008528276
1519.0,0.015922966097169144
1518.0,0.01578783323856614
1517.0,0.015697768020096703
1516.0,0.015607721475734415
1515.0,0.015652742414136167
1514.0,0.016013078034810446
1513.0,0.016689514205884493
1512.0,0.017728766960431575
1511.0,0.018861217359339655
1510.0,0.02045162529590483
1509.0,0.02300845469384938
1508.0,0.029095501846216454
1507.0,0.03886378261277468
1506.0,0.04460091336073302
1505.0,0.04484161307420642
1504.0,0.04263219156847242
1503.0,0.03910132267333921
1502.0,0.03498654972775217
1501.0,0.0307239045110681
1500.0,0.02682594731702781
1499.0,0.023466619608062178
1498.0,0.020724852408976924
1497.0,0.018679826740892747
1496.0,0.01727661233145472
1495.0,0.016193358021584725
1494.0,0.015517693597737248
1493.0,0.015157768594724175
1492.0,0.014932966849499074
1491.0,0.014708281407112
1490.0,0.014753209197138295
1489.0,0.015337693809893471
1488.0,0.01628352608625061
1487.0,0.017186237868137555
1486.0,0.018136109008649592
1485.0,0.0192242260373785
1484.0,0.020406104151069693
1483.0,0.021773818325474092
1482.0,0.023374947949272418
1481.0,0.02512002699306959
1480.0,0.026687379547098322
1479.0,0.027936083991977778
1478.0,0.02904906565457588
1477.0,0.030211462585061133
1476.0,0.031236951802751545
1475.0,0.032031037121307726
1474.0,0.03282657704446046
1473.0,0.03367050483612166
1472.0,0.034046110897937076
1471.0,0.03385826726096752
1470.0,0.03352973627071565
1469.0,0.033295223342125535
1468.0,0.03310770413286357
1467.0,0.03310770413286357
1466.0,0.03338901331806565
1465.0,0.03414006319292828
1464.0,0.03508070571335731
1463.0,0.03578752703018084
1462.0,0.036401037402758574
1461.0,0.03692083935817303
1460.0,0.037488606492403154
1459.0,0.038151940981675736
1458.0,0.039338992729018196
1457.0,0.04081545726880842
1456.0,0.04138834223512067
1455.0,0.04129280891271536
1454.0,0.04105406750606355
1453.0,0.040672354027829094
1452.0,0.04010041213405646
1451.0,0.039338992729018196
1450.0,0.038531444649213764
1449.0,0.03772539537668518
1448.0,0.03692083935817303
1447.0,0.03616496929785207
1446.0,0.03555179208333925
1445.0,0.03508070571335731
1444.0,0.03465716443937783
1443.0,0.03414006319292828
1442.0,0.03367050483612166
1441.0,0.033154576345083564
1440.0,0.032686081712916426
1439.0,0.03207779326948268
1438.0,0.031236951802751545
1437.0,0.029978734171634214
1436.0,0.028353117935693284
1435.0,0.02677975314776626
1434.0,0.02539620791296726
1433.0,0.02406295751688936
1432.0,0.022642270454698687
1431.0,0.021089422824428272
1430.0,0.01954210772389997
1429.0,0.018181392829336396
1428.0,0.017186237868137555
1427.0,0.01646391839700767
1426.0,0.01596801972881945
1425.0,0.015607721475734415
1424.0,0.015517693597737248
1423.0,0.015742798294583915
1422.0,0.016373712875465518
1421.0,0.01768353030793479
1420.0,0.02026956933771462
1419.0,0.02461415101053266
1418.0,0.03002526987828502
1417.0,0.03621217265444465
1416.0,0.0435434165901003
1415.0,0.05237025261564554
1414.0,0.06283329628496737
1413.0,0.07504911108438939
1412.0,0.08820340956274775
1411.0,0.10017949757290379
1410.0,0.10896458468468917
1409.0,0.11379137583250243
1408.0,0.11429961987167014
1407.0,0.11036219959333216
1406.0,0.10259286033841963
1405.0,0.09274991711867164
1404.0,0.08317771540408803
1403.0,0.07515236702446293
1402.0,0.06864384953207203
1401.0,0.06288348923294618
1400.0,0.05724807957018618
1399.0,0.05192951848105887
1398.0,0.047643522676209304
1397.0,0.04450467081587295
1396.0,0.04181850243505214
1395.0,0.03929144831144349
1394.0,0.0371573187987575
1393.0,0.03555179208333925
1392.0,0.03442204208947208
1391.0,0.033482823553208085
1390.0,0.03263926003405038
1389.0,0.031984286006358165
1388.0,0.031657169041054534
1387.0,0.03151705144606498
1386.0,0.03151705144606498
1385.0,0.031657169041054534
1384.0,0.03193753992355086
1383.0,0.032311649546687526
1382.0,0.03273290844021437
1381.0,0.033295223342125535
1380.0,0.033905220553829274
1379.0,0.03456310022373987
1378.0,0.03517488211661135
1377.0,0.03578752703018084
1376.0,0.03649550058570927
1375.0,0.03720463014276687
1374.0,0.03786753070176463
1373.0,0.03838909190871931
1372.0,0.038673844065289176
1371.0,0.038673844065289176
1370.0,0.038199360808321536
1369.0,0.037251946641359446
1368.0,0.03588185684851508
1367.0,0.03414006319292828
1366.0,0.032218091924200776
1365.0,0.030164906924202484
1364.0,0.02798240132598462
1363.0,0.025764722556973707
1362.0,0.023833499868024743
1361.0,0.02255077261765881
1360.0,0.021819483062586187
1359.0,0.021317434843055594
1358.0,0.021089422824428272
1357.0,0.0211806132671577
1356.0,0.02168250325324883
1355.0,0.022505030926963654
1354.0,0.02365002099672653
1353.0,0.02521206778644225
1352.0,0.027334407733889066
1351.0,0.030164906924202484
1350.0,0.03376437590141812
1349.0,0.03838909190871931
1348.0,0.044167989767578186
1347.0,0.05114709380028648
1346.0,0.05953332233647113
1345.0,0.06935655895783555
1344.0,0.08013774644446192
1343.0,0.0910326995816122
1342.0,0.10154908080162528
1341.0,0.1114835389250548
1340.0,0.11952940719622163
1339.0,0.12360893818081231
1338.0,0.12239832027072817
1337.0,0.11667932161702477
1336.0,0.10762709260156367
1335.0,0.09636748391576244
1334.0,0.0839147001562972
1333.0,0.07145053299833615
1332.0,0.05993198626064755
1331.0,0.050073556332087765
1330.0,0.042201225070002124
1329.0,0.03630659476198117
1328.0,0.032124554451966825
1327.0,0.02932775731028059
1326.0,0.027658283674251827
1325.0,0.02682594731702781
1324.0,0.026595025589939425
1323.0,0.02677975314776626
1322.0,0.027195677663422346
1321.0,0.027936083991977778
1320.0,0.028863370523193765
1319.0,0.03002526987828502
1318.0,0.03133029827960798
1317.0,0.032686081712916426
1316.0,0.03409308450480819
1315.0,0.03559892883726867
1314.0,0.037346595106788616
1313.0,0.03938654235209116
1312.0,0.04153168163305643
1311.0,0.04383156952463674
1310.0,0.046192002334692894
1309.0,0.04866248120408234
1308.0,0.051244819831730126
1307.0,0.05369514500652506
1306.0,0.05610995175152733
1305.0,0.05848856736559682
1304.0,0.06098022355133348
1303.0,0.06373765809652254
1302.0,0.06686717627326577
1301.0,0.07058107428570715
1300.0,0.0748426728241014
1299.0,0.07956359344924135
1298.0,0.08460016478773014
1297.0,0.08996287644694911
1296.0,0.0955549589230904
1295.0,0.10116516193172598
1294.0,0.10668218838388821
1293.0,0.11215773489264302
1292.0,0.1175323851046286
1291.0,0.12274386688641381
1290.0,0.12778543660241448
1289.0,0.13276828548110586
1288.0,0.13763006287711765
1287.0,0.14230574221345038
1286.0,0.14666689499766483
1285.0,0.15088783381542248
1284.0,0.1550260618531123
1283.0,0.1590787998012282
1282.0,0.16298005145909156
1281.0,0.16704424939540163
1280.0,0.1714045436282976
1279.0,0.17587416608345108
1278.0,0.180587688790675
1277.0,0.18588564387087447
1276.0,0.19185657423850877
1275.0,0.198596289982645
1274.0,0.20627944318647673
1273.0,0.21531140049857878
1272.0,0.2258481410452895
1271.0,0.23754651763645307
1270.0,0.2501091587285782
1269.0,0.26360349772335767
1268.0,0.27785987454258443
1267.0,0.29242982390206373
1266.0,0.30697693207630605
1265.0,0.32139058344107396
1264.0,0.3353580244438745
1263.0,0.34794715175189506
1262.0,0.35902194264166787
1261.0,0.36865771351606735
1260.0,0.3769575657536184
1259.0,0.383419469914114
1258.0,0.38848911287334364
1257.0,0.3932962586663258
1256.0,0.3987006898056624
1255.0,0.40483458520977056
1254.0,0.411840383616908
1253.0,0.4206737962447449
1252.0,0.43132902199010337
1251.0,0.4430947309445521
1250.0,0.45555986268230764
1249.0,0.468904453129972
1248.0,0.48254017345976785
1247.0,0.4953932293580463
1246.0,0.5065419490048115
1245.0,0.5158425756346192
1244.0,0.5228787452803376
1243.0,0.5259294967849564
1242.0,0.524619406856639
1241.0,0.519561852822183
1240.0,0.5108856306210807
1239.0,0.4983930775811707
1238.0,0.48267211770562657
1237.0,0.4653394241715556
1236.0,0.44696698379756006
1235.0,0.4278256863869405
1234.0,0.40860144871875126
1233.0,0.3901922306712977
1232.0,0.3729415359990105
1231.0,0.3567447749752284
1230.0,0.34132097141755136
1229.0,0.3269790928711038
1228.0,0.3137213219327988
1227.0,0.30120374820956886
1226.0,0.2891213823148271
1225.0,0.27777753603026967
1224.0,0.2671239586372933
1223.0,0.2568039185512987
1222.0,0.24664678735850387
1221.0,0.23694655970038525
1220.0,0.22753159694671954
1219.0,0.21831641549264935
1218.0,0.2092927126723203
1217.0,0.20065945054641832
1216.0,0.19253262431572216
1215.0,0.1847544080834369
1214.0,0.17730898922394545
1213.0,0.17037464664195068
1212.0,0.16405589990615188
1211.0,0.15814019022493886
1210.0,0.15267416921457633
1209.0,0.1475810070629986
1208.0,0.14284849731250704
1207.0,0.13828641242856565
1206.0,0.13383085236622927
1205.0,0.1295960947209729
1204.0,0.12557616941349803
1203.0,0.12170805075020397
1202.0,0.11798803837334138
1201.0,0.11441264381034388
1200.0,0.11109074073646874
1199.0,0.10784972209863586
1198.0,0.10468797552421272
1197.0,0.10165883427249067
1196.0,0.09870518283443275
1195.0,0.09582563171583658
1194.0,0.09307265269104414
1193.0,0.09049745859458458
1192.0,0.0881502035005799
1191.0,0.08592141461088798
1190.0,0.0838620168928248
1189.0,0.08202211740709164
1188.0,0.08045124103115198
1187.0,0.079094395835976
1186.0,0.07800156869172903
1185.0,0.07732643214144574
1184.0,0.07701518429111709
1183.0,0.07706704344478843
1182.0,0.07748213975538865
1181.0,0.0781575185941421
1180.0,0.079094395835976
1179.0,0.08013774644446192
1178.0,0.08118360963962057
1177.0,0.08217951800630297
1176.0,0.08291480935943274
1175.0,0.08317771540408803
1174.0,0.08286224724355584
1173.0,0.08191721535781271
1172.0,0.08034671768963575
1171.0,0.07826151631540124
1170.0,0.07577241873988227
1169.0,0.07314329105030759
1168.0,0.07068327324650436
1167.0,0.0684912781333824
1166.0,0.06671522765130522
1165.0,0.0654005617819271
1164.0,0.06449273417528723
1163.0,0.06398920428479049
1162.0,0.0636873663378068
1161.0,0.06358680028852026
1160.0,0.06358680028852026
1159.0,0.0636873663378068
1158.0,0.06398920428479049
1157.0,0.06449273417528723
1156.0,0.0653500770992892
1155.0,0.06636088747507496
1154.0,0.0676277178520861
1153.0,0.06915280831750303
1152.0,0.07088774334533943
1151.0,0.07293775650699996
1150.0,0.07530729697981409
1149.0,0.07800156869172903
1148.0,0.08102656950704579
1147.0,0.08433639649422697
1146.0,0.08788427092114603
1145.0,0.0917295005042762
1144.0,0.09593394808549704
1143.0,0.10039834085387778
1142.0,0.1052410056281079
1141.0,0.11041819785037621
1140.0,0.11599807523121286
1139.0,0.12193801870998744
1138.0,0.1282519810081284
1137.0,0.13519237097385295
1136.0,0.1427881576831076
1135.0,0.15107228677292173
1134.0,0.1600194423216572
1133.0,0.16973219906635828
1132.0,0.180127178049454
1131.0,0.1910467008440888
1130.0,0.20238626984692432
1129.0,0.21417208000413446
1128.0,0.22643295107394135
1127.0,0.2389747482886273
1126.0,0.25150187338626306
1125.0,0.2641616656829262
1124.0,0.2767906895948886
1123.0,0.2888679276931583
1122.0,0.2999889376778877
1121.0,0.3101585908624953
1120.0,0.31903028153410284
1119.0,0.3257820544233001
1118.0,0.3301254975101975
1117.0,0.33208031468263854
1116.0,0.33170728955177897
1115.0,0.32938311359967454
1114.0,0.32596599956874517
1113.0,0.3233063903751334
1112.0,0.32275815405334596
1111.0,0.32495526404410735
1110.0,0.3304042189756866
1109.0,0.33941908757270056
1108.0,0.35163998901906846
1107.0,0.36612773734166737
1106.0,0.38163806889012175
1105.0,0.39804859586647834
1104.0,0.4145392704914994
1103.0,0.430041181903406
1102.0,0.44369749923271273
1101.0,0.45593195564972433
1100.0,0.4663550212012373
1099.0,0.4743074754949892
1098.0,0.47938547812176413
1097.0,0.4821445810699714
1096.0,0.4824082692880922
1095.0,0.4796474959166821
1094.0,0.4741780478433373
1093.0,0.4668637117213612
1092.0,0.45842075605341903
1091.0,0.4485500020271247
1090.0,0.4375881670502726
1089.0,0.4264322269607814
1088.0,0.4156687756324693
1087.0,0.4049449102406961
1086.0,0.3941564609419108
1085.0,0.3836295277087305
1084.0,0.37314658533327427
1083.0,0.36221017063777095
1082.0,0.3503731131594705
1081.0,0.3380927072339792
1080.0,0.325414397697086
1079.0,0.31211447515129453
1078.0,0.2984320149440727
1077.0,0.2850000325879576
1076.0,0.2719710455794817
1075.0,0.25940048718884356
1074.0,0.24756739073852607
1073.0,0.2366468912517845
1072.0,0.22665245801917688
1071.0,0.21745571598998992
1070.0,0.2089412564081745
1069.0,0.20128031481499375
1068.0,0.19436323369406505
1067.0,0.1879561020697733
1066.0,0.18197215814074386
1065.0,0.1764605663431411
1064.0,0.1714689933548985
1063.0,0.1667891197173912
1062.0,0.16234844215360744
1061.0,0.1583902878315646
1060.0,0.1548399223480541
1059.0,0.15168769637271562
1058.0,0.14898639317633
1057.0,0.14684956355215717
1056.0,0.14514763758216587
1055.0,0.14381507327283027
1054.0,0.1427881576831076
1053.0,0.14212497447643746
1052.0,0.141884067809934
1051.0,0.141884067809934
1050.0,0.1419442819496357
1049.0,0.14218522202899342
1048.0,0.14242629585250421
1047.0,0.14260718907909875
1046.0,0.14260718907909875
1045.0,0.14242629585250421
1044.0,0.14200450443907608
1043.0,0.14116214857141451
1042.0,0.1399616101928065
1041.0,0.13846558914096208
1040.0,0.1366771398795441
1039.0,0.134659094375416
1038.0,0.13241467345296387
1037.0,0.13006458935314003
1036.0,0.1276688787697493
1035.0,0.12517042212027807
1034.0,0.12268625668776156
1033.0,0.12033079436794658
1032.0,0.11827306462358211
1031.0,0.1163953390777075
1030.0,0.11514801725400226
1029.0,0.11520463605101905
1028.0,0.11736163830396129
1027.0,0.12245589228405596
1026.0,0.1312967977214634
1025.0,0.14423862766005224
1024.0,0.16102504504453208
1023.0,0.18111458540599013
1022.0,0.20384212309308558
1021.0,0.22819212100089437
1020.0,0.2523551806717519
1019.0,0.27294698864614264
1018.0,0.2860057323393561
1017.0,0.2883614617676509
1016.0,0.2795099315499485
1015.0,0.2616952069258951
1014.0,0.2393513804186438
1013.0,0.21695442788530706
1012.0,0.19715788726092565
1011.0,0.18071935302751885
1010.0,0.1675549588258891
1009.0,0.15707887924001773
1008.0,0.14868048735125483
1007.0,0.1419442819496357
1006.0,0.1363797797296844
1005.0,0.1318847946727828
1004.0,0.1282519810081284
1003.0,0.1251124891538875
1002.0,0.12234075588839133
1001.0,0.1199871616332282
1000.0,0.11787408022996826
999.0,0.11594135290606156
998.0,0.11407366019856902
997.0,0.11238269966426384
996.0,0.11086644403327606
995.0,0.10952309103982927
994.0,0.1082953237608173
993.0,0.10740457717110186
992.0,0.10679324694015202
991.0,0.1063491830140364
990.0,0.10596099919539115
989.0,0.10573933555301185
988.0,0.10568393731556158
987.0,0.10579474085791629
986.0,0.10612732120491852
985.0,0.10668218838388821
984.0,0.10757145305477
983.0,0.10862982530385179
982.0,0.10991447328367476
981.0,0.11142740314240007
980.0,0.11322735694556196
979.0,0.11526126223036814
978.0,0.11741854644554883
977.0,0.11975822410451964
976.0,0.12205304837081177
975.0,0.12401322857151209
974.0,0.12546020292898974
973.0,0.12650501774383094
972.0,0.1270865583796048
971.0,0.12697018793895576
970.0,0.12621453918179926
969.0,0.1248808345374317
968.0,0.12320502379929943
967.0,0.12113366304327466
966.0,0.11878658374498086
965.0,0.11628179803604044
964.0,0.11379137583250243
963.0,0.11131515334030118
962.0,0.10885296955122903
961.0,0.10657115822045493
960.0,0.10441172433373724
959.0,0.10231793820358015
958.0,0.10028890542885538
957.0,0.09837823590664274
956.0,0.09658441423091357
955.0,0.09496007192378841
954.0,0.09344948089854999
953.0,0.09210516458371698
952.0,0.09087205801073917
951.0,0.08969583193143116
950.0,0.0885227828938977
949.0,0.08745911720936239
948.0,0.08655704514060414
947.0,0.08570974433405087
946.0,0.08496970974083906
945.0,0.08428366205400617
944.0,0.08365134772453975
943.0,0.08301995267961781
942.0,0.08228448344050654
941.0,0.08160266115629988
940.0,0.08102656950704579
939.0,0.08039897621588898
938.0,0.07982447798997727
937.0,0.07930286553008004
936.0,0.07878187880504961
935.0,0.07826151631540124
934.0,0.07768983678560404
933.0,0.07717078033335123
932.0,0.07670415934449615
931.0,0.07618627890881036
930.0,0.0756173227980268
929.0,0.07510073598571654
928.0,0.07468790850035045
927.0,0.07422394616325367
926.0,0.07365755337434488
925.0,0.07314329105030759
924.0,0.07262963696097646
923.0,0.07211658966929302
922.0,0.07155293679081787
921.0,0.07109230975604719
920.0,0.07068327324650436
919.0,0.07037674848475972
918.0,0.07012147634321675
917.0,0.06986635415888243
916.0,0.06966236426227002
915.0,0.06950943469373039
914.0,0.06940751155740177
913.0,0.06940751155740177
912.0,0.06966236426227002
911.0,0.07007043991541217
910.0,0.07068327324650436
909.0,0.07150173187630915
908.0,0.07237303755504598
907.0,0.07334892291111106
906.0,0.07437854520917098
905.0,0.07541061433058172
904.0,0.07654873036034848
903.0,0.07763790321520991
902.0,0.07862570458152551
901.0,0.0794592834975203
900.0,0.08013774644446192
899.0,0.08055578953476306
898.0,0.08071265949561734
897.0,0.08060807322614072
896.0,0.08039897621588898
895.0,0.08003329851661278
894.0,0.07961575782164254
893.0,0.07919861817434581
892.0,0.07883394936226118
891.0,0.07852161962430992
890.0,0.07831352451639795
889.0,0.07841755960658348
888.0,0.07904229404455076
887.0,0.08024221949810584
886.0,0.08207457793525874
885.0,0.08486409337798806
884.0,0.08868255767596933
883.0,0.09361107884716913
882.0,0.09968750301627338
881.0,0.10690433390377163
880.0,0.11509140583739286
879.0,0.12407101507707297
878.0,0.13371266091580503
877.0,0.14417809459397013
876.0,0.15570925674565683
875.0,0.1675549588258891
874.0,0.1778973313530796
873.0,0.1842894602110372
872.0,0.18442225167573278
871.0,0.17796275192741495
870.0,0.16710805524020933
869.0,0.15508812608785938
868.0,0.1441175699639643
867.0,0.1350738084609946
866.0,0.12796033202671375
865.0,0.12268625668776156
864.0,0.11890078161098283
863.0,0.11611154211151953
862.0,0.11407366019856902
861.0,0.11266406960083297
860.0,0.11176432672943282
859.0,0.11120293254331926
858.0,0.11092250734993603
857.0,0.11086644403327606
856.0,0.11109074073646874
855.0,0.1114835389250548
854.0,0.11215773489264302
853.0,0.11322735694556196
852.0,0.11475189221861393
851.0,0.1165657063169907
850.0,0.1183871275216517
849.0,0.1201016756699902
848.0,0.1213058996038916
847.0,0.12165057778222454
846.0,0.12113366304327466
845.0,0.1201016756699902
844.0,0.11872949607064243
843.0,0.1170772093974013
842.0,0.11531789579397489
841.0,0.11345287660889425
840.0,0.11165198982195101
839.0,0.1098585399354226
838.0,0.10801676914803293
837.0,0.10623823794205656
836.0,0.10441172433373724
835.0,0.10242788617426934
834.0,0.10039834085387778
833.0,0.09859617317474823
832.0,0.09696430321150284
831.0,0.09544673702322726
830.0,0.09393445524476318
829.0,0.09269615116603047
828.0,0.0917295005042762
827.0,0.0908185240221473
826.0,0.08985603893548699
825.0,0.08900228368935714
824.0,0.08825662214406838
823.0,0.08756536662442538
822.0,0.08682216600953208
821.0,0.08608023504853413
820.0,0.08549817717268593
819.0,0.08496970974083906
818.0,0.08449463824562353
817.0,0.08417821237960132
816.0,0.08396738981143059
815.0,0.08365134772453975
814.0,0.08328292240118751
813.0,0.08296737783760655
812.0,0.08270459905431071
811.0,0.08244197917456386
810.0,0.08202211740709164
809.0,0.08160266115629988
808.0,0.08118360963962057
807.0,0.08081727095749947
806.0,0.08039897621588898
805.0,0.07992887570247587
804.0,0.0794071379151915
803.0,0.07872981449018734
802.0,0.07800156869172903
801.0,0.07737832847680104
800.0,0.07717078033335123
799.0,0.07779372256098371
798.0,0.07951143534170213
797.0,0.08259953204474924
796.0,0.08645104209348209
795.0,0.09012318200960712
794.0,0.09269615116603047
793.0,0.09366495819490939
792.0,0.09301884677114591
791.0,0.09097914578884403
790.0,0.08830984124613894
789.0,0.0856568428805593
788.0,0.08333553545860273
787.0,0.0812359689720008
786.0,0.07930286553008004
785.0,0.07748213975538865
784.0,0.07587584681417514
783.0,0.07432700607875953
782.0,0.07293775650699996
781.0,0.0718090519612431
780.0,0.07088774334533943
779.0,0.07007043991541217
778.0,0.0692037370166998
777.0,0.068389593637038
776.0,0.0675769736232612
775.0,0.0666645899223488
774.0,0.06570359318059427
773.0,0.06464390705442691
772.0,0.06358680028852026
771.0,0.06243196139961715
770.0,0.0611301784870133
769.0,0.05968277842578207
768.0,0.058190526991161784
767.0,0.05655495097496965
766.0,0.0549747987575373
765.0,0.05369514500652506
764.0,0.05271335532220167
763.0,0.05178270644002936
762.0,0.050805225762017736
761.0,0.04987865248862655
760.0,0.048954051864180226
759.0,0.047982909952573705
758.0,0.04686877481655505
757.0,0.04585401117045196
756.0,0.04508244626504121
755.0,0.044360346976747955
754.0,0.04359142880416744
753.0,0.04287180232318688
752.0,0.04224908912272074
751.0,0.041627267521392675
750.0,0.04105406750606355
749.0,0.04057697805689475
748.0,0.0402909757535701
747.0,0.040243327009005014
746.0,0.04062466342415694
745.0,0.04172287445230238
744.0,0.043735497301724546
743.0,0.04682039893436585
742.0,0.05144033789103841
741.0,0.058190526991161784
740.0,0.06772922410050963
739.0,0.08039897621588898
738.0,0.096150661903319
737.0,0.1149782051377024
736.0,0.13632033212410222
735.0,0.15939212099070987
734.0,0.18369240056806024
733.0,0.2092223986623063
732.0,0.23619777592540725
731.0,0.264480941184829
730.0,0.2946495371142881
729.0,0.32771737521107935
728.0,0.3634118162701576
727.0,0.39859193946531635
726.0,0.42922363120525175
725.0,0.450874073241889
724.0,0.460672936460625
723.0,0.45804652554176384
722.0,0.4464810598510305
721.0,0.4310945850171213
720.0,0.4156687756324693
719.0,0.40000782241590205
718.0,0.3835244861114344
717.0,0.36653154442041336
716.0,0.3496924768680636
715.0,0.3332013163338259
714.0,0.3178549236261683
713.0,0.3044307729638145
712.0,0.29302632382382177
711.0,0.2826624172761363
710.0,0.27294698864614264
709.0,0.26408188346870287
708.0,0.2562551214075388
707.0,0.248951965179812
706.0,0.24199699070020086
705.0,0.23545028093553277
704.0,0.22922160383085233
703.0,0.2229358452575705
702.0,0.21645371772965016
701.0,0.2101373699536182
700.0,0.20398103065285067
699.0,0.19777376230892996
698.0,0.19165396425960513
697.0,0.18615224577114575
696.0,0.18177410638604452
695.0,0.17796275192741495
694.0,0.1742494186519723
693.0,0.1705032502798176
692.0,0.16691666582165698
691.0,0.163359458427226
690.0,0.1602706247936121
689.0,0.15826522102525642
688.0,0.15720360482441986
687.0,0.15639352807548912
686.0,0.15515019919336104
685.0,0.1537866361206126
684.0,0.1527358982292355
683.0,0.15187248943212528
682.0,0.1509493094304879
681.0,0.15015080439474215
680.0,0.1494762911210057
679.0,0.148864004988426
678.0,0.14819148577176255
677.0,0.14752000636314366
676.0,0.14672777597931685
675.0,0.14526898278605782
674.0,0.14296920172737604
673.0,0.1404414273739465
672.0,0.13846558914096208
671.0,0.1374512304752069
670.0,0.1374512304752069
669.0,0.1387643813659596
668.0,0.14032142337155173
667.0,0.1390633792999063
666.0,0.13572630319562085
665.0,0.1331221856625011
664.0,0.1316495003520317
663.0,0.13076828026902376
662.0,0.1295960947209729
661.0,0.12819363554127072
660.0,0.12691201440971422
659.0,0.1260984021355387
658.0,0.12575017722159698
657.0,0.1258081953209289
656.0,0.12569216687196105
655.0,0.12482294018529605
654.0,0.12337808396572703
653.0,0.12222565000860186
652.0,0.12193801870998744
651.0,0.12205304837081177
650.0,0.12205304837081177
649.0,0.1219955297319748
648.0,0.12188051530283239
647.0,0.12124847982699793
646.0,0.1199871616332282
645.0,0.11867241589944855
644.0,0.11793105556385153
643.0,0.1175323851046286
642.0,0.11713408027837091
641.0,0.11679296664760996
640.0,0.116736140415026
639.0,0.11702034596270106
638.0,0.11798803837334138
637.0,0.11992991593593283
636.0,0.12285911021517903
635.0,0.12569216687196105
634.0,0.12720296001040166
633.0,0.1270865583796048
632.0,0.1258081953209289
631.0,0.12383991517437187
630.0,0.12170805075020397
629.0,0.11992991593593283
628.0,0.11833009232793867
627.0,0.11645212073195621
626.0,0.1145256971708426
625.0,0.11322735694556196
624.0,0.1130019543289007
623.0,0.11322735694556196
622.0,0.1133401021387972
621.0,0.11322735694556196
620.0,0.1128329791052256
619.0,0.11187669270209155
618.0,0.11030620855581463
617.0,0.10862982530385179
616.0,0.10723776538418317
615.0,0.10640466618011679
614.0,0.10601643278815298
613.0,0.1061827760325369
612.0,0.10640466618011679
611.0,0.1060718734573931
610.0,0.10507502264045665
609.0,0.10413564875270076
608.0,0.10358402352687701
607.0,0.10297804393963661
606.0,0.1022080180607754
605.0,0.10187842445889239
604.0,0.10248287059947447
603.0,0.10352889952072264
602.0,0.10430127304069425
601.0,0.10430127304069425
600.0,0.10325338439259446
