cm-1,A
4000.0,0.0029632891174733444
3999.0,0.0030070181092942683
3998.0,0.003050751504618754
3997.0,0.0030944893043338695
3996.0,0.0031382315093266833
3995.0,0.0031382315093266833
3994.0,0.0030944893043338695
3993.0,0.0030070181092942683
3992.0,0.0029632891174733444
3991.0,0.0029195645282691363
3990.0,0.0029195645282691363
3989.0,0.0029632891174733444
3988.0,0.003050751504618754
3987.0,0.0031382315093266833
3986.0,0.0032257291386954545
3985.0,0.0032257291386954545
3984.0,0.0033132443998284966
3983.0,0.0034007772998332353
3982.0,0.003488327845821315
3981.0,0.0035758960449088217
3980.0,0.0035321097382827737
3979.0,0.0034007772998332353
3978.0,0.0033132443998284966
3977.0,0.0032694845648473247
3976.0,0.0032694845648473247
3975.0,0.0032694845648473247
3974.0,0.0032694845648473247
3973.0,0.0032694845648473247
3972.0,0.0032257291386954545
3971.0,0.0032694845648473247
3970.0,0.0033132443998284966
3969.0,0.0034007772998332353
3968.0,0.0034007772998332353
3967.0,0.0034007772998332353
3966.0,0.0033570086445275926
3965.0,0.0033132443998284966
3964.0,0.0032257291386954545
3963.0,0.0031819781204844855
3962.0,0.0030944893043338695
3961.0,0.0030944893043338695
3960.0,0.0031382315093266833
3959.0,0.0031819781204844855
3958.0,0.0032694845648473247
3957.0,0.0033132443998284966
3956.0,0.0033132443998284966
3955.0,0.0032257291386954545
3954.0,0.0030944893043338695
3953.0,0.0029195645282691363
3952.0,0.0027884171674950053
3951.0,0.0027447101798967477
3950.0,0.0028321285541661467
3949.0,0.0029195645282691363
3948.0,0.0030070181092942683
3947.0,0.0030070181092942683
3946.0,0.003050751504618754
3945.0,0.0031382315093266833
3944.0,0.0031819781204844855
3943.0,0.0031819781204844855
3942.0,0.003050751504618754
3941.0,0.0029195645282691363
3940.0,0.0029195645282691363
3939.0,0.0030944893043338695
3938.0,0.0032694845648473247
3937.0,0.0033570086445275926
3936.0,0.0033570086445275926
3935.0,0.0033132443998284966
3934.0,0.0033132443998284966
3933.0,0.0033132443998284966
3932.0,0.0032694845648473247
3931.0,0.0031382315093266833
3930.0,0.003050751504618754
3929.0,0.0030070181092942683
3928.0,0.0030944893043338695
3927.0,0.0031819781204844855
3926.0,0.0032257291386954545
3925.0,0.0032257291386954545
3924.0,0.0031819781204844855
3923.0,0.0030944893043338695
3922.0,0.0030944893043338695
3921.0,0.0030944893043338695
3920.0,0.0030944893043338695
3919.0,0.0031382315093266833
3918.0,0.0031819781204844855
3917.0,0.0033132443998284966
3916.0,0.0033570086445275926
3915.0,0.0034445503666347133
3914.0,0.0035321097382827737
3913.0,0.003619686766589858
3912.0,0.003707281458678491
3911.0,0.003707281458678491
3910.0,0.0036634819042162814
3909.0,0.0035758960449088217
3908.0,0.0034445503666347133
3907.0,0.0033132443998284966
3906.0,0.0031382315093266833
3905.0,0.0029632891174733444
3904.0,0.0026573093983774942
3903.0,0.002351545103793873
3902.0,0.0021769192542746563
3901.0,0.0022642234021015284
3900.0,0.0025262411970197185
3899.0,0.0027447101798967477
3898.0,0.0028321285541661467
3897.0,0.0028758443407954637
3896.0,0.0028758443407954637
3895.0,0.0028758443407954637
3894.0,0.0028758443407954637
3893.0,0.0029632891174733444
3892.0,0.0030944893043338695
3891.0,0.003050751504618754
3890.0,0.0029195645282691363
3889.0,0.0028321285541661467
3888.0,0.0029632891174733444
3887.0,0.0032257291386954545
3886.0,0.0033570086445275926
3885.0,0.0032694845648473247
3884.0,0.0030070181092942683
3883.0,0.0029195645282691363
3882.0,0.0030070181092942683
3881.0,0.0030944893043338695
3880.0,0.0029632891174733444
3879.0,0.0026573093983774942
3878.0,0.0025262411970197185
3877.0,0.002613615602686581
3876.0,0.0027884171674950053
3875.0,0.0028321285541661467
3874.0,0.002701007590486082
3873.0,0.0024388843664115978
3872.0,0.002395212539545666
3871.0,0.002569926202528716
3870.0,0.0026573093983774942
3869.0,0.002482560585275184
3868.0,0.0021769192542746563
3867.0,0.0021769192542746563
3866.0,0.002395212539545666
3865.0,0.002613615602686581
3864.0,0.002701007590486082
3863.0,0.002701007590486082
3862.0,0.002701007590486082
3861.0,0.0027884171674950053
3860.0,0.0028321285541661467
3859.0,0.0027884171674950053
3858.0,0.002613615602686581
3857.0,0.002395212539545666
3856.0,0.0022642234021015284
3855.0,0.002351545103793873
3854.0,0.0026573093983774942
3853.0,0.002701007590486082
3852.0,0.002482560585275184
3851.0,0.0027447101798967477
3850.0,0.0034007772998332353
3849.0,0.0038387066319929275
3848.0,0.003926345514724705
3847.0,0.0037510854308679953
3846.0,0.0035758960449088217
3845.0,0.0034007772998332353
3844.0,0.0032694845648473247
3843.0,0.0031382315093266833
3842.0,0.0029632891174733444
3841.0,0.0028321285541661467
3840.0,0.0028321285541661467
3839.0,0.0028321285541661467
3838.0,0.0028321285541661467
3837.0,0.0027447101798967477
3836.0,0.0028321285541661467
3835.0,0.0030944893043338695
3834.0,0.0034445503666347133
3833.0,0.0036634819042162814
3832.0,0.003707281458678491
3831.0,0.0035758960449088217
3830.0,0.0034007772998332353
3829.0,0.0033570086445275926
3828.0,0.0033132443998284966
3827.0,0.0032257291386954545
3826.0,0.0028758443407954637
3825.0,0.0024388843664115978
3824.0,0.0021332737608552588
3823.0,0.0021332737608552588
3822.0,0.002482560585275184
3821.0,0.002701007590486082
3820.0,0.0025262411970197185
3819.0,0.0023078820582733695
3818.0,0.0025262411970197185
3817.0,0.0030070181092942683
3816.0,0.0033570086445275926
3815.0,0.0034445503666347133
3814.0,0.0034445503666347133
3813.0,0.003619686766589858
3812.0,0.003794893821675638
3811.0,0.0037510854308679953
3810.0,0.003488327845821315
3809.0,0.0032694845648473247
3808.0,0.0032257291386954545
3807.0,0.0031819781204844855
3806.0,0.0029632891174733444
3805.0,0.0027447101798967477
3804.0,0.002701007590486082
3803.0,0.0029632891174733444
3802.0,0.0033570086445275926
3801.0,0.0034445503666347133
3800.0,0.0033132443998284966
3799.0,0.0033570086445275926
3798.0,0.0036634819042162814
3797.0,0.003926345514724705
3796.0,0.003926345514724705
3795.0,0.003794893821675638
3794.0,0.0037510854308679953
3793.0,0.003794893821675638
3792.0,0.0038825238627120395
3791.0,0.0038387066319929275
3790.0,0.003707281458678491
3789.0,0.0035758960449088217
3788.0,0.0034445503666347133
3787.0,0.0034007772998332353
3786.0,0.0033570086445275926
3785.0,0.0033570086445275926
3784.0,0.0032694845648473247
3783.0,0.0031819781204844855
3782.0,0.0031819781204844855
3781.0,0.0033570086445275926
3780.0,0.003488327845821315
3779.0,0.0035758960449088217
3778.0,0.0035758960449088217
3777.0,0.0035321097382827737
3776.0,0.003619686766589858
3775.0,0.0036634819042162814
3774.0,0.003619686766589858
3773.0,0.0034445503666347133
3772.0,0.0033132443998284966
3771.0,0.0032257291386954545
3770.0,0.0031819781204844855
3769.0,0.0030944893043338695
3768.0,0.0031382315093266833
3767.0,0.0034007772998332353
3766.0,0.0036634819042162814
3765.0,0.0037510854308679953
3764.0,0.003619686766589858
3763.0,0.0034007772998332353
3762.0,0.0032257291386954545
3761.0,0.0030944893043338695
3760.0,0.0029632891174733444
3759.0,0.0028758443407954637
3758.0,0.0028758443407954637
3757.0,0.0029195645282691363
3756.0,0.0029632891174733444
3755.0,0.0030070181092942683
3754.0,0.0029632891174733444
3753.0,0.0029632891174733444
3752.0,0.0031382315093266833
3751.0,0.0034007772998332353
3750.0,0.0033570086445275926
3749.0,0.0031382315093266833
3748.0,0.0029632891174733444
3747.0,0.0030944893043338695
3746.0,0.0034007772998332353
3745.0,0.0037510854308679953
3744.0,0.0036634819042162814
3743.0,0.0032694845648473247
3742.0,0.0031382315093266833
3741.0,0.0033570086445275926
3740.0,0.0034445503666347133
3739.0,0.0032257291386954545
3738.0,0.0029632891174733444
3737.0,0.0028758443407954637
3736.0,0.0029632891174733444
3735.0,0.0030070181092942683
3734.0,0.0029632891174733444
3733.0,0.0029632891174733444
3732.0,0.0031382315093266833
3731.0,0.0034007772998332353
3730.0,0.003619686766589858
3729.0,0.0037510854308679953
3728.0,0.003794893821675638
3727.0,0.003707281458678491
3726.0,0.003619686766589858
3725.0,0.0035758960449088217
3724.0,0.0036634819042162814
3723.0,0.003794893821675638
3722.0,0.0038387066319929275
3721.0,0.0038825238627120395
3720.0,0.0038825238627120395
3719.0,0.0038825238627120395
3718.0,0.0038387066319929275
3717.0,0.0036634819042162814
3716.0,0.0034007772998332353
3715.0,0.0031819781204844855
3714.0,0.0030944893043338695
3713.0,0.0032257291386954545
3712.0,0.0035321097382827737
3711.0,0.003707281458678491
3710.0,0.0037510854308679953
3709.0,0.0037510854308679953
3708.0,0.0038387066319929275
3707.0,0.00401400208620073
3706.0,0.004145520125434121
3705.0,0.004233220950025984
3704.0,0.004277078004534696
3703.0,0.0043648054024501
3702.0,0.004408675747646695
3701.0,0.004320939488377862
3700.0,0.004277078004534696
3699.0,0.004277078004534696
3698.0,0.004452550524862486
3697.0,0.00458420145758498
3696.0,0.004628093971837721
3695.0,0.0044964297349936455
3694.0,0.004277078004534696
3693.0,0.0040578370074493275
3692.0,0.003970171588923321
3691.0,0.00401400208620073
3690.0,0.004233220950025984
3689.0,0.004408675747646695
3688.0,0.0044964297349936455
3687.0,0.004671990922590297
3686.0,0.005067263269958211
3685.0,0.005506877116487674
3684.0,0.005726851026829571
3683.0,0.005726851026829571
3682.0,0.005594853310833647
3681.0,0.005462895701502157
3680.0,0.0052870145684298375
3679.0,0.005023326350308999
3678.0,0.004759798137184523
3677.0,0.00489154225525934
3676.0,0.00537494623139545
3675.0,0.005594853310833647
3674.0,0.00541891874010525
3673.0,0.00537494623139545
3672.0,0.005682847330363394
3671.0,0.00612308505878878
3670.0,0.00656376950238835
3669.0,0.006740168563263094
3668.0,0.006828394969235152
3667.0,0.007093181776687496
3666.0,0.0074464821678643656
3665.0,0.007755855953228474
3664.0,0.007932739972333236
3663.0,0.007976972236149349
3662.0,0.007932739972333236
3661.0,0.007800070204414977
3660.0,0.007711646202907652
3659.0,0.007755855953228474
3658.0,0.008065450281052211
3657.0,0.008552401996197112
3656.0,0.008818242332126802
3655.0,0.0087296108049002
3654.0,0.008463824699968647
3653.0,0.008198201155356077
3652.0,0.007976972236149349
3651.0,0.008153946355103248
3650.0,0.008818242332126802
3649.0,0.009483555971770974
3648.0,0.00974996707218323
3647.0,0.009927665307847056
3646.0,0.01023881228122181
3645.0,0.010594681998483901
3644.0,0.010995384301463185
3643.0,0.011351874764248926
3642.0,0.011664044143949504
3641.0,0.011842527443247208
3640.0,0.012021084124518078
3639.0,0.01215504982870197
3638.0,0.012333735073725371
3637.0,0.012467797270160563
3636.0,0.012736045877764557
3635.0,0.012959713020733288
3634.0,0.013093968619278806
3633.0,0.012959713020733288
3632.0,0.01260190086298274
3631.0,0.012423105273012602
3630.0,0.012870232340102872
3629.0,0.01372104409400876
3628.0,0.014259258949925524
3627.0,0.014393916947563534
3626.0,0.014753209197138295
3625.0,0.015247721884586563
3624.0,0.015562705203923999
3623.0,0.015652742414136167
3622.0,0.015562705203923999
3621.0,0.015607721475734415
3620.0,0.015832872853011715
3619.0,0.016193358021584725
3618.0,0.016509028184833463
3617.0,0.016734647433454652
3616.0,0.017005545341335804
3615.0,0.017457417697056554
3614.0,0.017909760704207134
3613.0,0.018271974638383703
3612.0,0.018498511851753108
3611.0,0.018679826740892747
3610.0,0.01899731005860028
3609.0,0.01949668180660491
3608.0,0.020087589665283012
3607.0,0.020542681902151694
3606.0,0.020861530453190058
3605.0,0.021135015652343103
3604.0,0.02140867317992523
3603.0,0.02168250325324883
3602.0,0.02200219004126036
3601.0,0.022322112326006227
3600.0,0.022505030926963654
3599.0,0.02259651912656535
3598.0,0.02277955336461468
3597.0,0.023054249440757957
3596.0,0.02355831062115543
3595.0,0.024108863598207186
3594.0,0.024476287039668643
3593.0,0.024706084643793647
3592.0,0.024706084643793647
3591.0,0.02461415101053266
3590.0,0.024660115394541604
3589.0,0.02498200236711723
3588.0,0.025672564576383117
3587.0,0.026318081496016443
3586.0,0.02664120011360227
3585.0,0.026872146400301444
3584.0,0.027149444152769986
3583.0,0.02747318213414429
3582.0,0.027750864037404455
3581.0,0.027936083991977778
3580.0,0.02812138297373412
3579.0,0.02826040911222183
3578.0,0.028538594975413334
3577.0,0.028863370523193765
3576.0,0.029234840219232394
3575.0,0.029560137048236124
3574.0,0.029839156962686353
3573.0,0.03002526987828502
3572.0,0.030071810571884017
3571.0,0.03002526987828502
3570.0,0.029885677714903025
3569.0,0.029885677714903025
3568.0,0.03025802323714588
3567.0,0.030957032694186815
3566.0,0.031563752288295444
3565.0,0.03189079887180224
3564.0,0.03217132066984485
3563.0,0.032545631817259224
3562.0,0.03301397488206215
3561.0,0.03352973627071565
3560.0,0.034046110897937076
3559.0,0.034516075754861264
3558.0,0.03489241415094413
3557.0,0.03512779136222477
3556.0,0.03522197797762394
3555.0,0.03522197797762394
3554.0,0.03531618502395939
3553.0,0.03559892883726867
3552.0,0.03597620715996652
3551.0,0.03630659476198117
3550.0,0.03644826642590382
3549.0,0.03658998431977123
3548.0,0.03682628362474838
3547.0,0.03720463014276687
3546.0,0.03767802727041558
3545.0,0.038151940981675736
3544.0,0.03857890593355173
3543.0,0.03905380426616856
3542.0,0.03948165721929198
3541.0,0.03986232513620536
3540.0,0.04010041213405646
3539.0,0.040243327009005014
3538.0,0.04038628892895613
3537.0,0.04076775094900409
3536.0,0.04124505013091051
3535.0,0.04172287445230238
3534.0,0.042057664554595586
3533.0,0.04229695845116854
3532.0,0.04244059810252043
3531.0,0.042584285277331047
3530.0,0.04282386959515394
3529.0,0.04320747962950522
3528.0,0.04363944632667782
3527.0,0.04397571771932274
3526.0,0.044167989767578186
3525.0,0.04440844959427559
3524.0,0.044793462458058375
3523.0,0.045323413081356456
3522.0,0.04575749056067524
3521.0,0.046143701775014145
3520.0,0.04653025674659861
3519.0,0.04696554274964315
3518.0,0.04749815213697639
3517.0,0.047982909952573705
3516.0,0.04832256265669943
3515.0,0.04851676924770687
3514.0,0.04866248120408234
3513.0,0.04885683989244738
3512.0,0.04919717703534143
3511.0,0.04968383607539972
3510.0,0.05026854768429301
3509.0,0.05085404758005607
3508.0,0.051244819831730126
3507.0,0.05148923116234294
3506.0,0.05163594401163074
3505.0,0.05192951848105887
3504.0,0.052468254304406825
3503.0,0.0531548860393769
3502.0,0.05374429280060267
3501.0,0.05413767551038262
3500.0,0.05438372077326825
3499.0,0.054728418492290265
3498.0,0.055122694036304765
3497.0,0.05566540802921782
3496.0,0.05620880107069848
3495.0,0.05665390164340933
3494.0,0.057049929922901255
3493.0,0.057396751157843484
3492.0,0.05779345772290467
3491.0,0.058190526991161784
3490.0,0.05868737463933793
3489.0,0.05918479134919874
3488.0,0.05968277842578207
3487.0,0.060131455540490375
3486.0,0.060430831344098435
3485.0,0.06068046892176193
3484.0,0.06103020277710969
3483.0,0.061580354206806964
3482.0,0.06223143295006417
3481.0,0.06288348923294618
3480.0,0.06343599486473406
3479.0,0.06393888339001164
3478.0,0.06439198148213077
3477.0,0.06489597884855036
3476.0,0.06545105233385295
3475.0,0.0659562809644747
3474.0,0.0663102910421054
3473.0,0.06646209802829528
3472.0,0.0666645899223488
3471.0,0.06691783763020887
3470.0,0.06742477650170953
3469.0,0.06813548650796819
3468.0,0.0690000580438479
3467.0,0.06986635415888243
3466.0,0.07058107428570715
3465.0,0.07114346641808922
3464.0,0.07160414774328627
3463.0,0.07206531825882068
3462.0,0.07262963696097646
3461.0,0.07319468988839395
3460.0,0.07370901311513656
3459.0,0.07422394616325367
3458.0,0.07473949048056472
3457.0,0.07525564752005143
3456.0,0.07587584681417514
3455.0,0.07644514193245056
3454.0,0.07701518429111709
3453.0,0.07753405470158659
3452.0,0.07794959783282618
3451.0,0.07820951434181311
3450.0,0.07852161962430992
3449.0,0.07904229404455076
3448.0,0.07992887570247587
3447.0,0.0809742354126397
3446.0,0.08191721535781271
3445.0,0.08259953204474924
3444.0,0.08317771540408803
3443.0,0.08375666953466032
3442.0,0.08438913733853282
3441.0,0.08496970974083906
3440.0,0.08555105930144569
3439.0,0.08608023504853413
3438.0,0.0867160982395816
3437.0,0.08740600224789441
3436.0,0.0880970039559672
3435.0,0.08878910686244668
3434.0,0.08948231448273347
3433.0,0.09012318200960712
3432.0,0.09076499663169257
3431.0,0.09146136782804049
3430.0,0.0922125568893839
3429.0,0.09301884677114591
3428.0,0.09388054245443844
3427.0,0.09463593123310776
3426.0,0.09523037409340485
3425.0,0.09582563171583658
3424.0,0.0964759355287379
3423.0,0.09734452478207412
3422.0,0.09837823590664274
3421.0,0.09952362861074304
3420.0,0.1005625457138224
3419.0,0.10138450258381404
3418.0,0.10198826120249849
3417.0,0.10253786198693682
3416.0,0.10319830233507843
3415.0,0.10391491457671487
3414.0,0.1047432468551055
3413.0,0.10562854614376227
3412.0,0.10651565378151395
3411.0,0.10740457717110186
3410.0,0.1082953237608173
3409.0,0.10907622851098608
3408.0,0.1098585399354226
3407.0,0.11053021603049262
3406.0,0.11125903931710734
3405.0,0.1120452961911984
3404.0,0.11277666863747693
3403.0,0.11350927482751816
3402.0,0.11424311893073247
3401.0,0.1149782051377024
3400.0,0.1157145376603248
3399.0,0.1165089098110701
3398.0,0.11730473761840288
3397.0,0.11798803837334138
3396.0,0.11861534322942724
3395.0,0.11935787359571504
3394.0,0.12027350336042275
3393.0,0.12124847982699793
3392.0,0.12216810850710624
3391.0,0.12285911021517903
3390.0,0.12337808396572703
3389.0,0.12372441132212098
3388.0,0.12412880927263426
3387.0,0.12459143992293642
3386.0,0.12517042212027807
3385.0,0.1258081953209289
3384.0,0.12638880300353272
3383.0,0.12679569072295926
3382.0,0.1270865583796048
3381.0,0.12731939284807026
3380.0,0.1275523522109867
3379.0,0.12784372725170723
3378.0,0.1282519810081284
3377.0,0.1287190271420271
3376.0,0.12912810493225724
3375.0,0.12942053944731513
3374.0,0.1295960947209729
3373.0,0.12965462891904034
3372.0,0.12977172098820566
3371.0,0.12994741830645506
3370.0,0.13006458935314003
3369.0,0.13024040521758962
3368.0,0.1302990263261221
3367.0,0.13041629228657614
3366.0,0.1304749371427727
3365.0,0.1304749371427727
3364.0,0.13041629228657614
3363.0,0.1302990263261221
3362.0,0.13024040521758962
3361.0,0.13024040521758962
3360.0,0.13024040521758962
3359.0,0.13024040521758962
3358.0,0.13018179202067182
3357.0,0.13024040521758962
3356.0,0.13035765534840538
3355.0,0.1304749371427727
3354.0,0.13053358991913355
3353.0,0.13041629228657614
3352.0,0.13018179202067182
3351.0,0.12994741830645506
3350.0,0.12977172098820566
3349.0,0.1295960947209729
3348.0,0.1295960947209729
3347.0,0.1295960947209729
3346.0,0.12953756841108
3345.0,0.12942053944731513
3344.0,0.12918657608440243
3343.0,0.12901118623942476
3342.0,0.12883586719705065
3341.0,0.12854382597704617
3340.0,0.12819363554127072
3339.0,0.1276688787697493
3338.0,0.12720296001040166
3337.0,0.1267375405612734
3336.0,0.12644690648638135
3335.0,0.12621453918179926
3334.0,0.12598229613781387
3333.0,0.1258081953209289
3332.0,0.12563416426995122
3331.0,0.12534426740189897
3330.0,0.1251124891538875
3329.0,0.1248808345374317
3328.0,0.12470717462899183
3327.0,0.1244757360506914
3326.0,0.12424442074194553
3325.0,0.12401322857151209
3324.0,0.1236666709136196
3323.0,0.12337808396572703
3322.0,0.12308968865537295
3321.0,0.12280148472821018
3320.0,0.12245589228405596
3319.0,0.12205304837081177
3318.0,0.12153565465853111
3317.0,0.12107626603243293
3316.0,0.12067469921519258
3315.0,0.12033079436794658
3314.0,0.11992991593593283
3313.0,0.11952940719622163
3312.0,0.11918640771920863
3311.0,0.11890078161098283
3310.0,0.11867241589944855
3309.0,0.11844417020668851
3308.0,0.11815903167507247
3307.0,0.11776015198117662
3306.0,0.11724784438692004
3305.0,0.11667932161702477
3304.0,0.11616828667054757
3303.0,0.11577123036739612
3302.0,0.11548784080960606
3301.0,0.11514801725400226
3300.0,0.1148084593931522
3299.0,0.11446916681190777
3298.0,0.11418662533951118
3297.0,0.11396072443355765
3296.0,0.11367851344052027
3295.0,0.1133401021387972
3294.0,0.1130019543289007
3293.0,0.11266406960083297
3292.0,0.11243895906999102
3291.0,0.11215773489264302
3290.0,0.11187669270209155
3289.0,0.1117081546434846
3288.0,0.11153968196461372
3287.0,0.11137127461477392
3286.0,0.11114683301706374
3285.0,0.11086644403327606
3284.0,0.1106422631110684
3283.0,0.11036219959333216
3282.0,0.11008231656379408
3281.0,0.10969078310005154
3280.0,0.10929960230112479
3279.0,0.10890877353227624
3278.0,0.10862982530385179
3277.0,0.10840679565103484
3276.0,0.10823959854332843
3275.0,0.10807246577932506
3274.0,0.10779405402422748
3273.0,0.10762709260156367
3272.0,0.10746019534136453
3271.0,0.10729336219433439
3270.0,0.10701544928928342
3269.0,0.10673771411200872
3268.0,0.10651565378151395
3267.0,0.1062937069352865
3266.0,0.10623823794205656
3265.0,0.10623823794205656
3264.0,0.1063491830140364
3263.0,0.10651565378151395
3262.0,0.10673771411200872
3261.0,0.10701544928928342
3260.0,0.10740457717110186
3259.0,0.10773839308446487
3258.0,0.10796107965870849
3257.0,0.10812816955441629
3256.0,0.10823959854332843
3255.0,0.10840679565103484
3254.0,0.10874138309586101
3253.0,0.10918790104487552
3252.0,0.10969078310005154
3251.0,0.11008231656379408
3250.0,0.11041819785037621
3249.0,0.1106422631110684
3248.0,0.11086644403327606
3247.0,0.11114683301706374
3246.0,0.11153968196461372
3245.0,0.11193288659256306
3244.0,0.11215773489264302
3243.0,0.1120452961911984
3242.0,0.1117081546434846
3241.0,0.11131515334030118
3240.0,0.11097857790477517
3239.0,0.11069829749368965
3238.0,0.11053021603049262
3237.0,0.11036219959333216
3236.0,0.11002636159600376
3235.0,0.10957898119908571
3234.0,0.10907622851098608
3233.0,0.10862982530385179
3232.0,0.10823959854332843
3231.0,0.10773839308446487
3230.0,0.10723776538418317
3229.0,0.10662666975397506
3228.0,0.10601643278815298
3227.0,0.10546241500425357
3226.0,0.10490910306560064
3225.0,0.10441172433373724
3224.0,0.10391491457671487
3223.0,0.10347378251044459
3222.0,0.10308815917397474
3221.0,0.10270287794050348
3220.0,0.10231793820358015
3219.0,0.10187842445889239
3218.0,0.10127481841050656
3217.0,0.10067205012234592
3216.0,0.10012480397898926
3215.0,0.09963287134352972
3214.0,0.09925064193892053
3213.0,0.09881421986284966
3212.0,0.09832376867362447
3211.0,0.09794268919153337
3210.0,0.09761631556752848
3209.0,0.09729018703012282
3208.0,0.09691001300805646
3207.0,0.09642170633694569
3206.0,0.09587978652380036
3205.0,0.09533854208447545
3204.0,0.09479797133768142
3203.0,0.09431203228814788
3202.0,0.09382663635595145
3201.0,0.09339562827501968
3200.0,0.09301884677114591
3199.0,0.09269615116603047
3198.0,0.09248115389337075
3197.0,0.09226626300234453
3196.0,0.09205147838772776
3195.0,0.09167586072382083
3194.0,0.09113982698272349
3193.0,0.0905509530187334
3192.0,0.08996287644694911
3191.0,0.08948231448273347
3190.0,0.08910891135547172
3189.0,0.08878910686244668
3188.0,0.0884695376928375
3187.0,0.08804381092731295
3186.0,0.08761850108119962
3185.0,0.08714052483764512
3184.0,0.0867160982395816
3183.0,0.08639805027084257
3182.0,0.08602728844902896
3181.0,0.0856568428805593
3180.0,0.08523386307414738
3179.0,0.08481129482684358
3178.0,0.08449463824562353
3177.0,0.08423093401631587
3176.0,0.08396738981143059
3175.0,0.08370400543686918
3174.0,0.08333553545860273
3173.0,0.08286224724355584
3172.0,0.0823369756726251
3171.0,0.08170748724464438
3170.0,0.08118360963962057
3169.0,0.08066036321258663
3168.0,0.08024221949810584
3167.0,0.07982447798997727
3166.0,0.07951143534170213
3165.0,0.07919861817434581
3164.0,0.07893810920972144
3163.0,0.07862570458152551
3162.0,0.07826151631540124
3161.0,0.07784567476894111
3160.0,0.07743023101428781
3159.0,0.07706704344478843
3158.0,0.07670415934449615
3157.0,0.07628980560343712
3156.0,0.07587584681417514
3155.0,0.07535895258283709
3154.0,0.07489427319033615
3153.0,0.07448164182257
3152.0,0.07412091069849924
3151.0,0.07376047895413773
3150.0,0.07340034609297241
3149.0,0.07304051161972436
3148.0,0.07273231918911849
3147.0,0.07242434530888953
3146.0,0.0720140529005715
3145.0,0.07160414774328627
3144.0,0.07119462910671581
3143.0,0.07088774334533943
3142.0,0.07063217075990047
3141.0,0.07042782092345012
3140.0,0.07017251876930874
3139.0,0.06986635415888243
3138.0,0.06950943469373039
3137.0,0.06905096883247697
3136.0,0.06864384953207203
3135.0,0.06823711151882228
3134.0,0.06788152797087754
3133.0,0.0675769736232612
3132.0,0.06722192993944942
3131.0,0.06676587128519196
3130.0,0.0663102910421054
3129.0,0.0658551882075229
3128.0,0.06550154875643233
3127.0,0.06524912533642091
3126.0,0.06499684854634524
3125.0,0.06474471821595262
3124.0,0.06444235490698613
3123.0,0.06408986356949264
3122.0,0.06363708040225546
3121.0,0.06318476880236723
3120.0,0.06268275223750575
3119.0,0.06223143295006417
3118.0,0.06193081377661436
3117.0,0.06163040254819374
3116.0,0.06133019897732073
3115.0,0.06098022355133348
3114.0,0.06063052992534024
3113.0,0.060231224546650086
3112.0,0.05983228596592505
3111.0,0.05953332233647113
3110.0,0.05918479134919874
3109.0,0.0588862729628985
3108.0,0.05863766428823891
3107.0,0.0583395216116076
3106.0,0.05809122563440061
3105.0,0.05779345772290467
3104.0,0.0575950591438934
3103.0,0.05729763111133224
3102.0,0.057000406633959555
3101.0,0.05665390164340933
3100.0,0.05625823416868636
3099.0,0.05586292684190197
3098.0,0.05546797900801881
3097.0,0.055122694036304765
3096.0,0.054728418492290265
3095.0,0.05438372077326825
3094.0,0.05403929642243144
3093.0,0.05374429280060267
3092.0,0.05354773498692689
3091.0,0.05340037498486727
3090.0,0.05325306496641513
3089.0,0.05305672930217464
3088.0,0.05281143447390635
3087.0,0.052468254304406825
3086.0,0.05212534510230182
3085.0,0.05178270644002936
3084.0,0.05144033789103841
3083.0,0.05114709380028648
3082.0,0.050902874887084115
3081.0,0.0506099933550872
3080.0,0.050317309204795935
3079.0,0.05002482217034632
3078.0,0.04978123335813667
3077.0,0.04958646063061889
3076.0,0.04934311749548925
3075.0,0.04900266601119507
3074.0,0.04866248120408234
3073.0,0.04827402457540786
3072.0,0.047934409814949674
3071.0,0.047643522676209304
3070.0,0.04740126547022694
3069.0,0.04715914332429838
3068.0,0.04696554274964315
3067.0,0.04677202844014605
3066.0,0.04657860031896477
3065.0,0.04633693625290869
3064.0,0.04609540658654021
3063.0,0.04585401117045196
3062.0,0.045612749855485024
3061.0,0.04537162249272897
3060.0,0.04513062893352182
3059.0,0.04488976902944808
3058.0,0.04469717723830824
3057.0,0.044456557540257124
3056.0,0.04421607108308856
3055.0,0.0439276630048171
3054.0,0.04363944632667782
3053.0,0.04339941178682327
3052.0,0.04320747962950522
3051.0,0.04301563225723992
3050.0,0.042775942156833
3049.0,0.04248848854552012
3048.0,0.042201225070002124
3047.0,0.04186632432376469
3046.0,0.041579471947481794
3045.0,0.04138834223512067
3044.0,0.04124505013091051
3043.0,0.04105406750606355
3042.0,0.04081545726880842
3041.0,0.04057697805689475
3040.0,0.040338629726504704
3039.0,0.04019568349166214
3038.0,0.040005161671583744
3037.0,0.03981472339538916
3036.0,0.03962436858984186
3035.0,0.039338992729018196
3034.0,0.039006291057664066
3033.0,0.038673844065289176
3032.0,0.03838909190871931
3031.0,0.038199360808321536
3030.0,0.03800971255993524
3029.0,0.03782014709123227
3028.0,0.03763066432997886
3027.0,0.03744126420403626
3026.0,0.037299268295658994
3025.0,0.0371573187987575
3024.0,0.0369681249461018
3023.0,0.03668448861388862
3022.0,0.036401037402758574
3021.0,0.036117771071222604
3020.0,0.03592902944204468
3019.0,0.035740369803151095
3018.0,0.03559892883726867
3017.0,0.035363296211498474
3016.0,0.03517488211661135
3015.0,0.0349394793888016
3014.0,0.03475124903287918
3013.0,0.03456310022373987
3012.0,0.03437503289075727
3011.0,0.034187046963396917
3010.0,0.03399914237121604
3009.0,0.03385826726096752
3008.0,0.03376437590141812
3007.0,0.03367050483612166
3006.0,0.03357665405630694
3005.0,0.03338901331806565
3004.0,0.033154576345083564
3003.0,0.032920265855503006
3002.0,0.032686081712916426
3001.0,0.03249882527715853
3000.0,0.03235843591698884
2999.0,0.032218091924200776
2998.0,0.03207779326948268
2997.0,0.03193753992355086
2996.0,0.03175060589208267
2995.0,0.03161045815293173
2994.0,0.03142366482450232
2993.0,0.03128362253321426
2992.0,0.03105031901865729
2991.0,0.03081714076773867
2990.0,0.03058408764601861
2989.0,0.030444315779156517
2988.0,0.030397735151460825
2987.0,0.030397735151460825
2986.0,0.03030458888152676
2985.0,0.030164906924202484
2984.0,0.03002526987828502
2983.0,0.029839156962686353
2982.0,0.029653123769906697
2981.0,0.029513651152349718
2980.0,0.029374223311705583
2979.0,0.02932775731028059
2978.0,0.029281296279810798
2977.0,0.029234840219232394
2976.0,0.029095501846216454
2975.0,0.02890978686288448
2974.0,0.028770552723758724
2973.0,0.02872415126189476
2972.0,0.028770552723758724
2971.0,0.02890978686288448
2970.0,0.02904906565457588
2969.0,0.02904906565457588
2968.0,0.028956208163971375
2967.0,0.028863370523193765
2966.0,0.028770552723758724
2965.0,0.028677754757187035
2964.0,0.028538594975413334
2963.0,0.02839947976994095
2962.0,0.028306761050139073
2961.0,0.028306761050139073
2960.0,0.028445846553939003
2959.0,0.028538594975413334
2958.0,0.02858497661500481
2957.0,0.028538594975413334
2956.0,0.02839947976994095
2955.0,0.02826040911222183
2954.0,0.028075050815808744
2953.0,0.027889771597169544
2952.0,0.027750864037404455
2951.0,0.027658283674251827
2950.0,0.027612000892527133
2949.0,0.027658283674251827
2948.0,0.027612000892527133
2947.0,0.027426919073445077
2946.0,0.027195677663422346
2945.0,0.027010773144651168
2944.0,0.026872146400301444
2943.0,0.02677975314776626
2942.0,0.026687379547098322
2941.0,0.026595025589939425
2940.0,0.026456531467510258
2939.0,0.02636422658259252
2938.0,0.02636422658259252
2937.0,0.026456531467510258
2936.0,0.026502691267936695
2935.0,0.026456531467510258
2934.0,0.026271941311972746
2933.0,0.026087429580295085
2932.0,0.025995203102585407
2931.0,0.025949097207122573
2930.0,0.025949097207122573
2929.0,0.025902996205869
2928.0,0.025810808881832736
2927.0,0.025810808881832736
2926.0,0.025764722556973707
2925.0,0.025764722556973707
2924.0,0.025718641122169483
2923.0,0.02562649291857677
2922.0,0.025488307262671706
2921.0,0.025304128090317013
2920.0,0.025074013910237447
2919.0,0.02484402159331056
2918.0,0.02461415101053266
2917.0,0.02438440203310499
2916.0,0.024154774532432866
2915.0,0.023925268380126097
2914.0,0.023741750742954926
2913.0,0.023604163388120325
2912.0,0.02355831062115543
2911.0,0.023466619608062178
2910.0,0.023374947949272418
2909.0,0.023237476732539397
2908.0,0.023191662661933732
2907.0,0.023054249440757957
2906.0,0.02296266477531872
2905.0,0.02282532397981263
2904.0,0.022733787572707387
2903.0,0.022642270454698687
2902.0,0.02255077261765881
2901.0,0.022505030926963654
2900.0,0.022413561996148967
2899.0,0.02227639471115217
2898.0,0.022139270735302752
2897.0,0.02200219004126036
2896.0,0.021956506090037076
2895.0,0.021956506090037076
2894.0,0.021910826943857264
2893.0,0.021819483062586187
2892.0,0.02168250325324883
2891.0,0.02159120737696063
2890.0,0.021545566634771474
2889.0,0.0214542995372613
2888.0,0.021317434843055594
2887.0,0.0211806132671577
2886.0,0.021089422824428272
2885.0,0.021043834782408455
2884.0,0.021043834782408455
2883.0,0.021089422824428272
2882.0,0.0211806132671577
2881.0,0.02122621566987748
2880.0,0.02122621566987748
2879.0,0.0211806132671577
2878.0,0.021089422824428272
2877.0,0.0209982515252789
2876.0,0.020907099361673565
2875.0,0.02081596632558158
2874.0,0.020770406977844713
2873.0,0.020724852408976924
2872.0,0.02067930261797568
2871.0,0.02058821736556471
2870.0,0.02045162529590483
2869.0,0.020315076172974234
2868.0,0.02022406727031445
2867.0,0.020178569969774962
2866.0,0.02013307743509718
2865.0,0.02013307743509718
2864.0,0.020087589665283012
2863.0,0.02004210665933459
2862.0,0.02004210665933459
2861.0,0.02013307743509718
2860.0,0.020178569969774962
2859.0,0.02026956933771462
2858.0,0.02036058777709271
2857.0,0.020406104151069693
2856.0,0.02045162529590483
2855.0,0.02036058777709271
2854.0,0.02026956933771462
2853.0,0.02022406727031445
2852.0,0.020178569969774962
2851.0,0.020087589665283012
2850.0,0.019996628416253603
2849.0,0.01990568621470623
2848.0,0.019769308608968306
2847.0,0.01958753839310856
2846.0,0.019360432556262852
2845.0,0.019133445417920836
2844.0,0.018906576854070378
2843.0,0.018725167293411005
2842.0,0.018543833477873584
2841.0,0.018362575344230914
2840.0,0.01831727262871463
2839.0,0.018271974638383703
2838.0,0.018226681372252695
2837.0,0.018181392829336396
2836.0,0.018045555530026514
2835.0,0.017955020928509757
2834.0,0.017909760704207134
2833.0,0.017909760704207134
2832.0,0.017864505196230507
2831.0,0.017774008325325275
2830.0,0.01768353030793479
2829.0,0.017547848615010242
2828.0,0.017502630802287644
2827.0,0.017502630802287644
2826.0,0.017502630802287644
2825.0,0.017547848615010242
2824.0,0.017547848615010242
2823.0,0.017502630802287644
2822.0,0.017412209298337533
2821.0,0.017321806616515723
2820.0,0.017231422748988034
2819.0,0.017141057687924732
2818.0,0.017050711425501408
2817.0,0.016915227262211507
2816.0,0.016824927962187042
2815.0,0.01677978535189717
2814.0,0.01677978535189717
2813.0,0.016689514205884493
2812.0,0.016644385668211692
2811.0,0.016509028184833463
2810.0,0.01646391839700767
2809.0,0.016373712875465518
2808.0,0.016373712875465518
2807.0,0.016418813294209356
2806.0,0.016373712875465518
2805.0,0.01632861713980338
2804.0,0.016193358021584725
2803.0,0.016148281008528276
2802.0,0.016238439713835096
2801.0,0.016418813294209356
2800.0,0.016509028184833463
2799.0,0.01646391839700767
2798.0,0.01632861713980338
2797.0,0.016193358021584725
2796.0,0.016103208673694303
2795.0,0.016058141016111804
2794.0,0.016058141016111804
2793.0,0.016013078034810446
2792.0,0.01596801972881945
2791.0,0.015877917138889863
2790.0,0.015832872853011715
2789.0,0.01578783323856614
2788.0,0.01578783323856614
2787.0,0.01578783323856614
2786.0,0.01578783323856614
2785.0,0.015742798294583915
2784.0,0.015697768020096703
2783.0,0.015652742414136167
2782.0,0.015562705203923999
2781.0,0.01547268665620738
2780.0,0.015427684378367834
2779.0,0.01538268676325183
2778.0,0.01538268676325183
2777.0,0.01538268676325183
2776.0,0.015427684378367834
2775.0,0.015427684378367834
2774.0,0.015337693809893471
2773.0,0.015202742910707112
2772.0,0.015112798935672522
2771.0,0.015067833932588037
2770.0,0.015067833932588037
2769.0,0.015022873584506602
2768.0,0.015022873584506602
2767.0,0.015022873584506602
2766.0,0.015067833932588037
2765.0,0.015157768594724175
2764.0,0.015202742910707112
2763.0,0.015202742910707112
2762.0,0.015157768594724175
2761.0,0.015067833932588037
2760.0,0.015022873584506602
2759.0,0.014932966849499074
2758.0,0.014888020460646079
2757.0,0.014798141635428141
2756.0,0.014753209197138295
2755.0,0.014798141635428141
2754.0,0.014798141635428141
2753.0,0.014798141635428141
2752.0,0.014753209197138295
2751.0,0.014663358264387139
2750.0,0.014618439768003144
2749.0,0.014573525916998342
2748.0,0.01452861671041239
2747.0,0.01452861671041239
2746.0,0.01452861671041239
2745.0,0.0144837121472845
2744.0,0.014438812226654996
2743.0,0.014393916947563534
2742.0,0.014438812226654996
2741.0,0.0144837121472845
2740.0,0.01452861671041239
2739.0,0.01452861671041239
2738.0,0.014573525916998342
2737.0,0.014618439768003144
2736.0,0.014618439768003144
2735.0,0.014618439768003144
2734.0,0.014573525916998342
2733.0,0.01452861671041239
2732.0,0.014438812226654996
2731.0,0.014393916947563534
2730.0,0.014349026309051105
2729.0,0.014349026309051105
2728.0,0.014304140310157809
2727.0,0.014259258949925524
2726.0,0.014169510141607944
2725.0,0.014124642691606404
2724.0,0.014124642691606404
2723.0,0.014079779876432497
2722.0,0.01403492169512921
2721.0,0.013945219230304673
2720.0,0.013945219230304673
2719.0,0.013945219230304673
2718.0,0.013990068146738865
2717.0,0.01403492169512921
2716.0,0.01403492169512921
2715.0,0.013990068146738865
2714.0,0.013945219230304673
2713.0,0.013900374944870508
2712.0,0.01385553528947936
2711.0,0.01381070026317599
2710.0,0.01381070026317599
2709.0,0.013765869865004277
2708.0,0.01372104409400876
2707.0,0.013631406429727155
2706.0,0.013631406429727155
2705.0,0.013631406429727155
2704.0,0.013631406429727155
2703.0,0.013631406429727155
2702.0,0.013586594534531482
2701.0,0.013586594534531482
2700.0,0.013541787262693505
2699.0,0.013541787262693505
2698.0,0.013541787262693505
2697.0,0.013496984613259544
2696.0,0.013452186585275916
2695.0,0.013407393177789162
2694.0,0.013317820220494436
2693.0,0.013317820220494436
2692.0,0.013362604389846044
2691.0,0.013452186585275916
2690.0,0.013586594534531482
2689.0,0.013676222949234651
2688.0,0.013676222949234651
2687.0,0.013586594534531482
2686.0,0.013452186585275916
2685.0,0.013407393177789162
2684.0,0.013407393177789162
2683.0,0.013452186585275916
2682.0,0.013496984613259544
2681.0,0.013541787262693505
2680.0,0.013541787262693505
2679.0,0.013496984613259544
2678.0,0.013496984613259544
2677.0,0.013407393177789162
2676.0,0.013317820220494436
2675.0,0.013273040668781544
2674.0,0.01322826573375524
2673.0,0.013273040668781544
2672.0,0.013317820220494436
2671.0,0.013273040668781544
2670.0,0.013273040668781544
2669.0,0.01318349541446362
2668.0,0.013138729709955221
2667.0,0.013093968619278806
2666.0,0.013004460275618523
2665.0,0.012959713020733288
2664.0,0.012914970375878188
2663.0,0.012825498912458322
2662.0,0.012825498912458322
2661.0,0.012870232340102872
2660.0,0.012870232340102872
2659.0,0.012825498912458322
2658.0,0.012780770091995297
2657.0,0.012780770091995297
2656.0,0.012780770091995297
2655.0,0.012780770091995297
2654.0,0.012736045877764557
2653.0,0.012736045877764557
2652.0,0.012736045877764557
2651.0,0.012691326268817527
2650.0,0.012691326268817527
2649.0,0.012691326268817527
2648.0,0.01264661126420652
2647.0,0.01264661126420652
2646.0,0.01260190086298274
2645.0,0.012512493866907004
2644.0,0.012423105273012602
2643.0,0.012378417874516323
2642.0,0.012423105273012602
2641.0,0.012512493866907004
2640.0,0.01264661126420652
2639.0,0.012736045877764557
2638.0,0.012780770091995297
2637.0,0.012825498912458322
2636.0,0.012825498912458322
2635.0,0.012825498912458322
2634.0,0.012825498912458322
2633.0,0.012825498912458322
2632.0,0.012870232340102872
2631.0,0.012870232340102872
2630.0,0.012825498912458322
2629.0,0.012780770091995297
2628.0,0.012736045877764557
2627.0,0.012691326268817527
2626.0,0.01264661126420652
2625.0,0.01264661126420652
2624.0,0.01264661126420652
2623.0,0.012691326268817527
2622.0,0.012736045877764557
2621.0,0.012825498912458322
2620.0,0.012870232340102872
2619.0,0.012780770091995297
2618.0,0.01264661126420652
2617.0,0.012512493866907004
2616.0,0.012423105273012602
2615.0,0.012423105273012602
2614.0,0.012467797270160563
2613.0,0.01260190086298274
2612.0,0.012691326268817527
2611.0,0.012736045877764557
2610.0,0.01264661126420652
2609.0,0.012557195064198723
2608.0,0.012423105273012602
2607.0,0.012378417874516323
2606.0,0.012378417874516323
2605.0,0.012423105273012602
2604.0,0.012512493866907004
2603.0,0.012512493866907004
2602.0,0.012423105273012602
2601.0,0.012289056869694281
2600.0,0.012199714248127602
2599.0,0.01215504982870197
2598.0,0.012244383261476699
2597.0,0.012333735073725371
2596.0,0.012423105273012602
2595.0,0.012423105273012602
2594.0,0.012423105273012602
2593.0,0.012467797270160563
2592.0,0.012467797270160563
2591.0,0.012423105273012602
2590.0,0.012289056869694281
2589.0,0.012199714248127602
2588.0,0.01215504982870197
2587.0,0.012199714248127602
2586.0,0.012333735073725371
2585.0,0.012467797270160563
2584.0,0.012557195064198723
2583.0,0.012557195064198723
2582.0,0.012467797270160563
2581.0,0.012378417874516323
2580.0,0.012333735073725371
2579.0,0.012333735073725371
2578.0,0.012378417874516323
2577.0,0.012423105273012602
2576.0,0.012423105273012602
2575.0,0.012378417874516323
2574.0,0.012333735073725371
2573.0,0.012289056869694281
2572.0,0.012289056869694281
2571.0,0.012289056869694281
2570.0,0.012333735073725371
2569.0,0.012378417874516323
2568.0,0.012423105273012602
2567.0,0.012423105273012602
2566.0,0.012423105273012602
2565.0,0.012423105273012602
2564.0,0.012423105273012602
2563.0,0.012378417874516323
2562.0,0.012333735073725371
2561.0,0.012289056869694281
2560.0,0.012244383261476699
2559.0,0.012244383261476699
2558.0,0.012244383261476699
2557.0,0.012199714248127602
2556.0,0.012244383261476699
2555.0,0.012289056869694281
2554.0,0.012333735073725371
2553.0,0.012378417874516323
2552.0,0.012378417874516323
2551.0,0.012378417874516323
2550.0,0.012333735073725371
2549.0,0.012289056869694281
2548.0,0.012244383261476699
2547.0,0.012199714248127602
2546.0,0.012199714248127602
2545.0,0.012244383261476699
2544.0,0.012289056869694281
2543.0,0.012333735073725371
2542.0,0.012333735073725371
2541.0,0.012333735073725371
2540.0,0.012378417874516323
2539.0,0.012423105273012602
2538.0,0.012423105273012602
2537.0,0.012423105273012602
2536.0,0.012378417874516323
2535.0,0.012378417874516323
2534.0,0.012378417874516323
2533.0,0.012423105273012602
2532.0,0.012512493866907004
2531.0,0.012512493866907004
2530.0,0.012557195064198723
2529.0,0.01260190086298274
2528.0,0.01264661126420652
2527.0,0.012780770091995297
2526.0,0.012870232340102872
2525.0,0.012914970375878188
2524.0,0.012914970375878188
2523.0,0.012825498912458322
2522.0,0.012736045877764557
2521.0,0.012691326268817527
2520.0,0.012691326268817527
2519.0,0.012736045877764557
2518.0,0.012736045877764557
2517.0,0.012736045877764557
2516.0,0.012736045877764557
2515.0,0.012736045877764557
2514.0,0.012736045877764557
2513.0,0.012736045877764557
2512.0,0.012736045877764557
2511.0,0.012691326268817527
2510.0,0.01260190086298274
2509.0,0.012512493866907004
2508.0,0.012467797270160563
2507.0,0.012423105273012602
2506.0,0.012378417874516323
2505.0,0.012289056869694281
2504.0,0.012244383261476699
2503.0,0.012244383261476699
2502.0,0.012244383261476699
2501.0,0.012244383261476699
2500.0,0.012199714248127602
2499.0,0.01215504982870197
2498.0,0.012065734767841452
2497.0,0.012021084124518078
2496.0,0.012065734767841452
2495.0,0.012199714248127602
2494.0,0.012333735073725371
2493.0,0.012512493866907004
2492.0,0.01260190086298274
2491.0,0.01264661126420652
2490.0,0.01260190086298274
2489.0,0.012512493866907004
2488.0,0.012423105273012602
2487.0,0.012378417874516323
2486.0,0.012378417874516323
2485.0,0.012423105273012602
2484.0,0.012467797270160563
2483.0,0.012467797270160563
2482.0,0.012423105273012602
2481.0,0.012423105273012602
2480.0,0.012467797270160563
2479.0,0.012557195064198723
2478.0,0.01264661126420652
2477.0,0.012691326268817527
2476.0,0.012736045877764557
2475.0,0.012691326268817527
2474.0,0.012691326268817527
2473.0,0.012691326268817527
2472.0,0.012736045877764557
2471.0,0.012736045877764557
2470.0,0.012736045877764557
2469.0,0.01264661126420652
2468.0,0.01260190086298274
2467.0,0.012557195064198723
2466.0,0.01260190086298274
2465.0,0.01264661126420652
2464.0,0.012691326268817527
2463.0,0.012736045877764557
2462.0,0.012691326268817527
2461.0,0.012691326268817527
2460.0,0.012691326268817527
2459.0,0.012691326268817527
2458.0,0.01264661126420652
2457.0,0.01264661126420652
2456.0,0.012691326268817527
2455.0,0.012736045877764557
2454.0,0.012825498912458322
2453.0,0.012870232340102872
2452.0,0.012870232340102872
2451.0,0.012825498912458322
2450.0,0.012825498912458322
2449.0,0.012870232340102872
2448.0,0.012870232340102872
2447.0,0.012825498912458322
2446.0,0.012736045877764557
2445.0,0.012691326268817527
2444.0,0.01264661126420652
2443.0,0.012691326268817527
2442.0,0.012736045877764557
2441.0,0.012780770091995297
2440.0,0.012825498912458322
2439.0,0.012870232340102872
2438.0,0.012914970375878188
2437.0,0.013004460275618523
2436.0,0.013049212141483357
2435.0,0.012959713020733288
2434.0,0.012825498912458322
2433.0,0.012691326268817527
2432.0,0.01264661126420652
2431.0,0.012691326268817527
2430.0,0.012780770091995297
2429.0,0.012870232340102872
2428.0,0.013004460275618523
2427.0,0.013138729709955221
2426.0,0.01318349541446362
2425.0,0.013138729709955221
2424.0,0.013049212141483357
2423.0,0.013004460275618523
2422.0,0.013004460275618523
2421.0,0.013049212141483357
2420.0,0.013138729709955221
2419.0,0.01318349541446362
2418.0,0.013138729709955221
2417.0,0.013049212141483357
2416.0,0.013004460275618523
2415.0,0.013004460275618523
2414.0,0.013049212141483357
2413.0,0.01318349541446362
2412.0,0.01322826573375524
2411.0,0.013273040668781544
2410.0,0.013273040668781544
2409.0,0.013273040668781544
2408.0,0.01322826573375524
2407.0,0.01318349541446362
2406.0,0.01322826573375524
2405.0,0.013317820220494436
2404.0,0.013362604389846044
2403.0,0.013452186585275916
2402.0,0.013452186585275916
2401.0,0.013496984613259544
2400.0,0.013586594534531482
2399.0,0.013631406429727155
2398.0,0.013586594534531482
2397.0,0.013496984613259544
2396.0,0.013362604389846044
2395.0,0.013273040668781544
2394.0,0.01318349541446362
2393.0,0.013138729709955221
2392.0,0.013093968619278806
2391.0,0.01318349541446362
2390.0,0.013317820220494436
2389.0,0.013541787262693505
2388.0,0.013676222949234651
2387.0,0.01372104409400876
2386.0,0.013631406429727155
2385.0,0.013496984613259544
2384.0,0.013407393177789162
2383.0,0.013317820220494436
2382.0,0.01322826573375524
2381.0,0.013138729709955221
2380.0,0.013049212141483357
2379.0,0.012959713020733288
2378.0,0.012870232340102872
2377.0,0.012736045877764557
2376.0,0.012512493866907004
2375.0,0.012244383261476699
2374.0,0.0119764380713403
2373.0,0.011887159731648111
2372.0,0.012021084124518078
2371.0,0.012378417874516323
2370.0,0.012870232340102872
2369.0,0.013586594534531482
2368.0,0.014573525916998342
2367.0,0.015562705203923999
2366.0,0.016193358021584725
2365.0,0.01632861713980338
2364.0,0.015832872853011715
2363.0,0.014708281407112
2362.0,0.01322826573375524
2361.0,0.01215504982870197
2360.0,0.012021084124518078
2359.0,0.01264661126420652
2358.0,0.013407393177789162
2357.0,0.013631406429727155
2356.0,0.01322826573375524
2355.0,0.01260190086298274
2354.0,0.01215504982870197
2353.0,0.012244383261476699
2352.0,0.01260190086298274
2351.0,0.012914970375878188
2350.0,0.012914970375878188
2349.0,0.012691326268817527
2348.0,0.012467797270160563
2347.0,0.012557195064198723
2346.0,0.012959713020733288
2345.0,0.01322826573375524
2344.0,0.012959713020733288
2343.0,0.012423105273012602
2342.0,0.012244383261476699
2341.0,0.012423105273012602
2340.0,0.012378417874516323
2339.0,0.011931796607364653
2338.0,0.011351874764248926
2337.0,0.010950843561779777
2336.0,0.01077272626946324
2335.0,0.01077272626946324
2334.0,0.01077272626946324
2333.0,0.011084479487313281
2332.0,0.011619434777991433
2331.0,0.012244383261476699
2330.0,0.012557195064198723
2329.0,0.01264661126420652
2328.0,0.01264661126420652
2327.0,0.012780770091995297
2326.0,0.013049212141483357
2325.0,0.013362604389846044
2324.0,0.013496984613259544
2323.0,0.013317820220494436
2322.0,0.013004460275618523
2321.0,0.012914970375878188
2320.0,0.01318349541446362
2319.0,0.013631406429727155
2318.0,0.013945219230304673
2317.0,0.01403492169512921
2316.0,0.013945219230304673
2315.0,0.013900374944870508
2314.0,0.01385553528947936
2313.0,0.013945219230304673
2312.0,0.014124642691606404
2311.0,0.014304140310157809
2310.0,0.014393916947563534
2309.0,0.014438812226654996
2308.0,0.01452861671041239
2307.0,0.014753209197138295
2306.0,0.014977917890464765
2305.0,0.015157768594724175
2304.0,0.015202742910707112
2303.0,0.015247721884586563
2302.0,0.015292705517326866
2301.0,0.015337693809893471
2300.0,0.015337693809893471
2299.0,0.015337693809893471
2298.0,0.015292705517326866
2297.0,0.015337693809893471
2296.0,0.015427684378367834
2295.0,0.015562705203923999
2294.0,0.015652742414136167
2293.0,0.015742798294583915
2292.0,0.015742798294583915
2291.0,0.015742798294583915
2290.0,0.015832872853011715
2289.0,0.016013078034810446
2288.0,0.016148281008528276
2287.0,0.016238439713835096
2286.0,0.016238439713835096
2285.0,0.016238439713835096
2284.0,0.01632861713980338
2283.0,0.016418813294209356
2282.0,0.016509028184833463
2281.0,0.016509028184833463
2280.0,0.01646391839700767
2279.0,0.016418813294209356
2278.0,0.016418813294209356
2277.0,0.01646391839700767
2276.0,0.01646391839700767
2275.0,0.016418813294209356
2274.0,0.016373712875465518
2273.0,0.016373712875465518
2272.0,0.016373712875465518
2271.0,0.016373712875465518
2270.0,0.016418813294209356
2269.0,0.01646391839700767
2268.0,0.016554142658660398
2267.0,0.016644385668211692
2266.0,0.016734647433454652
2265.0,0.016734647433454652
2264.0,0.016689514205884493
2263.0,0.016599261819461697
2262.0,0.016509028184833463
2261.0,0.01646391839700767
2260.0,0.01646391839700767
2259.0,0.016509028184833463
2258.0,0.016554142658660398
2257.0,0.016599261819461697
2256.0,0.016599261819461697
2255.0,0.016644385668211692
2254.0,0.016644385668211692
2253.0,0.016644385668211692
2252.0,0.016644385668211692
2251.0,0.016644385668211692
2250.0,0.016644385668211692
2249.0,0.016644385668211692
2248.0,0.016599261819461697
2247.0,0.016554142658660398
2246.0,0.016509028184833463
2245.0,0.01646391839700767
2244.0,0.01646391839700767
2243.0,0.01646391839700767
2242.0,0.016418813294209356
2241.0,0.01632861713980338
2240.0,0.016238439713835096
2239.0,0.016193358021584725
2238.0,0.016193358021584725
2237.0,0.016193358021584725
2236.0,0.016148281008528276
2235.0,0.016103208673694303
2234.0,0.016148281008528276
2233.0,0.016238439713835096
2232.0,0.016373712875465518
2231.0,0.01646391839700767
2230.0,0.016418813294209356
2229.0,0.01628352608625061
2228.0,0.016103208673694303
2227.0,0.01596801972881945
2226.0,0.015922966097169144
2225.0,0.015877917138889863
2224.0,0.015922966097169144
2223.0,0.01596801972881945
2222.0,0.016013078034810446
2221.0,0.016013078034810446
2220.0,0.01596801972881945
2219.0,0.015832872853011715
2218.0,0.01578783323856614
2217.0,0.015742798294583915
2216.0,0.015742798294583915
2215.0,0.015742798294583915
2214.0,0.015697768020096703
2213.0,0.015607721475734415
2212.0,0.015562705203923999
2211.0,0.015562705203923999
2210.0,0.015607721475734415
2209.0,0.015652742414136167
2208.0,0.015652742414136167
2207.0,0.015607721475734415
2206.0,0.015517693597737248
2205.0,0.01547268665620738
2204.0,0.015517693597737248
2203.0,0.015562705203923999
2202.0,0.015607721475734415
2201.0,0.015652742414136167
2200.0,0.015652742414136167
2199.0,0.015562705203923999
2198.0,0.015427684378367834
2197.0,0.015292705517326866
2196.0,0.015202742910707112
2195.0,0.015247721884586563
2194.0,0.015292705517326866
2193.0,0.01538268676325183
2192.0,0.01538268676325183
2191.0,0.015292705517326866
2190.0,0.015202742910707112
2189.0,0.015157768594724175
2188.0,0.015202742910707112
2187.0,0.015292705517326866
2186.0,0.015292705517326866
2185.0,0.015292705517326866
2184.0,0.015247721884586563
2183.0,0.015247721884586563
2182.0,0.015202742910707112
2181.0,0.015157768594724175
2180.0,0.015112798935672522
2179.0,0.015157768594724175
2178.0,0.015112798935672522
2177.0,0.015112798935672522
2176.0,0.015022873584506602
2175.0,0.014932966849499074
2174.0,0.014932966849499074
2173.0,0.014977917890464765
2172.0,0.015067833932588037
2171.0,0.015112798935672522
2170.0,0.015067833932588037
2169.0,0.014977917890464765
2168.0,0.014843078722943437
2167.0,0.014753209197138295
2166.0,0.014663358264387139
2165.0,0.014663358264387139
2164.0,0.014708281407112
2163.0,0.014753209197138295
2162.0,0.014798141635428141
2161.0,0.014798141635428141
2160.0,0.014753209197138295
2159.0,0.014708281407112
2158.0,0.014618439768003144
2157.0,0.014573525916998342
2156.0,0.014573525916998342
2155.0,0.01452861671041239
2154.0,0.01452861671041239
2153.0,0.0144837121472845
2152.0,0.014438812226654996
2151.0,0.014393916947563534
2150.0,0.014393916947563534
2149.0,0.014349026309051105
2148.0,0.014304140310157809
2147.0,0.014259258949925524
2146.0,0.014214382227394795
2145.0,0.014214382227394795
2144.0,0.014259258949925524
2143.0,0.014304140310157809
2142.0,0.014304140310157809
2141.0,0.014304140310157809
2140.0,0.014259258949925524
2139.0,0.014259258949925524
2138.0,0.014259258949925524
2137.0,0.014304140310157809
2136.0,0.014304140310157809
2135.0,0.014304140310157809
2134.0,0.014304140310157809
2133.0,0.014304140310157809
2132.0,0.014304140310157809
2131.0,0.014259258949925524
2130.0,0.014214382227394795
2129.0,0.014214382227394795
2128.0,0.014214382227394795
2127.0,0.014259258949925524
2126.0,0.014259258949925524
2125.0,0.014214382227394795
2124.0,0.014124642691606404
2123.0,0.014124642691606404
2122.0,0.014169510141607944
2121.0,0.014169510141607944
2120.0,0.014169510141607944
2119.0,0.014169510141607944
2118.0,0.014169510141607944
2117.0,0.014214382227394795
2116.0,0.014259258949925524
2115.0,0.014259258949925524
2114.0,0.014304140310157809
2113.0,0.014304140310157809
2112.0,0.014259258949925524
2111.0,0.014214382227394795
2110.0,0.014124642691606404
2109.0,0.014079779876432497
2108.0,0.01403492169512921
2107.0,0.013945219230304673
2106.0,0.013900374944870508
2105.0,0.013900374944870508
2104.0,0.013945219230304673
2103.0,0.013945219230304673
2102.0,0.013990068146738865
2101.0,0.013945219230304673
2100.0,0.013900374944870508
2099.0,0.01385553528947936
2098.0,0.01385553528947936
2097.0,0.013900374944870508
2096.0,0.013945219230304673
2095.0,0.01403492169512921
2094.0,0.01403492169512921
2093.0,0.01403492169512921
2092.0,0.01403492169512921
2091.0,0.01403492169512921
2090.0,0.013945219230304673
2089.0,0.01381070026317599
2088.0,0.013676222949234651
2087.0,0.013586594534531482
2086.0,0.013541787262693505
2085.0,0.013586594534531482
2084.0,0.013586594534531482
2083.0,0.013586594534531482
2082.0,0.013541787262693505
2081.0,0.013496984613259544
2080.0,0.013496984613259544
2079.0,0.013586594534531482
2078.0,0.013676222949234651
2077.0,0.013765869865004277
2076.0,0.013765869865004277
2075.0,0.01372104409400876
2074.0,0.013676222949234651
2073.0,0.013586594534531482
2072.0,0.013452186585275916
2071.0,0.013362604389846044
2070.0,0.01322826573375524
2069.0,0.01322826573375524
2068.0,0.013273040668781544
2067.0,0.013317820220494436
2066.0,0.013407393177789162
2065.0,0.013452186585275916
2064.0,0.013541787262693505
2063.0,0.013586594534531482
2062.0,0.013586594534531482
2061.0,0.013586594534531482
2060.0,0.013586594534531482
2059.0,0.013541787262693505
2058.0,0.013541787262693505
2057.0,0.013452186585275916
2056.0,0.013362604389846044
2055.0,0.013273040668781544
2054.0,0.01322826573375524
2053.0,0.01318349541446362
2052.0,0.013138729709955221
2051.0,0.013093968619278806
2050.0,0.013049212141483357
2049.0,0.013049212141483357
2048.0,0.013049212141483357
2047.0,0.013049212141483357
2046.0,0.013004460275618523
2045.0,0.012914970375878188
2044.0,0.012870232340102872
2043.0,0.012780770091995297
2042.0,0.012736045877764557
2041.0,0.012691326268817527
2040.0,0.012691326268817527
2039.0,0.01264661126420652
2038.0,0.01260190086298274
2037.0,0.012557195064198723
2036.0,0.012557195064198723
2035.0,0.012512493866907004
2034.0,0.012467797270160563
2033.0,0.012467797270160563
2032.0,0.012423105273012602
2031.0,0.012378417874516323
2030.0,0.012333735073725371
2029.0,0.012378417874516323
2028.0,0.012423105273012602
2027.0,0.012423105273012602
2026.0,0.012378417874516323
2025.0,0.012289056869694281
2024.0,0.012244383261476699
2023.0,0.01215504982870197
2022.0,0.012110390002254778
2021.0,0.012065734767841452
2020.0,0.012021084124518078
2019.0,0.0119764380713403
2018.0,0.012021084124518078
2017.0,0.012021084124518078
2016.0,0.0119764380713403
2015.0,0.011931796607364653
2014.0,0.011887159731648111
2013.0,0.011842527443247208
2012.0,0.011842527443247208
2011.0,0.011842527443247208
2010.0,0.011842527443247208
2009.0,0.011797899741219142
2008.0,0.011753276624621556
2007.0,0.011619434777991433
2006.0,0.011574829993696856
2005.0,0.011485634166333858
2004.0,0.011485634166333858
2003.0,0.011396456654336085
2002.0,0.011396456654336085
2001.0,0.011396456654336085
2000.0,0.011441043121384498
1999.0,0.011485634166333858
1998.0,0.011530229790124524
1997.0,0.011530229790124524
1996.0,0.011530229790124524
1995.0,0.011574829993696856
1994.0,0.011619434777991433
1993.0,0.011664044143949504
1992.0,0.011708658092512314
1991.0,0.011664044143949504
1990.0,0.011574829993696856
1989.0,0.011441043121384498
1988.0,0.011307297450183107
1987.0,0.011218156546359825
1986.0,0.01117359295472431
1985.0,0.01117359295472431
1984.0,0.011262724711199823
1983.0,0.011262724711199823
1982.0,0.011218156546359825
1981.0,0.01117359295472431
1980.0,0.011084479487313281
1979.0,0.011039929609661936
1978.0,0.010995384301463185
1977.0,0.010995384301463185
1976.0,0.011039929609661936
1975.0,0.011084479487313281
1974.0,0.011129033935354915
1973.0,0.011129033935354915
1972.0,0.011129033935354915
1971.0,0.011129033935354915
1970.0,0.011039929609661936
1969.0,0.011039929609661936
1968.0,0.011039929609661936
1967.0,0.011129033935354915
1966.0,0.011129033935354915
1965.0,0.011084479487313281
1964.0,0.010995384301463185
1963.0,0.010950843561779777
1962.0,0.010906307389674463
1961.0,0.010950843561779777
1960.0,0.010995384301463185
1959.0,0.011039929609661936
1958.0,0.011039929609661936
1957.0,0.011039929609661936
1956.0,0.010995384301463185
1955.0,0.010995384301463185
1954.0,0.010950843561779777
1953.0,0.010950843561779777
1952.0,0.010950843561779777
1951.0,0.01086177578421088
1950.0,0.010817248744452446
1949.0,0.010728208358306901
1948.0,0.010728208358306901
1947.0,0.010728208358306901
1946.0,0.01077272626946324
1945.0,0.010817248744452446
1944.0,0.01086177578421088
1943.0,0.01086177578421088
1942.0,0.010728208358306901
1941.0,0.010594681998483901
1940.0,0.01046119667949763
1939.0,0.01037222925484893
1938.0,0.010283280051895272
1937.0,0.010194349063173958
1936.0,0.010149890396819572
1935.0,0.010149890396819572
1934.0,0.010194349063173958
1933.0,0.01023881228122181
1932.0,0.01023881228122181
1931.0,0.010194349063173958
1930.0,0.010105436281226954
1929.0,0.01001654169860089
1928.0,0.009972101229705377
1927.0,0.009972101229705377
1926.0,0.01001654169860089
1925.0,0.010060986715464404
1924.0,0.010060986715464404
1923.0,0.009972101229705377
1922.0,0.009927665307847056
1921.0,0.009927665307847056
1920.0,0.010060986715464404
1919.0,0.010105436281226954
1918.0,0.01001654169860089
1917.0,0.009838807101520963
1916.0,0.009705553871561357
1915.0,0.00966114521239847
1914.0,0.00966114521239847
1913.0,0.009572341514736404
1912.0,0.009483555971770974
1911.0,0.009439170005980158
1910.0,0.009439170005980158
1909.0,0.009483555971770974
1908.0,0.009483555971770974
1907.0,0.009483555971770974
1906.0,0.00939478857608056
1905.0,0.009306039320248427
1904.0,0.009217308196862062
1903.0,0.009217308196862062
1902.0,0.009217308196862062
1901.0,0.009172949432521227
1900.0,0.00908424549391551
1899.0,0.008951223547323472
1898.0,0.008818242332126802
1897.0,0.008773924307505121
1896.0,0.008818242332126802
1895.0,0.008818242332126802
1894.0,0.008818242332126802
1893.0,0.008818242332126802
1892.0,0.008862564879688284
1891.0,0.008862564879688284
1890.0,0.008906891951112605
1889.0,0.008818242332126802
1888.0,0.0087296108049002
1887.0,0.008685301823389224
1886.0,0.008640997362049818
1885.0,0.008596697419959609
1884.0,0.008596697419959609
1883.0,0.008552401996197112
1882.0,0.00850811108984062
1881.0,0.008463824699968647
1880.0,0.008419542825660153
1879.0,0.008419542825660153
1878.0,0.008419542825660153
1877.0,0.008463824699968647
1876.0,0.00850811108984062
1875.0,0.008463824699968647
1874.0,0.008375265465994541
1873.0,0.008286724286910463
1872.0,0.008286724286910463
1871.0,0.008286724286910463
1870.0,0.008198201155356077
1869.0,0.008109696063975047
1868.0,0.008065450281052211
1867.0,0.008065450281052211
1866.0,0.008109696063975047
1865.0,0.008153946355103248
1864.0,0.008198201155356077
1863.0,0.008198201155356077
1862.0,0.008198201155356077
1861.0,0.008153946355103248
1860.0,0.008109696063975047
1859.0,0.008021209005416363
1858.0,0.007976972236149349
1857.0,0.007932739972333236
1856.0,0.007932739972333236
1855.0,0.007888512213050314
1854.0,0.007844288957383316
1853.0,0.007755855953228474
1852.0,0.00762324020119709
1851.0,0.007534852191956709
1850.0,0.007534852191956709
1849.0,0.00762324020119709
1848.0,0.007755855953228474
1847.0,0.007932739972333236
1846.0,0.008065450281052211
1845.0,0.008021209005416363
1844.0,0.007667440952535687
1843.0,0.007358130121602358
1842.0,0.007225635744644521
1841.0,0.007313960837872058
1840.0,0.007402303897961815
1839.0,0.007313960837872058
1838.0,0.007225635744644521
1837.0,0.007181479933320523
1836.0,0.007181479933320523
1835.0,0.007137328610972382
1834.0,0.007093181776687496
1833.0,0.007137328610972382
1832.0,0.007181479933320523
1831.0,0.007181479933320523
1830.0,0.00696076819309055
1829.0,0.006651960076740071
1828.0,0.006651960076740071
1827.0,0.006872514894289861
1826.0,0.007049039429553483
1825.0,0.007004901568658406
1824.0,0.006784279525863024
1823.0,0.006607862550997545
1822.0,0.006519680930003435
1821.0,0.006475596832934416
1820.0,0.006431517210272464
1819.0,0.006431517210272464
1818.0,0.006475596832934416
1817.0,0.006475596832934416
1816.0,0.006431517210272464
1815.0,0.006299305179649828
1814.0,0.00621118618129457
1813.0,0.00612308505878878
1812.0,0.006079041198713275
1811.0,0.005990966876386672
1810.0,0.005814871797682919
1809.0,0.005682847330363394
1808.0,0.005638848091999105
1807.0,0.005594853310833647
1806.0,0.005550862985963967
1805.0,0.005462895701502157
1804.0,0.005462895701502157
1803.0,0.00541891874010525
1802.0,0.00541891874010525
1801.0,0.005330978174470591
1800.0,0.005199100705396198
1799.0,0.005023326350308999
1798.0,0.004935465843858511
1797.0,0.005023326350308999
1796.0,0.005155150446602086
1795.0,0.0052870145684298375
1794.0,0.0052870145684298375
1793.0,0.005067263269958211
1792.0,0.004803708402820517
1791.0,0.004628093971837721
1790.0,0.004628093971837721
1789.0,0.004759798137184523
1788.0,0.004803708402820517
1787.0,0.004759798137184523
1786.0,0.004671990922590297
1785.0,0.00458420145758498
1784.0,0.0044964297349936455
1783.0,0.004452550524862486
1782.0,0.0043648054024501
1781.0,0.004233220950025984
1780.0,0.0040578370074493275
1779.0,0.003970171588923321
1778.0,0.003926345514724705
1777.0,0.003926345514724705
1776.0,0.003926345514724705
1775.0,0.003970171588923321
1774.0,0.003970171588923321
1773.0,0.0036634819042162814
1772.0,0.0031819781204844855
1771.0,0.0029195645282691363
1770.0,0.0031819781204844855
1769.0,0.003707281458678491
1768.0,0.004101676353562844
1767.0,0.004145520125434121
1766.0,0.0040578370074493275
1765.0,0.004101676353562844
1764.0,0.004277078004534696
1763.0,0.0043648054024501
1762.0,0.004320939488377862
1761.0,0.004189368323957332
1760.0,0.004233220950025984
1759.0,0.004452550524862486
1758.0,0.004759798137184523
1757.0,0.004979393875242044
1756.0,0.005111204635089406
1755.0,0.00541891874010525
1754.0,0.005858888873877532
1753.0,0.006387442061109638
1752.0,0.00696076819309055
1751.0,0.007490664932224611
1750.0,0.008021209005416363
1749.0,0.0087296108049002
1748.0,0.009527946474380489
1747.0,0.01037222925484893
1746.0,0.011262724711199823
1745.0,0.012289056869694281
1744.0,0.013631406429727155
1743.0,0.015022873584506602
1742.0,0.016373712875465518
1741.0,0.017955020928509757
1740.0,0.01990568621470623
1739.0,0.021910826943857264
1738.0,0.02355831062115543
1737.0,0.02512002699306959
1736.0,0.02691835039863255
1735.0,0.029560137048236124
1734.0,0.03282657704446046
1733.0,0.03512779136222477
1732.0,0.036873558918095295
1731.0,0.038721320914956836
1730.0,0.04076775094900409
1729.0,0.04268010314465909
1728.0,0.044360346976747955
1727.0,0.04580574818413763
1726.0,0.04720755695590784
1725.0,0.048808242065293994
1724.0,0.0506099933550872
1723.0,0.05227227303668425
1722.0,0.053449489430144714
1721.0,0.054186873412661596
1720.0,0.054876229877880656
1719.0,0.055961719945581745
1718.0,0.05794231615860479
1717.0,0.060081579630943294
1716.0,0.061580354206806964
1715.0,0.06253226035662252
1714.0,0.06313454102437754
1713.0,0.06338573802478864
1712.0,0.06323500239005853
1711.0,0.06283329628496737
1710.0,0.06223143295006417
1709.0,0.061380218497318895
1708.0,0.06038092104330195
1707.0,0.05943371350990989
1706.0,0.058538260652670315
1705.0,0.05769424710410598
1704.0,0.05685187064143715
1703.0,0.05606053552778367
1702.0,0.055122694036304765
1701.0,0.05423607688882637
1700.0,0.05340037498486727
1699.0,0.05237025261564554
1698.0,0.05178270644002936
1697.0,0.05163594401163074
1696.0,0.05148923116234294
1695.0,0.05095170768433621
1694.0,0.050414848673348
1693.0,0.050171041064686284
1692.0,0.049927370249842395
1691.0,0.04953778109440221
1690.0,0.049294465226138895
1689.0,0.049245818406496555
1688.0,0.049245818406496555
1687.0,0.04905128560059957
1686.0,0.04871106272232795
1685.0,0.049245818406496555
1684.0,0.05065879322950262
1683.0,0.051244819831730126
1682.0,0.0515870342213991
1681.0,0.05207638016827354
1680.0,0.052468254304406825
1679.0,0.05261529831525902
1678.0,0.05256627811294923
1677.0,0.05256627811294923
1676.0,0.05305672930217464
1675.0,0.05374429280060267
1674.0,0.05413767551038262
1673.0,0.05428528594013993
1672.0,0.05453141486818014
1671.0,0.05502409158795207
1670.0,0.05586292684190197
1669.0,0.05670338543334519
1668.0,0.05729763111133224
1667.0,0.0575950591438934
1666.0,0.05764465029232335
1665.0,0.0575950591438934
1664.0,0.05794231615860479
1663.0,0.05868737463933793
1662.0,0.05953332233647113
1661.0,0.060081579630943294
1660.0,0.060530669156469985
1659.0,0.060880282351513104
1658.0,0.06098022355133348
1657.0,0.06078036414518184
1656.0,0.06058059667068294
1655.0,0.06063052992534024
1654.0,0.06318476880236723
1653.0,0.06798309356579857
1652.0,0.07007043991541217
1651.0,0.07063217075990047
1650.0,0.07114346641808922
1649.0,0.07191154033502922
1648.0,0.07448164182257
1647.0,0.07951143534170213
1646.0,0.08428366205400617
1645.0,0.08714052483764512
1644.0,0.08942895151874142
1643.0,0.09183679994445204
1642.0,0.09474395125154866
1641.0,0.09783387072894878
1640.0,0.10067205012234592
1639.0,0.10297804393963661
1638.0,0.10479852522110678
1637.0,0.10695988804288215
1636.0,0.10963487855187593
1635.0,0.11030620855581463
1634.0,0.1082953237608173
1633.0,0.10513034325474746
1632.0,0.10149421446564144
1631.0,0.09761631556752848
1630.0,0.09361107884716913
1629.0,0.08985603893548699
1628.0,0.08655704514060414
1627.0,0.08375666953466032
1626.0,0.08134070657817682
1625.0,0.07893810920972144
1624.0,0.07665234350217442
1623.0,0.07463633264589853
1622.0,0.07288638806623937
1621.0,0.0713481533463054
1620.0,0.0699173666076287
1619.0,0.0684912781333824
1618.0,0.06732334137759932
1617.0,0.06646209802829528
1616.0,0.06575411897692884
1615.0,0.06504729218214189
1614.0,0.06434161389936577
1613.0,0.06348625752110681
1612.0,0.06253226035662252
1611.0,0.06153031163235467
1610.0,0.06063052992534024
1609.0,0.05968277842578207
1608.0,0.05868737463933793
1607.0,0.057743849580535134
1606.0,0.05690137699451481
1605.0,0.05601112492622806
1604.0,0.055172003656783764
1603.0,0.05443294655761144
1602.0,0.053646002773725554
1601.0,0.05271335532220167
1600.0,0.05173378011970464
1599.0,0.05075640943173498
1598.0,0.049927370249842395
1597.0,0.04905128560059957
1596.0,0.048225491918274965
1595.0,0.04749815213697639
1594.0,0.04672366333269573
1593.0,0.04595055323640551
1592.0,0.0451788169482068
1591.0,0.044456557540257124
1590.0,0.0437835307566099
1589.0,0.04315950984076644
1588.0,0.04248848854552012
1587.0,0.04186632432376469
1586.0,0.041436116778032606
1585.0,0.04105406750606355
1584.0,0.04086316882962593
1583.0,0.04091088563260792
1582.0,0.04105406750606355
1581.0,0.041149548320321694
1580.0,0.041197296600497646
1579.0,0.041149548320321694
1578.0,0.04105406750606355
1577.0,0.04091088563260792
1576.0,0.04057697805689475
1575.0,0.04010041213405646
1574.0,0.03962436858984186
1573.0,0.03924390909822728
1572.0,0.03857890593355173
1571.0,0.03777276864991497
1570.0,0.037062711569998186
1569.0,0.036542739883292485
1568.0,0.03616496929785207
1567.0,0.03597620715996652
1566.0,0.035740369803151095
1565.0,0.03541041251009669
1564.0,0.03503362516890207
1563.0,0.03470420418834386
1562.0,0.03442204208947208
1561.0,0.03385826726096752
1560.0,0.033295223342125535
1559.0,0.0332483359486222
1558.0,0.03245202378113787
1557.0,0.03189079887180224
1556.0,0.03193753992355086
1555.0,0.03184406285002961
1554.0,0.03147035562516054
1553.0,0.03105031901865729
1552.0,0.030770520137356927
1551.0,0.03067729388779794
1550.0,0.03063068826647264
1549.0,0.030444315779156517
1548.0,0.030118356253500123
1547.0,0.029792641193145286
1546.0,0.02960662792039992
1545.0,0.029560137048236124
1544.0,0.02960662792039992
1543.0,0.02960662792039992
1542.0,0.029467170231675777
1541.0,0.02960662792039992
1540.0,0.029839156962686353
1539.0,0.029653123769906697
1538.0,0.029746130405213123
1537.0,0.030164906924202484
1536.0,0.030537492025363155
1535.0,0.03081714076773867
1534.0,0.03133029827960798
1533.0,0.031984286006358165
1532.0,0.03240522732811035
1531.0,0.03263926003405038
1530.0,0.03273290844021437
1529.0,0.03273290844021437
1528.0,0.03273290844021437
1527.0,0.03273290844021437
1526.0,0.03263926003405038
1525.0,0.03217132066984485
1524.0,0.03151705144606498
1523.0,0.0307239045110681
1522.0,0.029885677714903025
1521.0,0.029002634427514717
1520.0,0.028214062120885508
1519.0,0.0277045713888604
1518.0,0.02710321556345563
1517.0,0.026318081496016443
1516.0,0.025488307262671706
1515.0,0.02484402159331056
1514.0,0.02438440203310499
1513.0,0.023971159908874107
1512.0,0.023604163388120325
1511.0,0.02342078135989012
1510.0,0.02351246269481
1509.0,0.023879381700184332
1508.0,0.02516604495145991
1507.0,0.02747318213414429
1506.0,0.02863136320857662
1505.0,0.02839947976994095
1504.0,0.028075050815808744
1503.0,0.027658283674251827
1502.0,0.027010773144651168
1501.0,0.02613355016462182
1500.0,0.025258095499050004
1499.0,0.024476287039668643
1498.0,0.023787622882622816
1497.0,0.023191662661933732
1496.0,0.02259651912656535
1495.0,0.022093572362881675
1494.0,0.021865152601710403
1493.0,0.021728158389364705
1492.0,0.021636852916117055
1491.0,0.021545566634771474
1490.0,0.021636852916117055
1489.0,0.021819483062586187
1488.0,0.021956506090037076
1487.0,0.02204787879853809
1486.0,0.022093572362881675
1485.0,0.0221849739168134
1484.0,0.02227639471115217
1483.0,0.022413561996148967
1482.0,0.022688026603074007
1481.0,0.02296266477531872
1480.0,0.023237476732539397
1479.0,0.023374947949272418
1478.0,0.02342078135989012
1477.0,0.02342078135989012
1476.0,0.023329119375188556
1475.0,0.02314585342378117
1474.0,0.02291687968414724
1473.0,0.022688026603074007
1472.0,0.02245929405346514
1471.0,0.0221849739168134
1470.0,0.02204787879853809
1469.0,0.02204787879853809
1468.0,0.022093572362881675
1467.0,0.022139270735302752
1466.0,0.022367834754000393
1465.0,0.02277955336461468
1464.0,0.023283295636617574
1463.0,0.023695883447997224
1462.0,0.024108863598207186
1461.0,0.024522236834125355
1460.0,0.024890010313838973
1459.0,0.02539620791296726
1458.0,0.026502691267936695
1457.0,0.02798240132598462
1456.0,0.02890978686288448
1455.0,0.02932775731028059
1454.0,0.02969962459782227
1453.0,0.030071810571884017
1452.0,0.030397735151460825
1451.0,0.03067729388779794
1450.0,0.03105031901865729
1449.0,0.031657169041054534
1448.0,0.03240522732811035
1447.0,0.033154576345083564
1446.0,0.03385826726096752
1445.0,0.03456310022373987
1444.0,0.035363296211498474
1443.0,0.03621217265444465
1442.0,0.0369681249461018
1441.0,0.037583306554248797
1440.0,0.03800971255993524
1439.0,0.038151940981675736
1438.0,0.03796231343498735
1437.0,0.037346595106788616
1436.0,0.03621217265444465
1435.0,0.03470420418834386
1434.0,0.033201453616638954
1433.0,0.031657169041054534
1432.0,0.029978734171634214
1431.0,0.028306761050139073
1430.0,0.026687379547098322
1429.0,0.025304128090317013
1428.0,0.024246610963712723
1427.0,0.023374947949272418
1426.0,0.022733787572707387
1425.0,0.022093572362881675
1424.0,0.02159120737696063
1423.0,0.021317434843055594
1422.0,0.0211806132671577
1421.0,0.0211806132671577
1420.0,0.02140867317992523
1419.0,0.02204787879853809
1418.0,0.02296266477531872
1417.0,0.02406295751688936
1416.0,0.02539620791296726
1415.0,0.027149444152769986
1414.0,0.02932775731028059
1413.0,0.032124554451966825
1412.0,0.03531618502395939
1411.0,0.038341651362284734
1410.0,0.040672354027829094
1409.0,0.042057664554595586
1408.0,0.04253638427006878
1407.0,0.04215336629184985
1406.0,0.041149548320321694
1405.0,0.039719535563357944
1404.0,0.03810452633214956
1403.0,0.03649550058570927
1402.0,0.03503362516890207
1401.0,0.03371743783253667
1400.0,0.032545631817259224
1399.0,0.031563752288295444
1398.0,0.0307239045110681
1397.0,0.03002526987828502
1396.0,0.02932775731028059
1395.0,0.028538594975413334
1394.0,0.027750864037404455
1393.0,0.02696455931306696
1392.0,0.026318081496016443
1391.0,0.025810808881832736
1390.0,0.025304128090317013
1389.0,0.024890010313838973
1388.0,0.024568191490736968
1387.0,0.024338466818941473
1386.0,0.024108863598207186
1385.0,0.023925268380126097
1384.0,0.023787622882622816
1383.0,0.023741750742954926
1382.0,0.023833499868024743
1381.0,0.024108863598207186
1380.0,0.024522236834125355
1379.0,0.025074013910237447
1378.0,0.02562649291857677
1377.0,0.02613355016462182
1376.0,0.02664120011360227
1375.0,0.02724191609646076
1374.0,0.027843464140506313
1373.0,0.028306761050139073
1372.0,0.028538594975413334
1371.0,0.02858497661500481
1370.0,0.02849221828874393
1369.0,0.028214062120885508
1368.0,0.027658283674251827
1367.0,0.02691835039863255
1366.0,0.025995203102585407
1365.0,0.02498200236711723
1364.0,0.023879381700184332
1363.0,0.022688026603074007
1362.0,0.0214542995372613
1361.0,0.02022406727031445
1360.0,0.0190880622231564
1359.0,0.018136109008649592
1358.0,0.017321806616515723
1357.0,0.016689514205884493
1356.0,0.016238439713835096
1355.0,0.015877917138889863
1354.0,0.015652742414136167
1353.0,0.015427684378367834
1352.0,0.015337693809893471
1351.0,0.015292705517326866
1350.0,0.015427684378367834
1349.0,0.015652742414136167
1348.0,0.016013078034810446
1347.0,0.01646391839700767
1346.0,0.016960383953898095
1345.0,0.017502630802287644
1344.0,0.018045555530026514
1343.0,0.018634490921455527
1342.0,0.0192242260373785
1341.0,0.019814763052665052
1340.0,0.02022406727031445
1339.0,0.02026956933771462
1338.0,0.01990568621470623
1337.0,0.019133445417920836
1336.0,0.018136109008649592
1335.0,0.017050711425501408
1334.0,0.016013078034810446
1333.0,0.015157768594724175
1332.0,0.0144837121472845
1331.0,0.014079779876432497
1330.0,0.01385553528947936
1329.0,0.01381070026317599
1328.0,0.013945219230304673
1327.0,0.014169510141607944
1326.0,0.0144837121472845
1325.0,0.014888020460646079
1324.0,0.015292705517326866
1323.0,0.015742798294583915
1322.0,0.016193358021584725
1321.0,0.016689514205884493
1320.0,0.017186237868137555
1319.0,0.017774008325325275
1318.0,0.018362575344230914
1317.0,0.018906576854070378
1316.0,0.01940584422377989
1315.0,0.01995115493504329
1314.0,0.02045162529590483
1313.0,0.021043834782408455
1312.0,0.021636852916117055
1311.0,0.022230681908425698
1310.0,0.022871099419317753
1309.0,0.02355831062115543
1308.0,0.024292536462819925
1307.0,0.025074013910237447
1306.0,0.025764722556973707
1305.0,0.026456531467510258
1304.0,0.027195677663422346
1303.0,0.02812138297373412
1302.0,0.029141943003497595
1301.0,0.030351159519274695
1300.0,0.031657169041054534
1299.0,0.033201453616638954
1298.0,0.03489241415094413
1297.0,0.03668448861388862
1296.0,0.038531444649213764
1295.0,0.0402909757535701
1294.0,0.04200982159316968
1293.0,0.04363944632667782
1292.0,0.04527520902093718
1291.0,0.04682039893436585
1290.0,0.04832256265669943
1289.0,0.04978123335813667
1288.0,0.05114709380028648
1287.0,0.05237025261564554
1286.0,0.0534986094304124
1285.0,0.05448217792216048
1284.0,0.05531996611868961
1283.0,0.05610995175152733
1282.0,0.0567528748621382
1281.0,0.05734718830678798
1280.0,0.05794231615860479
1279.0,0.05848856736559682
1278.0,0.058936011780097886
1277.0,0.05948351506743288
1276.0,0.060131455540490375
1275.0,0.06093025007657582
1274.0,0.06193081377661436
1273.0,0.06318476880236723
1272.0,0.06474471821595262
1271.0,0.06661395809694559
1270.0,0.06874559358358656
1269.0,0.0709900145060387
1268.0,0.07329750581735506
1267.0,0.0756173227980268
1266.0,0.07779372256098371
1265.0,0.07987667370927598
1264.0,0.08181233864107451
1263.0,0.08349341288484435
1262.0,0.08491689834879956
1261.0,0.08618614761628329
1260.0,0.0872997918091396
1259.0,0.0881502035005799
1258.0,0.08862929288386212
1257.0,0.08894897967187343
1256.0,0.0892155652071629
1255.0,0.08958906008531176
1254.0,0.0900697402471693
1253.0,0.09071147583774919
1252.0,0.09151498112135026
1251.0,0.09242742120144909
1250.0,0.0935033402006471
1249.0,0.09474395125154866
1248.0,0.096150661903319
1247.0,0.09761631556752848
1246.0,0.0990869322623309
1245.0,0.10067205012234592
1244.0,0.10226297465457268
1243.0,0.10391491457671487
1242.0,0.10535169620648288
1241.0,0.10662666975397506
1240.0,0.10779405402422748
1239.0,0.10885296955122903
1238.0,0.10957898119908571
1237.0,0.10997041383658313
1236.0,0.11008231656379408
1235.0,0.10980261378997125
1234.0,0.10913206118855912
1233.0,0.1081838804751396
1232.0,0.10701544928928342
1231.0,0.10551778498990938
1230.0,0.10391491457671487
1229.0,0.10215306842042837
1228.0,0.10045306890913297
1227.0,0.09865067458435761
1226.0,0.09680145295702158
1225.0,0.09485199814398393
1224.0,0.09296504751658308
1223.0,0.09108625997902897
1222.0,0.08916223500731646
1221.0,0.08719360733870762
1220.0,0.08533956941077814
1219.0,0.08354605145007499
1218.0,0.08186477383364066
1217.0,0.08024221949810584
1216.0,0.07862570458152551
1215.0,0.07701518429111709
1214.0,0.07546228222451012
1213.0,0.07396640332115534
1212.0,0.07262963696097646
1211.0,0.0713481533463054
1210.0,0.07017251876930874
1209.0,0.0690000580438479
1208.0,0.0678307540792078
1207.0,0.0666645899223488
1206.0,0.06560255921901192
1205.0,0.06454311928839007
1204.0,0.06358680028852026
1203.0,0.06263258248271053
1202.0,0.06163040254819374
1201.0,0.06068046892176193
1200.0,0.05978244440026481
1199.0,0.058936011780097886
1198.0,0.05809122563440061
1197.0,0.05724807957018618
1196.0,0.056456022846545606
1195.0,0.055764156206519866
1194.0,0.05507339001378431
1193.0,0.05443294655761144
1192.0,0.05369514500652506
1191.0,0.05300765925162776
1190.0,0.05227227303668425
1189.0,0.0515870342213991
1188.0,0.05095170768433621
1187.0,0.050463626623857394
1186.0,0.05002482217034632
1185.0,0.04973253198641148
1184.0,0.04948910701400333
1183.0,0.04934311749548925
1182.0,0.04934311749548925
1181.0,0.04948910701400333
1180.0,0.04973253198641148
1179.0,0.050073556332087765
1178.0,0.05051241005349638
1177.0,0.05095170768433621
1176.0,0.05139145012356372
1175.0,0.05178270644002936
1174.0,0.052027420754219955
1173.0,0.05207638016827354
1172.0,0.05197846685889629
1171.0,0.051684859310652254
1170.0,0.051244819831730126
1169.0,0.05065879322950262
1168.0,0.04997609347667353
1167.0,0.049294465226138895
1166.0,0.0486139051197072
1165.0,0.047982909952573705
1164.0,0.04740126547022694
1163.0,0.04682039893436585
1162.0,0.04633693625290869
1161.0,0.04595055323640551
1160.0,0.045612749855485024
1159.0,0.04537162249272897
1158.0,0.04522701031028298
1157.0,0.04508244626504121
1156.0,0.04513062893352182
1155.0,0.04522701031028298
1154.0,0.04541983725624266
1153.0,0.04575749056067524
1152.0,0.046192002334692894
1151.0,0.04672366333269573
1150.0,0.04740126547022694
1149.0,0.04827402457540786
1148.0,0.049294465226138895
1147.0,0.050414848673348
1146.0,0.05163594401163074
1145.0,0.05295859474477971
1144.0,0.05428528594013993
1143.0,0.055566682299785564
1142.0,0.05685187064143715
1141.0,0.05814087347462649
1140.0,0.05948351506743288
1139.0,0.06083032037482261
1138.0,0.06208109735221967
1137.0,0.06328524178879635
1136.0,0.06444235490698613
1135.0,0.06550154875643233
1134.0,0.06641148980334699
1133.0,0.06737405597821788
1132.0,0.06833876031551878
1131.0,0.06935655895783555
1130.0,0.07052998382251041
1129.0,0.07191154033502922
1128.0,0.07350321072677968
1127.0,0.07520400420208784
1126.0,0.07701518429111709
1125.0,0.07893810920972144
1124.0,0.08092190762392604
1123.0,0.08301995267961781
1122.0,0.08512818245994969
1121.0,0.0872466963286771
1120.0,0.0892155652071629
1119.0,0.09092559859909577
1118.0,0.09210516458371698
1117.0,0.09285746899685954
1116.0,0.09318028453345462
1115.0,0.09312646527792956
1114.0,0.09280368972839836
1113.0,0.09226626300234453
1112.0,0.09183679994445204
1111.0,0.09151498112135026
1110.0,0.09151498112135026
1109.0,0.09210516458371698
1108.0,0.09339562827501968
1107.0,0.09523037409340485
1106.0,0.09745322068600859
1105.0,0.10007011727213588
1104.0,0.10297804393963661
1103.0,0.1060718734573931
1102.0,0.10913206118855912
1101.0,0.11227020271196975
1100.0,0.11543118508166672
1099.0,0.11855827805860697
1098.0,0.12147820449879343
1097.0,0.12412880927263426
1096.0,0.12644690648638135
1095.0,0.12842706445412122
1094.0,0.13006458935314003
1093.0,0.13153190097901324
1092.0,0.13282724882135022
1091.0,0.13388996015562338
1090.0,0.13454067733803532
1089.0,0.13483678049391368
1088.0,0.1349552783069008
1087.0,0.13477754370982087
1086.0,0.13448148092522594
1085.0,0.13418561983203192
1084.0,0.13383085236622927
1083.0,0.13324021650489182
1082.0,0.13241467345296387
1081.0,0.13135556160517425
1080.0,0.13006458935314003
1079.0,0.1284854412916181
1078.0,0.12644690648638135
1077.0,0.12436006299583169
1076.0,0.12216810850710624
1075.0,0.11992991593593283
1074.0,0.1175323851046286
1073.0,0.11509140583739286
1072.0,0.11266406960083297
1071.0,0.11025022473596224
1070.0,0.10790539730951965
1069.0,0.10557316203581202
1068.0,0.10330847343711591
1067.0,0.10111034407341357
1066.0,0.09903237608087578
1065.0,0.09707290398273716
1064.0,0.09512223303659528
1063.0,0.09312646527792956
1062.0,0.09113982698272349
1061.0,0.08916223500731646
1060.0,0.08735289378168276
1059.0,0.08570974433405087
1058.0,0.08428366205400617
1057.0,0.0830725338870073
1056.0,0.08212704480115218
1055.0,0.08134070657817682
1054.0,0.08066036321258663
1053.0,0.08034671768963575
1052.0,0.08029446545087904
1051.0,0.08034671768963575
1050.0,0.08039897621588898
1049.0,0.08055578953476306
1048.0,0.08086958613938555
1047.0,0.08134070657817682
1046.0,0.08181233864107451
1045.0,0.08223199755224364
1044.0,0.08265206237222844
1043.0,0.08301995267961781
1042.0,0.0832303157168639
1041.0,0.08328292240118751
1040.0,0.08317771540408803
1039.0,0.08291480935943274
1038.0,0.08249449044745338
1037.0,0.08207457793525874
1036.0,0.08165507103772507
1035.0,0.08113125661901543
1034.0,0.0805035121369384
1033.0,0.07982447798997727
1032.0,0.07914650387874067
1031.0,0.07846958649875768
1030.0,0.0777417765670334
1029.0,0.07691148455760066
1028.0,0.07608277688689435
1027.0,0.07520400420208784
1026.0,0.07432700607875953
1025.0,0.07360609973031784
1024.0,0.0734517753643813
1023.0,0.07422394616325367
1022.0,0.0763933569825408
1021.0,0.08008551934056851
1020.0,0.08507535179485148
1019.0,0.09076499663169257
1018.0,0.09636748391576244
1017.0,0.10111034407341357
1016.0,0.10424605792627206
1015.0,0.10540705207704448
1014.0,0.10457745396059215
1013.0,0.10242788617426934
1012.0,0.09957824654226233
1011.0,0.09658441423091357
1010.0,0.09371884422784693
1009.0,0.09113982698272349
1008.0,0.08884239126002336
1007.0,0.0867691288864394
1006.0,0.08486409337798806
1005.0,0.08328292240118751
1004.0,0.08196966321511989
1003.0,0.08081727095749947
1002.0,0.07982447798997727
1001.0,0.0788860261633193
1000.0,0.07805354577058976
999.0,0.0772226580712021
998.0,0.07649693305789551
997.0,0.07577241873988227
996.0,0.07520400420208784
995.0,0.07468790850035045
994.0,0.07412091069849924
993.0,0.07360609973031784
992.0,0.07309189829456408
991.0,0.07262963696097646
990.0,0.07216786713341827
989.0,0.07170658776779781
988.0,0.07124579782334672
987.0,0.07093887591523451
986.0,0.07073438174693436
985.0,0.07068327324650436
984.0,0.07073438174693436
983.0,0.07073438174693436
982.0,0.07063217075990047
981.0,0.07037674848475972
980.0,0.06996838504902692
979.0,0.06950943469373039
978.0,0.0692037370166998
977.0,0.0692037370166998
976.0,0.06940751155740177
975.0,0.06950943469373039
974.0,0.06940751155740177
973.0,0.0691018855898955
972.0,0.06879647454924775
971.0,0.0684912781333824
970.0,0.06813548650796819
969.0,0.0678307540792078
968.0,0.0675769736232612
967.0,0.06727263269847072
966.0,0.06686717627326577
965.0,0.06646209802829528
964.0,0.06600683616875758
963.0,0.06550154875643233
962.0,0.06494641076893504
961.0,0.06434161389936577
960.0,0.06388856832514578
959.0,0.06353652599525317
958.0,0.06328524178879635
957.0,0.06293368798257193
956.0,0.06258241852286206
955.0,0.062281556382736136
954.0,0.06193081377661436
953.0,0.061580354206806964
952.0,0.06118017497378969
951.0,0.06078036414518184
950.0,0.06038092104330195
949.0,0.060081579630943294
948.0,0.05998184499233683
947.0,0.05988213325228142
946.0,0.05978244440026481
945.0,0.0595831353183347
944.0,0.05933412752417122
943.0,0.059035506507200575
942.0,0.058786812414678646
941.0,0.05868737463933793
940.0,0.05858795962645047
939.0,0.058538260652670315
938.0,0.05848856736559682
937.0,0.0583891978463662
936.0,0.0582898510583536
935.0,0.05814087347462649
934.0,0.05794231615860479
933.0,0.05779345772290467
932.0,0.05779345772290467
931.0,0.05779345772290467
930.0,0.05769424710410598
929.0,0.0575950591438934
928.0,0.05754547365752294
927.0,0.05749589383191922
926.0,0.057396751157843484
925.0,0.057198533682059516
924.0,0.05685187064143715
923.0,0.05655495097496965
922.0,0.05635711724787096
921.0,0.05625823416868636
920.0,0.05620880107069848
919.0,0.05601112492622806
918.0,0.055764156206519866
917.0,0.05546797900801881
916.0,0.05522131887649295
915.0,0.055172003656783764
914.0,0.055122694036304765
913.0,0.055172003656783764
912.0,0.055172003656783764
911.0,0.055270639696704205
910.0,0.05541863577307371
909.0,0.055764156206519866
908.0,0.05630767289398331
907.0,0.05690137699451481
906.0,0.05754547365752294
905.0,0.058190526991161784
904.0,0.058936011780097886
903.0,0.05968277842578207
902.0,0.06038092104330195
901.0,0.06103020277710969
900.0,0.06163040254819374
899.0,0.06218131530164395
898.0,0.06263258248271053
897.0,0.06293368798257193
896.0,0.06318476880236723
895.0,0.06338573802478864
894.0,0.06348625752110681
893.0,0.06348625752110681
892.0,0.06353652599525317
891.0,0.06353652599525317
890.0,0.06348625752110681
889.0,0.06348625752110681
888.0,0.06353652599525317
887.0,0.06373765809652254
886.0,0.06398920428479049
885.0,0.06429125215733666
884.0,0.06469430971007495
883.0,0.06529959828457499
882.0,0.06610796423578891
881.0,0.06722192993944942
880.0,0.06869471857832687
879.0,0.07047889936889606
878.0,0.07242434530888953
877.0,0.07443009045662374
876.0,0.07654873036034848
875.0,0.07867775641617802
874.0,0.08066036321258663
873.0,0.08223199755224364
872.0,0.08333553545860273
871.0,0.08375666953466032
870.0,0.08359869639612438
869.0,0.08296737783760655
868.0,0.08202211740709164
867.0,0.08086958613938555
866.0,0.07961575782164254
865.0,0.07841755960658348
864.0,0.07732643214144574
863.0,0.07649693305789551
862.0,0.07582412969807906
861.0,0.07530729697981409
860.0,0.07489427319033615
859.0,0.07448164182257
858.0,0.07401789967289685
857.0,0.07355465218161061
856.0,0.07319468988839395
855.0,0.07293775650699996
854.0,0.07288638806623937
853.0,0.07304051161972436
852.0,0.07340034609297241
851.0,0.07401789967289685
850.0,0.0748426728241014
849.0,0.07582412969807906
848.0,0.07685964397479927
847.0,0.0777417765670334
846.0,0.07805354577058976
845.0,0.07784567476894111
844.0,0.07732643214144574
843.0,0.07675598136972361
842.0,0.07628980560343712
841.0,0.0759792995259323
840.0,0.07572071393811841
839.0,0.07551395626608493
838.0,0.07530729697981409
837.0,0.07520400420208784
836.0,0.07510073598571654
835.0,0.07473949048056472
834.0,0.07422394616325367
833.0,0.07365755337434488
832.0,0.07329750581735506
831.0,0.07314329105030759
830.0,0.07293775650699996
829.0,0.07268097504034388
828.0,0.07242434530888953
827.0,0.07232173586200852
826.0,0.07221915065262552
825.0,0.07221915065262552
824.0,0.07216786713341827
823.0,0.07206531825882068
822.0,0.07186029312488018
821.0,0.07160414774328627
820.0,0.0713481533463054
819.0,0.07114346641808922
818.0,0.07114346641808922
817.0,0.07129697256940304
816.0,0.0716553647351379
815.0,0.07216786713341827
814.0,0.07247565912497134
813.0,0.07252697900472405
812.0,0.0725783049495814
811.0,0.07278366940873537
810.0,0.07314329105030759
809.0,0.07360609973031784
808.0,0.07401789967289685
807.0,0.07432700607875953
806.0,0.07453319930846214
805.0,0.07458476291575367
804.0,0.07458476291575367
803.0,0.07458476291575367
802.0,0.07458476291575367
801.0,0.07463633264589853
800.0,0.07489427319033615
799.0,0.07535895258283709
798.0,0.0760310351245288
797.0,0.07701518429111709
796.0,0.07841755960658348
795.0,0.08003329851661278
794.0,0.08155025759884227
793.0,0.08265206237222844
792.0,0.08317771540408803
791.0,0.0832303157168639
790.0,0.08301995267961781
789.0,0.08265206237222844
788.0,0.08212704480115218
787.0,0.08134070657817682
786.0,0.08045124103115198
785.0,0.07972010536705154
784.0,0.07930286553008004
783.0,0.079094395835976
782.0,0.0788860261633193
781.0,0.07852161962430992
780.0,0.0781575185941421
779.0,0.07784567476894111
778.0,0.07758597585436577
777.0,0.07732643214144574
776.0,0.07701518429111709
775.0,0.07660053384128362
774.0,0.0759792995259323
773.0,0.07520400420208784
772.0,0.07437854520917098
771.0,0.07370901311513656
770.0,0.07334892291111106
769.0,0.07319468988839395
768.0,0.07304051161972436
767.0,0.07262963696097646
766.0,0.0720140529005715
765.0,0.07160414774328627
764.0,0.07150173187630915
763.0,0.07160414774328627
762.0,0.07160414774328627
761.0,0.0713481533463054
760.0,0.07078549626260622
759.0,0.0699173666076287
758.0,0.06905096883247697
757.0,0.06844043290919477
756.0,0.06813548650796819
755.0,0.06803388527182741
754.0,0.06777998612288094
753.0,0.06727263269847072
752.0,0.06656333217371957
751.0,0.06575411897692884
750.0,0.06489597884855036
749.0,0.06414020196211956
748.0,0.06353652599525317
747.0,0.06303410289212974
746.0,0.06263258248271053
745.0,0.06253226035662252
744.0,0.06278310913729457
743.0,0.06358680028852026
742.0,0.06519865825346338
741.0,0.06803388527182741
740.0,0.07216786713341827
739.0,0.07706704344478843
738.0,0.08238947425013277
737.0,0.08825662214406838
736.0,0.09490603167212863
735.0,0.10215306842042837
734.0,0.10946720807225518
733.0,0.1165657063169907
732.0,0.12372441132212098
731.0,0.13135556160517425
730.0,0.1397219002477652
729.0,0.1490476002065071
728.0,0.15901616267962204
727.0,0.16896251435997467
726.0,0.17815907279954568
725.0,0.185819018959813
724.0,0.1911815749078758
723.0,0.19361649817583237
722.0,0.1928710444075783
721.0,0.1894986522334703
720.0,0.18462151503408197
719.0,0.17907641211868253
718.0,0.17347169365934856
717.0,0.16819419132560887
716.0,0.16316971351112097
715.0,0.15845283474344662
714.0,0.15434394001645568
713.0,0.15113378850522063
712.0,0.14898639317633
711.0,0.14733705565543076
710.0,0.14575470293388149
709.0,0.14429916916456276
708.0,0.14321071124668383
707.0,0.1423660148499919
706.0,0.14164329470222659
705.0,0.1408016384661226
704.0,0.13990167030148193
703.0,0.13894375542312654
702.0,0.13798794874978348
701.0,0.13727247168202528
700.0,0.13661765155921235
699.0,0.13560759484941132
698.0,0.13406733180681396
697.0,0.13247358880025661
696.0,0.1312967977214634
695.0,0.13076828026902376
694.0,0.1304749371427727
693.0,0.1302990263261221
692.0,0.12988884463559924
691.0,0.12912810493225724
690.0,0.1283103343144847
689.0,0.1281352979118051
688.0,0.12866061890013913
687.0,0.12930354201075
686.0,0.1295960947209729
685.0,0.1295960947209729
684.0,0.12971317100740865
683.0,0.12983027886355947
682.0,0.12942053944731513
681.0,0.12866061890013913
680.0,0.12784372725170723
679.0,0.1270865583796048
678.0,0.1267375405612734
677.0,0.12720296001040166
676.0,0.1284854412916181
675.0,0.12965462891904034
674.0,0.13000599987825812
673.0,0.12953756841108
672.0,0.12866061890013913
671.0,0.1275523522109867
670.0,0.12621453918179926
669.0,0.12557616941349803
668.0,0.12569216687196105
667.0,0.1251124891538875
666.0,0.12401322857151209
665.0,0.12337808396572703
664.0,0.1236666709136196
663.0,0.12441789567211425
662.0,0.12464930342071079
661.0,0.12401322857151209
660.0,0.12285911021517903
659.0,0.12193801870998744
658.0,0.12170805075020397
657.0,0.12193801870998744
656.0,0.12234075588839133
655.0,0.12245589228405596
654.0,0.12211057462851604
653.0,0.12188051530283239
652.0,0.12234075588839133
651.0,0.12349349573411894
650.0,0.12482294018529605
649.0,0.12627261935332057
648.0,0.1275523522109867
647.0,0.12819363554127072
646.0,0.1280769681176266
645.0,0.1280186461566306
644.0,0.12866061890013913
643.0,0.1295960947209729
642.0,0.1302990263261221
641.0,0.13123804178794973
640.0,0.13294519952329842
639.0,0.13513308567147386
638.0,0.13721290176465573
637.0,0.1399616101928065
636.0,0.14429916916456276
635.0,0.14929251462546267
634.0,0.15261244897260462
633.0,0.15360102696532518
632.0,0.15391041964201602
631.0,0.15452986701832638
630.0,0.15465386258859137
629.0,0.15366288787019466
628.0,0.15193410459600853
627.0,0.1500894416985039
626.0,0.14917004015146906
625.0,0.15015080439474215
624.0,0.1527358982292355
623.0,0.15533647175976073
622.0,0.1560823619936076
621.0,0.15496400648658493
620.0,0.15304467498017615
619.0,0.15107228677292173
618.0,0.14929251462546267
617.0,0.14855818532794496
616.0,0.14917004015146906
615.0,0.15015080439474215
614.0,0.15045774799498335
613.0,0.15051916275601385
612.0,0.15131834597604965
611.0,0.15285938258659382
610.0,0.15428198203334142
609.0,0.15533647175976073
608.0,0.15602015552184012
607.0,0.15527437202677397
606.0,0.15193410459600853
605.0,0.14739803066176504
604.0,0.14490504884137811
603.0,0.14605855411951008
602.0,0.14966014541652073
601.0,0.15298290206464582
600.0,0.1540961611012175
