cm-1,A
4000.0,0.012780770091995297
3999.0,0.012870232340102872
3998.0,0.012959713020733288
3997.0,0.013049212141483357
3996.0,0.013138729709955221
3995.0,0.013138729709955221
3994.0,0.013138729709955221
3993.0,0.013093968619278806
3992.0,0.013093968619278806
3991.0,0.013093968619278806
3990.0,0.013004460275618523
3989.0,0.012959713020733288
3988.0,0.012959713020733288
3987.0,0.012914970375878188
3986.0,0.012914970375878188
3985.0,0.012914970375878188
3984.0,0.012959713020733288
3983.0,0.013004460275618523
3982.0,0.013049212141483357
3981.0,0.013093968619278806
3980.0,0.013138729709955221
3979.0,0.01318349541446362
3978.0,0.013273040668781544
3977.0,0.013362604389846044
3976.0,0.013407393177789162
3975.0,0.013362604389846044
3974.0,0.01322826573375524
3973.0,0.013093968619278806
3972.0,0.012959713020733288
3971.0,0.013004460275618523
3970.0,0.013093968619278806
3969.0,0.013138729709955221
3968.0,0.013138729709955221
3967.0,0.013049212141483357
3966.0,0.012959713020733288
3965.0,0.012959713020733288
3964.0,0.013049212141483357
3963.0,0.01318349541446362
3962.0,0.01322826573375524
3961.0,0.013138729709955221
3960.0,0.013004460275618523
3959.0,0.012870232340102872
3958.0,0.012825498912458322
3957.0,0.012914970375878188
3956.0,0.013093968619278806
3955.0,0.01318349541446362
3954.0,0.01322826573375524
3953.0,0.01318349541446362
3952.0,0.013138729709955221
3951.0,0.013093968619278806
3950.0,0.013138729709955221
3949.0,0.013093968619278806
3948.0,0.012959713020733288
3947.0,0.012736045877764557
3946.0,0.012512493866907004
3945.0,0.012423105273012602
3944.0,0.012423105273012602
3943.0,0.012512493866907004
3942.0,0.012512493866907004
3941.0,0.012512493866907004
3940.0,0.01260190086298274
3939.0,0.012736045877764557
3938.0,0.012870232340102872
3937.0,0.012870232340102872
3936.0,0.012870232340102872
3935.0,0.012825498912458322
3934.0,0.012825498912458322
3933.0,0.012825498912458322
3932.0,0.012825498912458322
3931.0,0.012780770091995297
3930.0,0.012691326268817527
3929.0,0.01260190086298274
3928.0,0.012557195064198723
3927.0,0.01260190086298274
3926.0,0.012691326268817527
3925.0,0.012780770091995297
3924.0,0.012691326268817527
3923.0,0.01260190086298274
3922.0,0.012557195064198723
3921.0,0.01260190086298274
3920.0,0.012691326268817527
3919.0,0.012825498912458322
3918.0,0.012914970375878188
3917.0,0.013004460275618523
3916.0,0.013004460275618523
3915.0,0.013049212141483357
3914.0,0.013138729709955221
3913.0,0.013273040668781544
3912.0,0.013362604389846044
3911.0,0.013407393177789162
3910.0,0.013317820220494436
3909.0,0.013049212141483357
3908.0,0.01264661126420652
3907.0,0.012244383261476699
3906.0,0.011887159731648111
3905.0,0.011664044143949504
3904.0,0.011485634166333858
3903.0,0.011307297450183107
3902.0,0.011262724711199823
3901.0,0.011441043121384498
3900.0,0.011797899741219142
3899.0,0.012065734767841452
3898.0,0.012244383261476699
3897.0,0.012378417874516323
3896.0,0.012423105273012602
3895.0,0.012467797270160563
3894.0,0.012423105273012602
3893.0,0.012512493866907004
3892.0,0.01264661126420652
3891.0,0.012557195064198723
3890.0,0.012199714248127602
3889.0,0.0119764380713403
3888.0,0.012021084124518078
3887.0,0.012244383261476699
3886.0,0.012467797270160563
3885.0,0.012333735073725371
3884.0,0.011931796607364653
3883.0,0.011753276624621556
3882.0,0.0119764380713403
3881.0,0.012333735073725371
3880.0,0.012467797270160563
3879.0,0.012289056869694281
3878.0,0.012065734767841452
3877.0,0.012065734767841452
3876.0,0.012199714248127602
3875.0,0.012289056869694281
3874.0,0.012199714248127602
3873.0,0.011931796607364653
3872.0,0.011797899741219142
3871.0,0.0119764380713403
3870.0,0.012065734767841452
3869.0,0.011842527443247208
3868.0,0.011574829993696856
3867.0,0.011619434777991433
3866.0,0.011887159731648111
3865.0,0.01215504982870197
3864.0,0.012244383261476699
3863.0,0.012244383261476699
3862.0,0.012244383261476699
3861.0,0.012289056869694281
3860.0,0.012333735073725371
3859.0,0.012289056869694281
3858.0,0.012021084124518078
3857.0,0.011574829993696856
3856.0,0.01117359295472431
3855.0,0.01117359295472431
3854.0,0.011485634166333858
3853.0,0.011441043121384498
3852.0,0.010995384301463185
3851.0,0.011084479487313281
3850.0,0.011842527443247208
3849.0,0.012512493866907004
3848.0,0.012780770091995297
3847.0,0.012780770091995297
3846.0,0.012691326268817527
3845.0,0.012557195064198723
3844.0,0.012333735073725371
3843.0,0.0119764380713403
3842.0,0.011485634166333858
3841.0,0.011129033935354915
3840.0,0.011039929609661936
3839.0,0.011218156546359825
3838.0,0.011351874764248926
3837.0,0.011396456654336085
3836.0,0.011485634166333858
3835.0,0.011664044143949504
3834.0,0.0119764380713403
3833.0,0.012289056869694281
3832.0,0.012512493866907004
3831.0,0.012557195064198723
3830.0,0.012512493866907004
3829.0,0.012557195064198723
3828.0,0.01260190086298274
3827.0,0.01264661126420652
3826.0,0.012423105273012602
3825.0,0.0119764380713403
3824.0,0.011530229790124524
3823.0,0.011351874764248926
3822.0,0.011485634166333858
3821.0,0.011530229790124524
3820.0,0.011129033935354915
3819.0,0.010817248744452446
3818.0,0.011129033935354915
3817.0,0.011887159731648111
3816.0,0.012512493866907004
3815.0,0.012736045877764557
3814.0,0.012736045877764557
3813.0,0.012914970375878188
3812.0,0.013138729709955221
3811.0,0.013049212141483357
3810.0,0.012780770091995297
3809.0,0.01260190086298274
3808.0,0.012691326268817527
3807.0,0.012736045877764557
3806.0,0.012512493866907004
3805.0,0.012110390002254778
3804.0,0.0119764380713403
3803.0,0.01215504982870197
3802.0,0.012467797270160563
3801.0,0.012378417874516323
3800.0,0.011887159731648111
3799.0,0.011753276624621556
3798.0,0.012110390002254778
3797.0,0.01260190086298274
3796.0,0.012870232340102872
3795.0,0.012959713020733288
3794.0,0.013004460275618523
3793.0,0.01318349541446362
3792.0,0.013317820220494436
3791.0,0.013362604389846044
3790.0,0.013273040668781544
3789.0,0.01318349541446362
3788.0,0.013138729709955221
3787.0,0.013138729709955221
3786.0,0.01318349541446362
3785.0,0.013138729709955221
3784.0,0.012959713020733288
3783.0,0.012780770091995297
3782.0,0.012736045877764557
3781.0,0.012914970375878188
3780.0,0.01318349541446362
3779.0,0.013362604389846044
3778.0,0.013317820220494436
3777.0,0.013317820220494436
3776.0,0.013407393177789162
3775.0,0.013496984613259544
3774.0,0.013407393177789162
3773.0,0.013317820220494436
3772.0,0.01322826573375524
3771.0,0.013317820220494436
3770.0,0.013273040668781544
3769.0,0.013004460275618523
3768.0,0.012736045877764557
3767.0,0.012736045877764557
3766.0,0.012914970375878188
3765.0,0.013049212141483357
3764.0,0.013004460275618523
3763.0,0.012914970375878188
3762.0,0.012914970375878188
3761.0,0.012959713020733288
3760.0,0.012959713020733288
3759.0,0.012870232340102872
3758.0,0.01264661126420652
3757.0,0.012333735073725371
3756.0,0.0119764380713403
3755.0,0.011619434777991433
3754.0,0.011218156546359825
3753.0,0.010817248744452446
3752.0,0.010639186223752484
3751.0,0.010639186223752484
3750.0,0.010550182333308289
3749.0,0.010327752376126709
3748.0,0.01023881228122181
3747.0,0.01046119667949763
3746.0,0.011039929609661936
3745.0,0.011664044143949504
3744.0,0.011753276624621556
3743.0,0.011351874764248926
3742.0,0.011262724711199823
3741.0,0.011530229790124524
3740.0,0.011574829993696856
3739.0,0.011218156546359825
3738.0,0.010683695010048622
3737.0,0.010416710688994968
3736.0,0.01046119667949763
3735.0,0.010594681998483901
3734.0,0.01077272626946324
3733.0,0.011039929609661936
3732.0,0.011351874764248926
3731.0,0.011619434777991433
3730.0,0.011797899741219142
3729.0,0.011931796607364653
3728.0,0.012065734767841452
3727.0,0.012110390002254778
3726.0,0.0119764380713403
3725.0,0.011708658092512314
3724.0,0.011574829993696856
3723.0,0.011574829993696856
3722.0,0.011708658092512314
3721.0,0.0119764380713403
3720.0,0.012244383261476699
3719.0,0.012557195064198723
3718.0,0.012780770091995297
3717.0,0.012825498912458322
3716.0,0.012691326268817527
3715.0,0.012467797270160563
3714.0,0.012244383261476699
3713.0,0.012110390002254778
3712.0,0.012110390002254778
3711.0,0.012065734767841452
3710.0,0.012021084124518078
3709.0,0.01215504982870197
3708.0,0.012423105273012602
3707.0,0.01260190086298274
3706.0,0.012691326268817527
3705.0,0.012736045877764557
3704.0,0.012825498912458322
3703.0,0.013004460275618523
3702.0,0.01318349541446362
3701.0,0.01322826573375524
3700.0,0.013138729709955221
3699.0,0.013138729709955221
3698.0,0.013273040668781544
3697.0,0.013362604389846044
3696.0,0.013317820220494436
3695.0,0.013049212141483357
3694.0,0.01264661126420652
3693.0,0.012244383261476699
3692.0,0.011887159731648111
3691.0,0.011842527443247208
3690.0,0.012065734767841452
3689.0,0.012289056869694281
3688.0,0.012333735073725371
3687.0,0.012467797270160563
3686.0,0.012825498912458322
3685.0,0.013362604389846044
3684.0,0.01372104409400876
3683.0,0.013765869865004277
3682.0,0.013676222949234651
3681.0,0.013407393177789162
3680.0,0.012959713020733288
3679.0,0.012333735073725371
3678.0,0.011753276624621556
3677.0,0.011664044143949504
3676.0,0.012065734767841452
3675.0,0.012199714248127602
3674.0,0.011842527443247208
3673.0,0.011619434777991433
3672.0,0.011797899741219142
3671.0,0.012244383261476699
3670.0,0.012825498912458322
3669.0,0.01318349541446362
3668.0,0.013407393177789162
3667.0,0.013765869865004277
3666.0,0.014259258949925524
3665.0,0.014573525916998342
3664.0,0.014753209197138295
3663.0,0.014798141635428141
3662.0,0.014708281407112
3661.0,0.01452861671041239
3660.0,0.014259258949925524
3659.0,0.014079779876432497
3658.0,0.014124642691606404
3657.0,0.014259258949925524
3656.0,0.014259258949925524
3655.0,0.013990068146738865
3654.0,0.013541787262693505
3653.0,0.01318349541446362
3652.0,0.012870232340102872
3651.0,0.012736045877764557
3650.0,0.012914970375878188
3649.0,0.013093968619278806
3648.0,0.013093968619278806
3647.0,0.01322826573375524
3646.0,0.013586594534531482
3645.0,0.014079779876432497
3644.0,0.014573525916998342
3643.0,0.014888020460646079
3642.0,0.015112798935672522
3641.0,0.015157768594724175
3640.0,0.015157768594724175
3639.0,0.015112798935672522
3638.0,0.015022873584506602
3637.0,0.014932966849499074
3636.0,0.014932966849499074
3635.0,0.014888020460646079
3634.0,0.014708281407112
3633.0,0.014304140310157809
3632.0,0.013765869865004277
3631.0,0.013496984613259544
3630.0,0.013765869865004277
3629.0,0.014393916947563534
3628.0,0.01452861671041239
3627.0,0.014393916947563534
3626.0,0.01452861671041239
3625.0,0.014798141635428141
3624.0,0.014843078722943437
3623.0,0.014708281407112
3622.0,0.01452861671041239
3621.0,0.01452861671041239
3620.0,0.014663358264387139
3619.0,0.014753209197138295
3618.0,0.014618439768003144
3617.0,0.01452861671041239
3616.0,0.01452861671041239
3615.0,0.014618439768003144
3614.0,0.014708281407112
3613.0,0.014663358264387139
3612.0,0.0144837121472845
3611.0,0.014438812226654996
3610.0,0.01452861671041239
3609.0,0.014843078722943437
3608.0,0.015112798935672522
3607.0,0.015247721884586563
3606.0,0.015292705517326866
3605.0,0.015292705517326866
3604.0,0.015292705517326866
3603.0,0.015292705517326866
3602.0,0.015292705517326866
3601.0,0.015337693809893471
3600.0,0.015337693809893471
3599.0,0.015202742910707112
3598.0,0.015067833932588037
3597.0,0.014977917890464765
3596.0,0.014977917890464765
3595.0,0.015022873584506602
3594.0,0.015067833932588037
3593.0,0.015157768594724175
3592.0,0.015157768594724175
3591.0,0.015157768594724175
3590.0,0.015112798935672522
3589.0,0.015202742910707112
3588.0,0.01538268676325183
3587.0,0.015562705203923999
3586.0,0.015652742414136167
3585.0,0.015832872853011715
3584.0,0.016238439713835096
3583.0,0.016599261819461697
3582.0,0.01677978535189717
3581.0,0.016824927962187042
3580.0,0.016734647433454652
3579.0,0.016644385668211692
3578.0,0.016599261819461697
3577.0,0.016644385668211692
3576.0,0.016689514205884493
3575.0,0.01677978535189717
3574.0,0.016870075265299933
3573.0,0.016915227262211507
3572.0,0.016824927962187042
3571.0,0.016599261819461697
3570.0,0.01632861713980338
3569.0,0.016103208673694303
3568.0,0.016103208673694303
3567.0,0.016193358021584725
3566.0,0.016238439713835096
3565.0,0.016373712875465518
3564.0,0.016689514205884493
3563.0,0.017050711425501408
3562.0,0.017321806616515723
3561.0,0.017457417697056554
3560.0,0.017547848615010242
3559.0,0.017638298366853045
3558.0,0.017728766960431575
3557.0,0.01781925440359733
3556.0,0.017909760704207134
3555.0,0.017955020928509757
3554.0,0.017909760704207134
3553.0,0.01781925440359733
3552.0,0.017728766960431575
3551.0,0.01768353030793479
3550.0,0.017728766960431575
3549.0,0.01781925440359733
3548.0,0.017955020928509757
3547.0,0.01809082990920774
3546.0,0.018181392829336396
3545.0,0.018181392829336396
3544.0,0.018181392829336396
3543.0,0.018181392829336396
3542.0,0.018271974638383703
3541.0,0.018362575344230914
3540.0,0.01845319495476394
3539.0,0.01845319495476394
3538.0,0.01845319495476394
3537.0,0.01840788278591865
3536.0,0.018362575344230914
3535.0,0.018271974638383703
3534.0,0.018271974638383703
3533.0,0.018271974638383703
3532.0,0.01831727262871463
3531.0,0.018362575344230914
3530.0,0.01831727262871463
3529.0,0.018181392829336396
3528.0,0.018045555530026514
3527.0,0.017909760704207134
3526.0,0.01781925440359733
3525.0,0.017864505196230507
3524.0,0.017955020928509757
3523.0,0.01809082990920774
3522.0,0.018181392829336396
3521.0,0.018181392829336396
3520.0,0.018181392829336396
3519.0,0.018181392829336396
3518.0,0.018226681372252695
3517.0,0.018271974638383703
3516.0,0.01840788278591865
3515.0,0.018498511851753108
3514.0,0.018498511851753108
3513.0,0.018498511851753108
3512.0,0.01840788278591865
3511.0,0.01840788278591865
3510.0,0.018498511851753108
3509.0,0.01858915983411169
3508.0,0.01858915983411169
3507.0,0.01845319495476394
3506.0,0.018271974638383703
3505.0,0.01809082990920774
3504.0,0.01800028587012159
3503.0,0.018045555530026514
3502.0,0.018136109008649592
3501.0,0.018226681372252695
3500.0,0.018271974638383703
3499.0,0.018362575344230914
3498.0,0.018498511851753108
3497.0,0.018634490921455527
3496.0,0.018725167293411005
3495.0,0.018679826740892747
3494.0,0.018543833477873584
3493.0,0.018362575344230914
3492.0,0.018226681372252695
3491.0,0.018226681372252695
3490.0,0.01831727262871463
3489.0,0.01845319495476394
3488.0,0.01858915983411169
3487.0,0.018543833477873584
3486.0,0.01840788278591865
3485.0,0.018226681372252695
3484.0,0.018136109008649592
3483.0,0.018181392829336396
3482.0,0.01831727262871463
3481.0,0.01845319495476394
3480.0,0.018543833477873584
3479.0,0.018634490921455527
3478.0,0.018725167293411005
3477.0,0.018815862601645694
3476.0,0.018906576854070378
3475.0,0.018906576854070378
3474.0,0.018906576854070378
3473.0,0.018861217359339655
3472.0,0.018815862601645694
3471.0,0.018770512579999288
3470.0,0.018770512579999288
3469.0,0.018770512579999288
3468.0,0.018725167293411005
3467.0,0.018679826740892747
3466.0,0.018634490921455527
3465.0,0.018634490921455527
3464.0,0.018725167293411005
3463.0,0.018906576854070378
3462.0,0.0190880622231564
3461.0,0.0192242260373785
3460.0,0.0192242260373785
3459.0,0.0192242260373785
3458.0,0.019178833355664393
3457.0,0.019178833355664393
3456.0,0.019178833355664393
3455.0,0.019178833355664393
3454.0,0.0192242260373785
3453.0,0.019360432556262852
3452.0,0.01949668180660491
3451.0,0.019632973815224997
3450.0,0.019769308608968306
3449.0,0.01995115493504329
3448.0,0.02013307743509718
3447.0,0.020315076172974234
3446.0,0.02045162529590483
3445.0,0.02058821736556471
3444.0,0.020770406977844713
3443.0,0.020952673052035298
3442.0,0.021089422824428272
3441.0,0.0211806132671577
3440.0,0.021271822861508305
3439.0,0.021317434843055594
3438.0,0.021363051615525652
3437.0,0.021363051615525652
3436.0,0.02122621566987748
3435.0,0.021089422824428272
3434.0,0.0209982515252789
3433.0,0.0209982515252789
3432.0,0.021089422824428272
3431.0,0.021271822861508305
3430.0,0.021363051615525652
3429.0,0.02140867317992523
3428.0,0.0214542995372613
3427.0,0.0214542995372613
3426.0,0.021499930688540836
3425.0,0.0214542995372613
3424.0,0.02140867317992523
3423.0,0.021271822861508305
3422.0,0.0211806132671577
3421.0,0.021043834782408455
3420.0,0.020907099361673565
3419.0,0.020861530453190058
3418.0,0.020770406977844713
3417.0,0.02067930261797568
3416.0,0.020542681902151694
3415.0,0.020315076172974234
3414.0,0.020087589665283012
3413.0,0.01995115493504329
3412.0,0.01990568621470623
3411.0,0.019860222254245663
3410.0,0.019814763052665052
3409.0,0.019769308608968306
3408.0,0.019678413991243593
3407.0,0.019632973815224997
3406.0,0.019632973815224997
3405.0,0.01958753839310856
3404.0,0.01954210772389997
3403.0,0.019451260640229506
3402.0,0.019315025636685412
3401.0,0.0192242260373785
3400.0,0.019178833355664393
3399.0,0.019178833355664393
3398.0,0.0192242260373785
3397.0,0.019315025636685412
3396.0,0.019315025636685412
3395.0,0.019315025636685412
3394.0,0.019315025636685412
3393.0,0.019269623464054586
3392.0,0.019269623464054586
3391.0,0.0192242260373785
3390.0,0.019178833355664393
3389.0,0.019133445417920836
3388.0,0.0190880622231564
3387.0,0.0190880622231564
3386.0,0.0190880622231564
3385.0,0.019133445417920836
3384.0,0.0190880622231564
3383.0,0.019042683770379876
3382.0,0.01899731005860028
3381.0,0.018951941086827073
3380.0,0.018906576854070378
3379.0,0.018861217359339655
3378.0,0.018906576854070378
3377.0,0.019042683770379876
3376.0,0.019178833355664393
3375.0,0.019269623464054586
3374.0,0.019269623464054586
3373.0,0.0192242260373785
3372.0,0.019133445417920836
3371.0,0.019042683770379876
3370.0,0.018951941086827073
3369.0,0.018861217359339655
3368.0,0.018815862601645694
3367.0,0.018815862601645694
3366.0,0.018861217359339655
3365.0,0.018861217359339655
3364.0,0.018861217359339655
3363.0,0.018906576854070378
3362.0,0.018951941086827073
3361.0,0.01899731005860028
3360.0,0.019042683770379876
3359.0,0.019042683770379876
3358.0,0.019042683770379876
3357.0,0.01899731005860028
3356.0,0.018951941086827073
3355.0,0.018951941086827073
3354.0,0.01899731005860028
3353.0,0.019042683770379876
3352.0,0.01899731005860028
3351.0,0.018951941086827073
3350.0,0.018951941086827073
3349.0,0.019042683770379876
3348.0,0.019178833355664393
3347.0,0.019269623464054586
3346.0,0.019315025636685412
3345.0,0.0192242260373785
3344.0,0.019178833355664393
3343.0,0.019133445417920836
3342.0,0.0190880622231564
3341.0,0.019042683770379876
3340.0,0.0190880622231564
3339.0,0.019133445417920836
3338.0,0.019133445417920836
3337.0,0.019133445417920836
3336.0,0.019133445417920836
3335.0,0.019133445417920836
3334.0,0.019178833355664393
3333.0,0.019133445417920836
3332.0,0.019133445417920836
3331.0,0.0190880622231564
3330.0,0.019133445417920836
3329.0,0.019178833355664393
3328.0,0.019269623464054586
3327.0,0.019269623464054586
3326.0,0.0192242260373785
3325.0,0.019178833355664393
3324.0,0.019178833355664393
3323.0,0.019133445417920836
3322.0,0.0190880622231564
3321.0,0.018951941086827073
3320.0,0.018815862601645694
3319.0,0.018725167293411005
3318.0,0.018770512579999288
3317.0,0.018861217359339655
3316.0,0.01899731005860028
3315.0,0.019133445417920836
3314.0,0.0192242260373785
3313.0,0.0192242260373785
3312.0,0.019133445417920836
3311.0,0.0190880622231564
3310.0,0.0190880622231564
3309.0,0.0190880622231564
3308.0,0.019042683770379876
3307.0,0.018906576854070378
3306.0,0.018770512579999288
3305.0,0.018725167293411005
3304.0,0.018725167293411005
3303.0,0.018815862601645694
3302.0,0.018861217359339655
3301.0,0.018906576854070378
3300.0,0.01899731005860028
3299.0,0.0190880622231564
3298.0,0.019133445417920836
3297.0,0.019178833355664393
3296.0,0.019133445417920836
3295.0,0.019178833355664393
3294.0,0.019178833355664393
3293.0,0.019178833355664393
3292.0,0.0190880622231564
3291.0,0.01899731005860028
3290.0,0.018951941086827073
3289.0,0.018906576854070378
3288.0,0.018906576854070378
3287.0,0.018861217359339655
3286.0,0.018815862601645694
3285.0,0.018725167293411005
3284.0,0.018679826740892747
3283.0,0.018634490921455527
3282.0,0.018679826740892747
3281.0,0.018770512579999288
3280.0,0.018861217359339655
3279.0,0.018861217359339655
3278.0,0.018861217359339655
3277.0,0.018861217359339655
3276.0,0.018861217359339655
3275.0,0.018951941086827073
3274.0,0.019042683770379876
3273.0,0.0190880622231564
3272.0,0.019042683770379876
3271.0,0.018951941086827073
3270.0,0.018815862601645694
3269.0,0.018815862601645694
3268.0,0.018906576854070378
3267.0,0.018951941086827073
3266.0,0.01899731005860028
3265.0,0.01899731005860028
3264.0,0.01899731005860028
3263.0,0.019042683770379876
3262.0,0.019042683770379876
3261.0,0.01899731005860028
3260.0,0.018861217359339655
3259.0,0.018770512579999288
3258.0,0.018770512579999288
3257.0,0.018861217359339655
3256.0,0.01899731005860028
3255.0,0.01899731005860028
3254.0,0.018951941086827073
3253.0,0.018815862601645694
3252.0,0.018679826740892747
3251.0,0.01858915983411169
3250.0,0.018543833477873584
3249.0,0.018543833477873584
3248.0,0.01858915983411169
3247.0,0.018634490921455527
3246.0,0.018679826740892747
3245.0,0.018770512579999288
3244.0,0.018906576854070378
3243.0,0.019042683770379876
3242.0,0.019133445417920836
3241.0,0.0190880622231564
3240.0,0.01899731005860028
3239.0,0.018815862601645694
3238.0,0.018634490921455527
3237.0,0.018543833477873584
3236.0,0.018498511851753108
3235.0,0.018543833477873584
3234.0,0.01858915983411169
3233.0,0.018634490921455527
3232.0,0.018725167293411005
3231.0,0.018906576854070378
3230.0,0.01899731005860028
3229.0,0.019042683770379876
3228.0,0.01899731005860028
3227.0,0.018906576854070378
3226.0,0.018906576854070378
3225.0,0.018951941086827073
3224.0,0.01899731005860028
3223.0,0.01899731005860028
3222.0,0.018951941086827073
3221.0,0.018906576854070378
3220.0,0.018861217359339655
3219.0,0.018815862601645694
3218.0,0.018770512579999288
3217.0,0.018725167293411005
3216.0,0.018679826740892747
3215.0,0.018725167293411005
3214.0,0.018815862601645694
3213.0,0.018861217359339655
3212.0,0.018906576854070378
3211.0,0.018906576854070378
3210.0,0.018861217359339655
3209.0,0.018861217359339655
3208.0,0.018861217359339655
3207.0,0.018861217359339655
3206.0,0.018815862601645694
3205.0,0.018725167293411005
3204.0,0.018634490921455527
3203.0,0.018543833477873584
3202.0,0.01845319495476394
3201.0,0.01845319495476394
3200.0,0.018498511851753108
3199.0,0.01858915983411169
3198.0,0.018634490921455527
3197.0,0.018679826740892747
3196.0,0.018679826740892747
3195.0,0.018725167293411005
3194.0,0.018770512579999288
3193.0,0.018770512579999288
3192.0,0.018770512579999288
3191.0,0.018770512579999288
3190.0,0.018770512579999288
3189.0,0.018725167293411005
3188.0,0.018725167293411005
3187.0,0.018679826740892747
3186.0,0.018679826740892747
3185.0,0.018634490921455527
3184.0,0.018634490921455527
3183.0,0.018679826740892747
3182.0,0.018679826740892747
3181.0,0.018679826740892747
3180.0,0.018679826740892747
3179.0,0.018679826740892747
3178.0,0.018679826740892747
3177.0,0.018634490921455527
3176.0,0.018543833477873584
3175.0,0.01845319495476394
3174.0,0.018362575344230914
3173.0,0.01831727262871463
3172.0,0.018271974638383703
3171.0,0.018226681372252695
3170.0,0.018271974638383703
3169.0,0.01831727262871463
3168.0,0.01831727262871463
3167.0,0.018362575344230914
3166.0,0.01840788278591865
3165.0,0.018498511851753108
3164.0,0.018634490921455527
3163.0,0.018725167293411005
3162.0,0.018679826740892747
3161.0,0.018498511851753108
3160.0,0.01831727262871463
3159.0,0.018181392829336396
3158.0,0.018136109008649592
3157.0,0.018181392829336396
3156.0,0.018271974638383703
3155.0,0.018362575344230914
3154.0,0.01845319495476394
3153.0,0.01845319495476394
3152.0,0.01840788278591865
3151.0,0.018362575344230914
3150.0,0.018226681372252695
3149.0,0.018136109008649592
3148.0,0.018136109008649592
3147.0,0.018136109008649592
3146.0,0.018136109008649592
3145.0,0.018136109008649592
3144.0,0.018181392829336396
3143.0,0.018226681372252695
3142.0,0.018362575344230914
3141.0,0.01840788278591865
3140.0,0.01845319495476394
3139.0,0.01840788278591865
3138.0,0.01845319495476394
3137.0,0.018498511851753108
3136.0,0.018543833477873584
3135.0,0.018634490921455527
3134.0,0.018679826740892747
3133.0,0.018725167293411005
3132.0,0.018770512579999288
3131.0,0.018906576854070378
3130.0,0.018951941086827073
3129.0,0.01899731005860028
3128.0,0.018951941086827073
3127.0,0.018861217359339655
3126.0,0.018770512579999288
3125.0,0.018725167293411005
3124.0,0.01858915983411169
3123.0,0.018498511851753108
3122.0,0.01840788278591865
3121.0,0.01840788278591865
3120.0,0.018498511851753108
3119.0,0.018543833477873584
3118.0,0.018634490921455527
3117.0,0.018679826740892747
3116.0,0.018725167293411005
3115.0,0.018815862601645694
3114.0,0.01899731005860028
3113.0,0.0192242260373785
3112.0,0.01940584422377989
3111.0,0.01949668180660491
3110.0,0.01949668180660491
3109.0,0.01949668180660491
3108.0,0.01954210772389997
3107.0,0.019632973815224997
3106.0,0.019769308608968306
3105.0,0.01990568621470623
3104.0,0.01995115493504329
3103.0,0.01995115493504329
3102.0,0.01990568621470623
3101.0,0.019769308608968306
3100.0,0.019678413991243593
3099.0,0.01954210772389997
3098.0,0.019451260640229506
3097.0,0.01940584422377989
3096.0,0.01940584422377989
3095.0,0.019451260640229506
3094.0,0.01949668180660491
3093.0,0.01954210772389997
3092.0,0.01954210772389997
3091.0,0.01958753839310856
3090.0,0.019632973815224997
3089.0,0.019769308608968306
3088.0,0.01990568621470623
3087.0,0.02004210665933459
3086.0,0.02004210665933459
3085.0,0.02004210665933459
3084.0,0.02004210665933459
3083.0,0.020087589665283012
3082.0,0.02022406727031445
3081.0,0.020315076172974234
3080.0,0.020406104151069693
3079.0,0.02045162529590483
3078.0,0.020497151212598652
3077.0,0.020497151212598652
3076.0,0.020497151212598652
3075.0,0.02045162529590483
3074.0,0.020497151212598652
3073.0,0.020497151212598652
3072.0,0.020497151212598652
3071.0,0.02045162529590483
3070.0,0.020406104151069693
3069.0,0.020406104151069693
3068.0,0.020406104151069693
3067.0,0.020406104151069693
3066.0,0.02036058777709271
3065.0,0.02026956933771462
3064.0,0.02022406727031445
3063.0,0.020178569969774962
3062.0,0.020178569969774962
3061.0,0.020178569969774962
3060.0,0.02022406727031445
3059.0,0.02026956933771462
3058.0,0.020406104151069693
3057.0,0.020542681902151694
3056.0,0.020633757603838898
3055.0,0.020633757603838898
3054.0,0.02058821736556471
3053.0,0.020542681902151694
3052.0,0.020497151212598652
3051.0,0.020406104151069693
3050.0,0.02022406727031445
3049.0,0.020087589665283012
3048.0,0.019860222254245663
3047.0,0.01958753839310856
3046.0,0.019269623464054586
3045.0,0.01899731005860028
3044.0,0.018725167293411005
3043.0,0.018498511851753108
3042.0,0.01831727262871463
3041.0,0.018226681372252695
3040.0,0.018181392829336396
3039.0,0.018181392829336396
3038.0,0.01809082990920774
3037.0,0.01800028587012159
3036.0,0.017864505196230507
3035.0,0.017774008325325275
3034.0,0.017728766960431575
3033.0,0.017774008325325275
3032.0,0.017864505196230507
3031.0,0.017955020928509757
3030.0,0.018045555530026514
3029.0,0.018045555530026514
3028.0,0.018045555530026514
3027.0,0.01800028587012159
3026.0,0.01800028587012159
3025.0,0.01809082990920774
3024.0,0.018271974638383703
3023.0,0.01845319495476394
3022.0,0.01858915983411169
3021.0,0.018634490921455527
3020.0,0.01858915983411169
3019.0,0.018634490921455527
3018.0,0.018679826740892747
3017.0,0.018815862601645694
3016.0,0.01899731005860028
3015.0,0.019133445417920836
3014.0,0.0192242260373785
3013.0,0.019315025636685412
3012.0,0.019451260640229506
3011.0,0.01954210772389997
3010.0,0.019632973815224997
3009.0,0.019723858922159776
3008.0,0.019814763052665052
3007.0,0.019996628416253603
3006.0,0.02022406727031445
3005.0,0.020406104151069693
3004.0,0.020542681902151694
3003.0,0.020633757603838898
3002.0,0.020724852408976924
3001.0,0.020770406977844713
3000.0,0.02081596632558158
2999.0,0.020907099361673565
2998.0,0.0209982515252789
2997.0,0.021089422824428272
2996.0,0.0211806132671577
2995.0,0.021271822861508305
2994.0,0.02140867317992523
2993.0,0.021545566634771474
2992.0,0.02168250325324883
2991.0,0.021910826943857264
2990.0,0.022093572362881675
2989.0,0.02227639471115217
2988.0,0.022413561996148967
2987.0,0.02259651912656535
2986.0,0.02282532397981263
2985.0,0.023191662661933732
2984.0,0.02365002099672653
2983.0,0.02406295751688936
2982.0,0.02438440203310499
2981.0,0.02461415101053266
2980.0,0.024798037742147727
2979.0,0.025074013910237447
2978.0,0.025488307262671706
2977.0,0.025949097207122573
2976.0,0.026410376572743033
2975.0,0.02677975314776626
2974.0,0.027149444152769986
2973.0,0.02751945012352408
2972.0,0.027936083991977778
2971.0,0.02839947976994095
2970.0,0.028816959143838528
2969.0,0.029234840219232394
2968.0,0.029653123769906697
2967.0,0.030118356253500123
2966.0,0.03058408764601861
2965.0,0.031003673351687855
2964.0,0.03142366482450232
2963.0,0.03175060589208267
2962.0,0.032031037121307726
2961.0,0.032218091924200776
2960.0,0.03226486821611996
2959.0,0.032311649546687526
2958.0,0.03226486821611996
2957.0,0.032218091924200776
2956.0,0.03217132066984485
2955.0,0.03207779326948268
2954.0,0.03193753992355086
2953.0,0.03175060589208267
2952.0,0.03142366482450232
2951.0,0.030957032694186815
2950.0,0.030397735151460825
2949.0,0.029839156962686353
2948.0,0.02932775731028059
2947.0,0.028770552723758724
2946.0,0.028214062120885508
2945.0,0.027658283674251827
2944.0,0.027149444152769986
2943.0,0.026733563891471412
2942.0,0.02636422658259252
2941.0,0.025949097207122573
2940.0,0.02553436426275746
2939.0,0.02516604495145991
2938.0,0.02484402159331056
2937.0,0.024568191490736968
2936.0,0.024430342106337877
2935.0,0.024246610963712723
2934.0,0.024108863598207186
2933.0,0.024017056287453542
2932.0,0.023971159908874107
2931.0,0.023879381700184332
2930.0,0.023787622882622816
2929.0,0.02365002099672653
2928.0,0.02351246269481
2927.0,0.023374947949272418
2926.0,0.023237476732539397
2925.0,0.02314585342378117
2924.0,0.023054249440757957
2923.0,0.02300845469384938
2922.0,0.02296266477531872
2921.0,0.02291687968414724
2920.0,0.02282532397981263
2919.0,0.022733787572707387
2918.0,0.022642270454698687
2917.0,0.02255077261765881
2916.0,0.02255077261765881
2915.0,0.02255077261765881
2914.0,0.02255077261765881
2913.0,0.022505030926963654
2912.0,0.02245929405346514
2911.0,0.022367834754000393
2910.0,0.022322112326006227
2909.0,0.02227639471115217
2908.0,0.022322112326006227
2907.0,0.022322112326006227
2906.0,0.022367834754000393
2905.0,0.022367834754000393
2904.0,0.02227639471115217
2903.0,0.022139270735302752
2902.0,0.02200219004126036
2901.0,0.021956506090037076
2900.0,0.02200219004126036
2899.0,0.022139270735302752
2898.0,0.02227639471115217
2897.0,0.022367834754000393
2896.0,0.022413561996148967
2895.0,0.022413561996148967
2894.0,0.02245929405346514
2893.0,0.02245929405346514
2892.0,0.02255077261765881
2891.0,0.02259651912656535
2890.0,0.02255077261765881
2889.0,0.022505030926963654
2888.0,0.02245929405346514
2887.0,0.02245929405346514
2886.0,0.02245929405346514
2885.0,0.022367834754000393
2884.0,0.022230681908425698
2883.0,0.02204787879853809
2882.0,0.021910826943857264
2881.0,0.021819483062586187
2880.0,0.021728158389364705
2879.0,0.02168250325324883
2878.0,0.021545566634771474
2877.0,0.0214542995372613
2876.0,0.021363051615525652
2875.0,0.021363051615525652
2874.0,0.021363051615525652
2873.0,0.021317434843055594
2872.0,0.02122621566987748
2871.0,0.021089422824428272
2870.0,0.0209982515252789
2869.0,0.020952673052035298
2868.0,0.020952673052035298
2867.0,0.020952673052035298
2866.0,0.020952673052035298
2865.0,0.0209982515252789
2864.0,0.0209982515252789
2863.0,0.021043834782408455
2862.0,0.021089422824428272
2861.0,0.021135015652343103
2860.0,0.02122621566987748
2859.0,0.021317434843055594
2858.0,0.021271822861508305
2857.0,0.02122621566987748
2856.0,0.021135015652343103
2855.0,0.021089422824428272
2854.0,0.021043834782408455
2853.0,0.0209982515252789
2852.0,0.020861530453190058
2851.0,0.02067930261797568
2850.0,0.02045162529590483
2849.0,0.02022406727031445
2848.0,0.020087589665283012
2847.0,0.01995115493504329
2846.0,0.019769308608968306
2845.0,0.01958753839310856
2844.0,0.019315025636685412
2843.0,0.0190880622231564
2842.0,0.018861217359339655
2841.0,0.018725167293411005
2840.0,0.018679826740892747
2839.0,0.018634490921455527
2838.0,0.01858915983411169
2837.0,0.01845319495476394
2836.0,0.01831727262871463
2835.0,0.018226681372252695
2834.0,0.018181392829336396
2833.0,0.018181392829336396
2832.0,0.018136109008649592
2831.0,0.01809082990920774
2830.0,0.01800028587012159
2829.0,0.01781925440359733
2828.0,0.017638298366853045
2827.0,0.017502630802287644
2826.0,0.017457417697056554
2825.0,0.017412209298337533
2824.0,0.017457417697056554
2823.0,0.017457417697056554
2822.0,0.017412209298337533
2821.0,0.017367005605150476
2820.0,0.017321806616515723
2819.0,0.017321806616515723
2818.0,0.017367005605150476
2817.0,0.017457417697056554
2816.0,0.017547848615010242
2815.0,0.017547848615010242
2814.0,0.017502630802287644
2813.0,0.017412209298337533
2812.0,0.017321806616515723
2811.0,0.017186237868137555
2810.0,0.017095882207371904
2809.0,0.017050711425501408
2808.0,0.017050711425501408
2807.0,0.017095882207371904
2806.0,0.017141057687924732
2805.0,0.017141057687924732
2804.0,0.017095882207371904
2803.0,0.017050711425501408
2802.0,0.017050711425501408
2801.0,0.017095882207371904
2800.0,0.017141057687924732
2799.0,0.017141057687924732
2798.0,0.017050711425501408
2797.0,0.016960383953898095
2796.0,0.016870075265299933
2795.0,0.016824927962187042
2794.0,0.016824927962187042
2793.0,0.01677978535189717
2792.0,0.016824927962187042
2791.0,0.016824927962187042
2790.0,0.016870075265299933
2789.0,0.016870075265299933
2788.0,0.016915227262211507
2787.0,0.016915227262211507
2786.0,0.016824927962187042
2785.0,0.016734647433454652
2784.0,0.016599261819461697
2783.0,0.016509028184833463
2782.0,0.01646391839700767
2781.0,0.016509028184833463
2780.0,0.016554142658660398
2779.0,0.016644385668211692
2778.0,0.016734647433454652
2777.0,0.016734647433454652
2776.0,0.016644385668211692
2775.0,0.016599261819461697
2774.0,0.016509028184833463
2773.0,0.01646391839700767
2772.0,0.016418813294209356
2771.0,0.016373712875465518
2770.0,0.01632861713980338
2769.0,0.01632861713980338
2768.0,0.01632861713980338
2767.0,0.01632861713980338
2766.0,0.01632861713980338
2765.0,0.01632861713980338
2764.0,0.01628352608625061
2763.0,0.01628352608625061
2762.0,0.016238439713835096
2761.0,0.016193358021584725
2760.0,0.016148281008528276
2759.0,0.016103208673694303
2758.0,0.016058141016111804
2757.0,0.01596801972881945
2756.0,0.015877917138889863
2755.0,0.015832872853011715
2754.0,0.01578783323856614
2753.0,0.01578783323856614
2752.0,0.015832872853011715
2751.0,0.015877917138889863
2750.0,0.015922966097169144
2749.0,0.01596801972881945
2748.0,0.01596801972881945
2747.0,0.015922966097169144
2746.0,0.015832872853011715
2745.0,0.01578783323856614
2744.0,0.01578783323856614
2743.0,0.015742798294583915
2742.0,0.015697768020096703
2741.0,0.015607721475734415
2740.0,0.015562705203923999
2739.0,0.015562705203923999
2738.0,0.015607721475734415
2737.0,0.015652742414136167
2736.0,0.015697768020096703
2735.0,0.015697768020096703
2734.0,0.015652742414136167
2733.0,0.015562705203923999
2732.0,0.015517693597737248
2731.0,0.015427684378367834
2730.0,0.01538268676325183
2729.0,0.015337693809893471
2728.0,0.015292705517326866
2727.0,0.015292705517326866
2726.0,0.015292705517326866
2725.0,0.015292705517326866
2724.0,0.015337693809893471
2723.0,0.015427684378367834
2722.0,0.01547268665620738
2721.0,0.01547268665620738
2720.0,0.015427684378367834
2719.0,0.015337693809893471
2718.0,0.015247721884586563
2717.0,0.015202742910707112
2716.0,0.015202742910707112
2715.0,0.015202742910707112
2714.0,0.015202742910707112
2713.0,0.015157768594724175
2712.0,0.015112798935672522
2711.0,0.015022873584506602
2710.0,0.015022873584506602
2709.0,0.015022873584506602
2708.0,0.015022873584506602
2707.0,0.015022873584506602
2706.0,0.015022873584506602
2705.0,0.014977917890464765
2704.0,0.014977917890464765
2703.0,0.015022873584506602
2702.0,0.015022873584506602
2701.0,0.015022873584506602
2700.0,0.014977917890464765
2699.0,0.014932966849499074
2698.0,0.014843078722943437
2697.0,0.014753209197138295
2696.0,0.014663358264387139
2695.0,0.014663358264387139
2694.0,0.014753209197138295
2693.0,0.014888020460646079
2692.0,0.014977917890464765
2691.0,0.015022873584506602
2690.0,0.014977917890464765
2689.0,0.014843078722943437
2688.0,0.014708281407112
2687.0,0.014663358264387139
2686.0,0.014663358264387139
2685.0,0.014618439768003144
2684.0,0.014618439768003144
2683.0,0.014573525916998342
2682.0,0.01452861671041239
2681.0,0.014438812226654996
2680.0,0.014393916947563534
2679.0,0.014393916947563534
2678.0,0.014393916947563534
2677.0,0.014438812226654996
2676.0,0.01452861671041239
2675.0,0.014618439768003144
2674.0,0.014663358264387139
2673.0,0.014663358264387139
2672.0,0.014618439768003144
2671.0,0.01452861671041239
2670.0,0.0144837121472845
2669.0,0.014438812226654996
2668.0,0.014393916947563534
2667.0,0.014393916947563534
2666.0,0.014349026309051105
2665.0,0.014304140310157809
2664.0,0.014214382227394795
2663.0,0.014214382227394795
2662.0,0.014214382227394795
2661.0,0.014214382227394795
2660.0,0.014214382227394795
2659.0,0.014169510141607944
2658.0,0.014169510141607944
2657.0,0.014124642691606404
2656.0,0.014079779876432497
2655.0,0.01403492169512921
2654.0,0.01403492169512921
2653.0,0.01403492169512921
2652.0,0.013990068146738865
2651.0,0.013990068146738865
2650.0,0.01403492169512921
2649.0,0.014124642691606404
2648.0,0.014214382227394795
2647.0,0.014259258949925524
2646.0,0.014259258949925524
2645.0,0.014214382227394795
2644.0,0.014124642691606404
2643.0,0.014079779876432497
2642.0,0.014079779876432497
2641.0,0.014079779876432497
2640.0,0.014169510141607944
2639.0,0.014259258949925524
2638.0,0.014304140310157809
2637.0,0.014304140310157809
2636.0,0.014304140310157809
2635.0,0.014259258949925524
2634.0,0.014259258949925524
2633.0,0.014259258949925524
2632.0,0.014214382227394795
2631.0,0.014169510141607944
2630.0,0.014169510141607944
2629.0,0.014169510141607944
2628.0,0.014169510141607944
2627.0,0.014214382227394795
2626.0,0.014259258949925524
2625.0,0.014259258949925524
2624.0,0.014259258949925524
2623.0,0.014214382227394795
2622.0,0.014169510141607944
2621.0,0.014169510141607944
2620.0,0.014169510141607944
2619.0,0.014214382227394795
2618.0,0.014259258949925524
2617.0,0.014259258949925524
2616.0,0.014259258949925524
2615.0,0.014259258949925524
2614.0,0.014214382227394795
2613.0,0.014169510141607944
2612.0,0.014124642691606404
2611.0,0.014124642691606404
2610.0,0.014079779876432497
2609.0,0.014079779876432497
2608.0,0.014079779876432497
2607.0,0.014079779876432497
2606.0,0.014124642691606404
2605.0,0.014124642691606404
2604.0,0.014079779876432497
2603.0,0.01403492169512921
2602.0,0.013945219230304673
2601.0,0.013900374944870508
2600.0,0.013900374944870508
2599.0,0.013900374944870508
2598.0,0.01385553528947936
2597.0,0.01381070026317599
2596.0,0.01381070026317599
2595.0,0.01381070026317599
2594.0,0.01385553528947936
2593.0,0.013900374944870508
2592.0,0.013945219230304673
2591.0,0.013990068146738865
2590.0,0.01403492169512921
2589.0,0.014079779876432497
2588.0,0.014079779876432497
2587.0,0.014079779876432497
2586.0,0.01403492169512921
2585.0,0.013945219230304673
2584.0,0.013945219230304673
2583.0,0.013990068146738865
2582.0,0.01403492169512921
2581.0,0.014079779876432497
2580.0,0.014124642691606404
2579.0,0.014124642691606404
2578.0,0.014079779876432497
2577.0,0.014079779876432497
2576.0,0.014079779876432497
2575.0,0.014169510141607944
2574.0,0.014259258949925524
2573.0,0.014304140310157809
2572.0,0.014349026309051105
2571.0,0.014304140310157809
2570.0,0.014259258949925524
2569.0,0.014169510141607944
2568.0,0.01403492169512921
2567.0,0.013990068146738865
2566.0,0.013900374944870508
2565.0,0.01381070026317599
2564.0,0.013765869865004277
2563.0,0.01372104409400876
2562.0,0.013765869865004277
2561.0,0.01381070026317599
2560.0,0.01385553528947936
2559.0,0.01385553528947936
2558.0,0.01385553528947936
2557.0,0.01381070026317599
2556.0,0.01381070026317599
2555.0,0.01385553528947936
2554.0,0.01385553528947936
2553.0,0.013900374944870508
2552.0,0.013900374944870508
2551.0,0.01385553528947936
2550.0,0.01385553528947936
2549.0,0.01385553528947936
2548.0,0.01385553528947936
2547.0,0.013765869865004277
2546.0,0.01372104409400876
2545.0,0.013676222949234651
2544.0,0.013765869865004277
2543.0,0.01385553528947936
2542.0,0.013945219230304673
2541.0,0.013945219230304673
2540.0,0.013900374944870508
2539.0,0.01385553528947936
2538.0,0.01381070026317599
2537.0,0.01381070026317599
2536.0,0.01381070026317599
2535.0,0.013765869865004277
2534.0,0.013676222949234651
2533.0,0.013631406429727155
2532.0,0.013631406429727155
2531.0,0.013631406429727155
2530.0,0.013586594534531482
2529.0,0.013586594534531482
2528.0,0.013541787262693505
2527.0,0.013541787262693505
2526.0,0.013541787262693505
2525.0,0.013541787262693505
2524.0,0.013496984613259544
2523.0,0.013496984613259544
2522.0,0.013541787262693505
2521.0,0.013586594534531482
2520.0,0.013541787262693505
2519.0,0.013496984613259544
2518.0,0.013452186585275916
2517.0,0.013452186585275916
2516.0,0.013452186585275916
2515.0,0.013452186585275916
2514.0,0.013362604389846044
2513.0,0.013273040668781544
2512.0,0.01322826573375524
2511.0,0.01318349541446362
2510.0,0.01322826573375524
2509.0,0.01322826573375524
2508.0,0.013273040668781544
2507.0,0.013317820220494436
2506.0,0.013317820220494436
2505.0,0.013317820220494436
2504.0,0.013317820220494436
2503.0,0.01322826573375524
2502.0,0.01318349541446362
2501.0,0.013093968619278806
2500.0,0.013004460275618523
2499.0,0.012959713020733288
2498.0,0.012914970375878188
2497.0,0.012870232340102872
2496.0,0.012870232340102872
2495.0,0.012870232340102872
2494.0,0.012825498912458322
2493.0,0.012780770091995297
2492.0,0.012780770091995297
2491.0,0.012736045877764557
2490.0,0.012691326268817527
2489.0,0.012691326268817527
2488.0,0.01264661126420652
2487.0,0.01260190086298274
2486.0,0.012557195064198723
2485.0,0.012557195064198723
2484.0,0.01260190086298274
2483.0,0.012691326268817527
2482.0,0.012780770091995297
2481.0,0.012780770091995297
2480.0,0.012736045877764557
2479.0,0.012691326268817527
2478.0,0.01260190086298274
2477.0,0.012557195064198723
2476.0,0.012467797270160563
2475.0,0.012423105273012602
2474.0,0.012378417874516323
2473.0,0.012333735073725371
2472.0,0.012333735073725371
2471.0,0.012289056869694281
2470.0,0.012244383261476699
2469.0,0.012199714248127602
2468.0,0.01215504982870197
2467.0,0.01215504982870197
2466.0,0.012110390002254778
2465.0,0.012065734767841452
2464.0,0.012021084124518078
2463.0,0.012021084124518078
2462.0,0.012065734767841452
2461.0,0.012110390002254778
2460.0,0.012199714248127602
2459.0,0.012244383261476699
2458.0,0.012244383261476699
2457.0,0.01215504982870197
2456.0,0.012065734767841452
2455.0,0.011931796607364653
2454.0,0.011887159731648111
2453.0,0.011842527443247208
2452.0,0.011842527443247208
2451.0,0.011842527443247208
2450.0,0.011797899741219142
2449.0,0.011797899741219142
2448.0,0.011753276624621556
2447.0,0.011797899741219142
2446.0,0.011887159731648111
2445.0,0.0119764380713403
2444.0,0.012021084124518078
2443.0,0.012021084124518078
2442.0,0.0119764380713403
2441.0,0.011931796607364653
2440.0,0.011931796607364653
2439.0,0.011887159731648111
2438.0,0.011887159731648111
2437.0,0.011842527443247208
2436.0,0.011797899741219142
2435.0,0.011753276624621556
2434.0,0.011708658092512314
2433.0,0.011708658092512314
2432.0,0.011708658092512314
2431.0,0.011753276624621556
2430.0,0.011797899741219142
2429.0,0.011842527443247208
2428.0,0.011842527443247208
2427.0,0.011842527443247208
2426.0,0.011842527443247208
2425.0,0.011797899741219142
2424.0,0.011842527443247208
2423.0,0.011887159731648111
2422.0,0.0119764380713403
2421.0,0.012021084124518078
2420.0,0.012065734767841452
2419.0,0.012021084124518078
2418.0,0.0119764380713403
2417.0,0.0119764380713403
2416.0,0.012021084124518078
2415.0,0.012110390002254778
2414.0,0.012199714248127602
2413.0,0.012199714248127602
2412.0,0.012244383261476699
2411.0,0.012244383261476699
2410.0,0.012199714248127602
2409.0,0.012199714248127602
2408.0,0.012244383261476699
2407.0,0.012244383261476699
2406.0,0.012244383261476699
2405.0,0.012244383261476699
2404.0,0.012244383261476699
2403.0,0.012289056869694281
2402.0,0.012333735073725371
2401.0,0.012378417874516323
2400.0,0.012467797270160563
2399.0,0.012512493866907004
2398.0,0.012512493866907004
2397.0,0.012467797270160563
2396.0,0.012423105273012602
2395.0,0.012378417874516323
2394.0,0.012378417874516323
2393.0,0.012378417874516323
2392.0,0.012378417874516323
2391.0,0.012333735073725371
2390.0,0.012289056869694281
2389.0,0.012244383261476699
2388.0,0.012199714248127602
2387.0,0.012110390002254778
2386.0,0.0119764380713403
2385.0,0.011842527443247208
2384.0,0.011664044143949504
2383.0,0.011441043121384498
2382.0,0.01117359295472431
2381.0,0.010906307389674463
2380.0,0.010683695010048622
2379.0,0.01046119667949763
2378.0,0.010194349063173958
2377.0,0.009972101229705377
2376.0,0.009705553871561357
2375.0,0.009572341514736404
2374.0,0.00939478857608056
2373.0,0.009128595198514056
2372.0,0.008818242332126802
2371.0,0.008419542825660153
2370.0,0.008065450281052211
2369.0,0.007888512213050314
2368.0,0.008242460465651913
2367.0,0.00908424549391551
2366.0,0.009883233932095559
2365.0,0.009927665307847056
2364.0,0.009039900317800775
2363.0,0.007932739972333236
2362.0,0.007490664932224611
2361.0,0.007932739972333236
2360.0,0.008818242332126802
2359.0,0.009217308196862062
2358.0,0.00908424549391551
2357.0,0.008951223547323472
2356.0,0.009217308196862062
2355.0,0.009527946474380489
2354.0,0.009572341514736404
2353.0,0.009350411681145587
2352.0,0.009128595198514056
2351.0,0.008906891951112605
2350.0,0.008685301823389224
2349.0,0.008375265465994541
2348.0,0.007755855953228474
2347.0,0.006696062080525422
2346.0,0.00541891874010525
2345.0,0.004320939488377862
2344.0,0.003926345514724705
2343.0,0.004452550524862486
2342.0,0.005638848091999105
2341.0,0.006916639301937977
2340.0,0.007800070204414977
2339.0,0.008021209005416363
2338.0,0.007667440952535687
2337.0,0.00696076819309055
2336.0,0.006343371384537999
2335.0,0.006167133386013823
2334.0,0.006431517210272464
2333.0,0.007004901568658406
2332.0,0.00762324020119709
2331.0,0.007976972236149349
2330.0,0.008021209005416363
2329.0,0.007755855953228474
2328.0,0.00762324020119709
2327.0,0.00762324020119709
2326.0,0.007755855953228474
2325.0,0.007800070204414977
2324.0,0.007800070204414977
2323.0,0.007844288957383316
2322.0,0.008065450281052211
2321.0,0.008419542825660153
2320.0,0.0087296108049002
2319.0,0.008995559669244813
2318.0,0.009261671492462709
2317.0,0.009439170005980158
2316.0,0.009527946474380489
2315.0,0.009483555971770974
2314.0,0.009306039320248427
2313.0,0.009128595198514056
2312.0,0.008995559669244813
2311.0,0.008862564879688284
2310.0,0.008773924307505121
2309.0,0.008773924307505121
2308.0,0.008818242332126802
2307.0,0.008951223547323472
2306.0,0.009128595198514056
2305.0,0.009261671492462709
2304.0,0.009350411681145587
2303.0,0.009350411681145587
2302.0,0.009350411681145587
2301.0,0.009350411681145587
2300.0,0.009350411681145587
2299.0,0.009350411681145587
2298.0,0.009350411681145587
2297.0,0.009350411681145587
2296.0,0.00939478857608056
2295.0,0.009572341514736404
2294.0,0.00974996707218323
2293.0,0.009883233932095559
2292.0,0.01001654169860089
2291.0,0.010060986715464404
2290.0,0.010149890396819572
2289.0,0.010194349063173958
2288.0,0.01023881228122181
2287.0,0.010327752376126709
2286.0,0.010416710688994968
2285.0,0.010416710688994968
2284.0,0.010416710688994968
2283.0,0.01046119667949763
2282.0,0.01046119667949763
2281.0,0.01046119667949763
2280.0,0.010416710688994968
2279.0,0.010327752376126709
2278.0,0.01023881228122181
2277.0,0.010194349063173958
2276.0,0.010194349063173958
2275.0,0.010194349063173958
2274.0,0.010149890396819572
2273.0,0.010105436281226954
2272.0,0.01001654169860089
2271.0,0.009927665307847056
2270.0,0.009883233932095559
2269.0,0.009794384815193347
2268.0,0.00974996707218323
2267.0,0.009705553871561357
2266.0,0.009705553871561357
2265.0,0.009705553871561357
2264.0,0.00974996707218323
2263.0,0.009838807101520963
2262.0,0.009883233932095559
2261.0,0.009883233932095559
2260.0,0.009838807101520963
2259.0,0.009794384815193347
2258.0,0.00974996707218323
2257.0,0.00974996707218323
2256.0,0.009794384815193347
2255.0,0.009838807101520963
2254.0,0.009838807101520963
2253.0,0.009794384815193347
2252.0,0.00966114521239847
2251.0,0.009572341514736404
2250.0,0.009527946474380489
2249.0,0.009572341514736404
2248.0,0.009616741093766423
2247.0,0.009705553871561357
2246.0,0.009705553871561357
2245.0,0.00966114521239847
2244.0,0.009572341514736404
2243.0,0.009527946474380489
2242.0,0.009483555971770974
2241.0,0.009483555971770974
2240.0,0.009572341514736404
2239.0,0.009572341514736404
2238.0,0.009572341514736404
2237.0,0.009527946474380489
2236.0,0.009483555971770974
2235.0,0.009527946474380489
2234.0,0.009527946474380489
2233.0,0.009483555971770974
2232.0,0.009483555971770974
2231.0,0.009439170005980158
2230.0,0.009439170005980158
2229.0,0.009483555971770974
2228.0,0.009527946474380489
2227.0,0.009527946474380489
2226.0,0.009483555971770974
2225.0,0.00939478857608056
2224.0,0.009350411681145587
2223.0,0.009306039320248427
2222.0,0.009261671492462709
2221.0,0.009217308196862062
2220.0,0.009172949432521227
2219.0,0.009128595198514056
2218.0,0.009172949432521227
2217.0,0.009172949432521227
2216.0,0.009172949432521227
2215.0,0.009128595198514056
2214.0,0.009128595198514056
2213.0,0.009128595198514056
2212.0,0.00908424549391551
2211.0,0.008995559669244813
2210.0,0.008906891951112605
2209.0,0.008773924307505121
2208.0,0.008773924307505121
2207.0,0.008818242332126802
2206.0,0.008773924307505121
2205.0,0.0087296108049002
2204.0,0.008685301823389224
2203.0,0.008640997362049818
2202.0,0.008596697419959609
2201.0,0.008552401996197112
2200.0,0.008463824699968647
2199.0,0.008419542825660153
2198.0,0.008419542825660153
2197.0,0.008463824699968647
2196.0,0.008463824699968647
2195.0,0.008419542825660153
2194.0,0.008375265465994541
2193.0,0.008375265465994541
2192.0,0.008375265465994541
2191.0,0.008375265465994541
2190.0,0.008375265465994541
2189.0,0.008330992620051436
2188.0,0.008330992620051436
2187.0,0.008330992620051436
2186.0,0.008330992620051436
2185.0,0.008375265465994541
2184.0,0.008419542825660153
2183.0,0.008375265465994541
2182.0,0.008286724286910463
2181.0,0.008242460465651913
2180.0,0.008242460465651913
2179.0,0.008242460465651913
2178.0,0.008286724286910463
2177.0,0.008330992620051436
2176.0,0.008286724286910463
2175.0,0.008242460465651913
2174.0,0.008198201155356077
2173.0,0.008198201155356077
2172.0,0.008242460465651913
2171.0,0.008330992620051436
2170.0,0.008375265465994541
2169.0,0.008375265465994541
2168.0,0.008330992620051436
2167.0,0.008330992620051436
2166.0,0.008330992620051436
2165.0,0.008330992620051436
2164.0,0.008375265465994541
2163.0,0.008375265465994541
2162.0,0.008375265465994541
2161.0,0.008330992620051436
2160.0,0.008330992620051436
2159.0,0.008286724286910463
2158.0,0.008286724286910463
2157.0,0.008286724286910463
2156.0,0.008286724286910463
2155.0,0.008375265465994541
2154.0,0.008463824699968647
2153.0,0.00850811108984062
2152.0,0.00850811108984062
2151.0,0.00850811108984062
2150.0,0.008463824699968647
2149.0,0.008463824699968647
2148.0,0.008419542825660153
2147.0,0.008463824699968647
2146.0,0.00850811108984062
2145.0,0.008463824699968647
2144.0,0.008463824699968647
2143.0,0.008419542825660153
2142.0,0.008375265465994541
2141.0,0.008375265465994541
2140.0,0.008419542825660153
2139.0,0.008419542825660153
2138.0,0.008463824699968647
2137.0,0.008463824699968647
2136.0,0.00850811108984062
2135.0,0.008552401996197112
2134.0,0.008596697419959609
2133.0,0.008552401996197112
2132.0,0.008463824699968647
2131.0,0.008375265465994541
2130.0,0.008286724286910463
2129.0,0.008198201155356077
2128.0,0.008153946355103248
2127.0,0.008198201155356077
2126.0,0.008242460465651913
2125.0,0.008286724286910463
2124.0,0.008286724286910463
2123.0,0.008286724286910463
2122.0,0.008242460465651913
2121.0,0.008242460465651913
2120.0,0.008286724286910463
2119.0,0.008330992620051436
2118.0,0.008330992620051436
2117.0,0.008286724286910463
2116.0,0.008286724286910463
2115.0,0.008330992620051436
2114.0,0.008375265465994541
2113.0,0.008375265465994541
2112.0,0.008375265465994541
2111.0,0.008330992620051436
2110.0,0.008375265465994541
2109.0,0.008375265465994541
2108.0,0.008375265465994541
2107.0,0.008375265465994541
2106.0,0.008330992620051436
2105.0,0.008286724286910463
2104.0,0.008242460465651913
2103.0,0.008242460465651913
2102.0,0.008242460465651913
2101.0,0.008198201155356077
2100.0,0.008153946355103248
2099.0,0.008153946355103248
2098.0,0.008065450281052211
2097.0,0.008021209005416363
2096.0,0.007932739972333236
2095.0,0.007888512213050314
2094.0,0.007844288957383316
2093.0,0.007844288957383316
2092.0,0.007844288957383316
2091.0,0.007844288957383316
2090.0,0.007844288957383316
2089.0,0.007800070204414977
2088.0,0.007800070204414977
2087.0,0.007755855953228474
2086.0,0.007711646202907652
2085.0,0.007667440952535687
2084.0,0.00762324020119709
2083.0,0.0075790439479759275
2082.0,0.007534852191956709
2081.0,0.0074464821678643656
2080.0,0.007358130121602358
2079.0,0.007269796045857202
2078.0,0.007225635744644521
2077.0,0.007181479933320523
2076.0,0.007137328610972382
2075.0,0.007093181776687496
2074.0,0.007049039429553483
2073.0,0.00696076819309055
2072.0,0.006916639301937977
2071.0,0.006872514894289861
2070.0,0.006828394969235152
2069.0,0.006784279525863024
2068.0,0.006740168563263094
2067.0,0.006740168563263094
2066.0,0.006740168563263094
2065.0,0.006740168563263094
2064.0,0.006651960076740071
2063.0,0.006519680930003435
2062.0,0.006387442061109638
2061.0,0.006299305179649828
2060.0,0.00625524344553785
2059.0,0.00621118618129457
2058.0,0.006167133386013823
2057.0,0.00612308505878878
2056.0,0.006079041198713275
2055.0,0.006035001804881146
2054.0,0.005990966876386672
2053.0,0.00590291041179003
2052.0,0.005814871797682919
2051.0,0.00577085918230158
2050.0,0.005682847330363394
2049.0,0.005638848091999105
2048.0,0.005594853310833647
2047.0,0.005594853310833647
2046.0,0.005594853310833647
2045.0,0.005506877116487674
2044.0,0.005462895701502157
2043.0,0.005462895701502157
2042.0,0.005506877116487674
2041.0,0.005550862985963967
2040.0,0.005550862985963967
2039.0,0.005506877116487674
2038.0,0.00537494623139545
2037.0,0.005199100705396198
2036.0,0.005111204635089406
2035.0,0.005111204635089406
2034.0,0.005111204635089406
2033.0,0.005111204635089406
2032.0,0.005111204635089406
2031.0,0.005111204635089406
2030.0,0.005111204635089406
2029.0,0.005155150446602086
2028.0,0.005155150446602086
2027.0,0.005199100705396198
2026.0,0.005199100705396198
2025.0,0.005199100705396198
2024.0,0.005243055412371911
2023.0,0.005243055412371911
2022.0,0.005199100705396198
2021.0,0.005111204635089406
2020.0,0.005067263269958211
2019.0,0.005111204635089406
2018.0,0.005111204635089406
2017.0,0.005155150446602086
2016.0,0.005155150446602086
2015.0,0.005111204635089406
2014.0,0.005023326350308999
2013.0,0.00489154225525934
2012.0,0.004803708402820517
2011.0,0.004803708402820517
2010.0,0.00484762310854614
2009.0,0.004935465843858511
2008.0,0.004979393875242044
2007.0,0.004979393875242044
2006.0,0.005023326350308999
2005.0,0.004979393875242044
2004.0,0.005023326350308999
2003.0,0.005023326350308999
2002.0,0.005111204635089406
2001.0,0.005111204635089406
2000.0,0.005155150446602086
1999.0,0.005199100705396198
1998.0,0.005243055412371911
1997.0,0.005243055412371911
1996.0,0.005243055412371911
1995.0,0.005243055412371911
1994.0,0.0052870145684298375
1993.0,0.005330978174470591
1992.0,0.00537494623139545
1991.0,0.005462895701502157
1990.0,0.005506877116487674
1989.0,0.005506877116487674
1988.0,0.005506877116487674
1987.0,0.005506877116487674
1986.0,0.005550862985963967
1985.0,0.005550862985963967
1984.0,0.005594853310833647
1983.0,0.005638848091999105
1982.0,0.005638848091999105
1981.0,0.005638848091999105
1980.0,0.005638848091999105
1979.0,0.005682847330363394
1978.0,0.00577085918230158
1977.0,0.00577085918230158
1976.0,0.005814871797682919
1975.0,0.005814871797682919
1974.0,0.005814871797682919
1973.0,0.005814871797682919
1972.0,0.005858888873877532
1971.0,0.005946936412324799
1970.0,0.005990966876386672
1969.0,0.006079041198713275
1968.0,0.00621118618129457
1967.0,0.006343371384537999
1966.0,0.006431517210272464
1965.0,0.006475596832934416
1964.0,0.006519680930003435
1963.0,0.00656376950238835
1962.0,0.006651960076740071
1961.0,0.006784279525863024
1960.0,0.006916639301937977
1959.0,0.007093181776687496
1958.0,0.007181479933320523
1957.0,0.007269796045857202
1956.0,0.007313960837872058
1955.0,0.007402303897961815
1954.0,0.007490664932224611
1953.0,0.007534852191956709
1952.0,0.007534852191956709
1951.0,0.007534852191956709
1950.0,0.007490664932224611
1949.0,0.0074464821678643656
1948.0,0.007358130121602358
1947.0,0.007269796045857202
1946.0,0.007225635744644521
1945.0,0.007093181776687496
1944.0,0.007004901568658406
1943.0,0.006872514894289861
1942.0,0.006740168563263094
1941.0,0.00656376950238835
1940.0,0.006387442061109638
1939.0,0.006167133386013823
1938.0,0.00590291041179003
1937.0,0.005682847330363394
1936.0,0.005462895701502157
1935.0,0.0052870145684298375
1934.0,0.005155150446602086
1933.0,0.005023326350308999
1932.0,0.004935465843858511
1931.0,0.00484762310854614
1930.0,0.004715892310740433
1929.0,0.004540313378935901
1928.0,0.0043648054024501
1927.0,0.004233220950025984
1926.0,0.004101676353562844
1925.0,0.00401400208620073
1924.0,0.0038825238627120395
1923.0,0.0037510854308679953
1922.0,0.003619686766589858
1921.0,0.003488327845821315
1920.0,0.0034007772998332353
1919.0,0.0033132443998284966
1918.0,0.0032257291386954545
1917.0,0.0031382315093266833
1916.0,0.003050751504618754
1915.0,0.0029632891174733444
1914.0,0.0028758443407954637
1913.0,0.0027447101798967477
1912.0,0.002613615602686581
1911.0,0.0025262411970197185
1910.0,0.002482560585275184
1909.0,0.002395212539545666
1908.0,0.002351545103793873
1907.0,0.0023078820582733695
1906.0,0.0022205691343961664
1905.0,0.002089632653256679
1904.0,0.001915112063444413
1903.0,0.0017842676290416026
1902.0,0.0016534626036355249
1901.0,0.0014791171649619628
1900.0,0.0013919706849057079
1899.0,0.001304841688344327
1898.0,0.0012612837441823288
1897.0,0.0012177301682640973
1896.0,0.0011741809597138886
1895.0,0.0011306361176557367
1894.0,0.0010435595295137379
1893.0,0.000869458712629001
1892.0,0.0006519307932786322
1891.0,0.0004779868710962365
1890.0,0.0003475746339209884
1889.0,0.0003475746339209884
1888.0,0.0003475746339209884
1887.0,0.0003475746339209884
1886.0,0.00026065489343207737
1885.0,8.686758342868472e-05
1884.0,-4.3427276862573194e-05
1883.0,-8.685021164911433e-05
1882.0,-8.685021164911433e-05
1881.0,-0.00013026880522692963
1880.0,-0.00021709297223004853
1879.0,-0.0003472966853634851
1878.0,-0.0005208409361854294
1877.0,-0.0006509536295951079
1876.0,-0.0007376737740329986
1875.0,-0.0007810273534953893
1874.0,-0.0008243766056055257
1873.0,-0.0007810273534953893
1872.0,-0.0007376737740329986
1871.0,-0.0006943158663546001
1870.0,-0.0006943158663546001
1869.0,-0.0007810273534953893
1868.0,-0.0008677215312267172
1867.0,-0.0009543984064577238
1866.0,-0.001041057986093552
1865.0,-0.0010843812922201046
1864.0,-0.0010843812922201046
1863.0,-0.0010843812922201046
1862.0,-0.0010843812922201046
1861.0,-0.0011277002770349043
1860.0,-0.0011277002770349043
1859.0,-0.0010843812922201046
1858.0,-0.001041057986093552
1857.0,-0.001041057986093552
1856.0,-0.0010843812922201046
1855.0,-0.0010843812922201046
1854.0,-0.0011277002770349043
1853.0,-0.0011710149414008164
1852.0,-0.0011710149414008164
1851.0,-0.0010843812922201046
1850.0,-0.0009977303577937136
1849.0,-0.0008677215312267172
1848.0,-0.0006943158663546001
1847.0,-0.0004774613744551459
1846.0,-0.0002604985473904087
1845.0,-0.00017368305846510168
1844.0,-0.00017368305846510168
1843.0,-0.00017368305846510168
1842.0,-0.00013026880522692963
1841.0,-0.00013026880522692963
1840.0,-0.00013026880522692963
1839.0,-0.00017368305846510168
1838.0,-0.00017368305846510168
1837.0,-0.00017368305846510168
1836.0,-0.00013026880522692963
1835.0,-4.3427276862573194e-05
1834.0,4.343161980746579e-05
1833.0,0.00017375254558760211
1832.0,0.00030411258916074324
1831.0,0.0003910410285830057
1830.0,0.0003475746339209884
1829.0,0.00030411258916074324
1828.0,0.0003475746339209884
1827.0,0.000521466320689834
1826.0,0.0006084382809090627
1825.0,0.000521466320689834
1824.0,0.0003475746339209884
1823.0,0.00026065489343207737
1822.0,0.00017375254558760211
1821.0,4.343161980746579e-05
1820.0,-4.3427276862573194e-05
1819.0,-8.685021164911433e-05
1818.0,-8.685021164911433e-05
1817.0,-0.00013026880522692963
1816.0,-0.00021709297223004853
1815.0,-0.0002604985473904087
1814.0,-0.0003472966853634851
1813.0,-0.00043407747931878404
1812.0,-0.0005642161653756084
1811.0,-0.0006943158663546001
1810.0,-0.0008243766056055257
1809.0,-0.0009110621312231615
1808.0,-0.0009543984064577238
1807.0,-0.0009543984064577238
1806.0,-0.0009977303577937136
1805.0,-0.001041057986093552
1804.0,-0.001041057986093552
1803.0,-0.0009543984064577238
1802.0,-0.0009110621312231615
1801.0,-0.0009977303577937136
1800.0,-0.0011277002770349043
1799.0,-0.001257631312230778
1798.0,-0.001344230411601366
1797.0,-0.0013875234866409514
1796.0,-0.001344230411601366
1795.0,-0.001257631312230778
1794.0,-0.0011710149414008164
1793.0,-0.001257631312230778
1792.0,-0.0013875234866409514
1791.0,-0.001344230411601366
1790.0,-0.0013009330204178937
1789.0,-0.0013009330204178937
1788.0,-0.001344230411601366
1787.0,-0.0013009330204178937
1786.0,-0.001257631312230778
1785.0,-0.0013009330204178937
1784.0,-0.001344230411601366
1783.0,-0.0013009330204178937
1782.0,-0.001257631312230778
1781.0,-0.0013009330204178937
1780.0,-0.001257631312230778
1779.0,-0.0010843812922201046
1778.0,-0.0009543984064577238
1777.0,-0.0009110621312231615
1776.0,-0.0008243766056055257
1775.0,-0.0006075870628903246
1774.0,-0.00043407747931878404
1773.0,-0.0005642161653756084
1772.0,-0.0006943158663546001
1771.0,-0.0003906892499099257
1770.0,0.00021720154586435392
1769.0,0.0007389288868995258
1768.0,0.0010435595295137379
1767.0,0.0012612837441823288
1766.0,0.0014791171649619628
1765.0,0.0017406615763013722
1764.0,0.002089632653256679
1763.0,0.0026573093983774942
1762.0,0.0032694845648473247
1761.0,0.0037510854308679953
1760.0,0.0043648054024501
1759.0,0.005199100705396198
1758.0,0.00625524344553785
1757.0,0.007269796045857202
1756.0,0.008419542825660153
1755.0,0.009705553871561357
1754.0,0.01117359295472431
1753.0,0.012780770091995297
1752.0,0.015022873584506602
1751.0,0.018136109008649592
1750.0,0.021773818325474092
1749.0,0.02562649291857677
1748.0,0.029792641193145286
1747.0,0.03442204208947208
1746.0,0.03957679292217042
1745.0,0.04541983725624266
1744.0,0.052419250695677544
1743.0,0.060231224546650086
1742.0,0.06844043290919477
1741.0,0.07768983678560404
1740.0,0.08900228368935714
1739.0,0.10061729446673495
1738.0,0.10952309103982927
1737.0,0.11588463798833115
1736.0,0.12314735239865637
1735.0,0.13709378643700187
1734.0,0.15757799664235028
1733.0,0.1745089701205691
1732.0,0.18521985425419518
1731.0,0.19497515557019485
1730.0,0.20662875108104428
1729.0,0.2192507688964478
1728.0,0.23113999915704286
1727.0,0.24214865631442017
1726.0,0.2534436385896308
1725.0,0.2660808489876092
1724.0,0.2800061736323962
1723.0,0.29353826236864533
1722.0,0.3039058400047767
1721.0,0.3098925605436693
1720.0,0.3143478158844757
1719.0,0.3234892897174464
1718.0,0.3409399277590617
1717.0,0.358724242768087
1716.0,0.36744148546732824
1715.0,0.369470428573176
1714.0,0.3678465164893674
1713.0,0.36221017063777095
1712.0,0.3527148549746333
1711.0,0.34132097141755136
1710.0,0.329197715739056
1709.0,0.3156933539283684
1708.0,0.30024896831048564
1707.0,0.2835792661534451
1706.0,0.2670436304243753
1705.0,0.25173442733125917
1704.0,0.2376966367122315
1703.0,0.2243167509739561
1702.0,0.21077194273266486
1701.0,0.19688444510997294
1700.0,0.18455508375564977
1699.0,0.17502853887630665
1698.0,0.16698045292346864
1697.0,0.15895353459069628
1696.0,0.15107228677292173
1695.0,0.14405705376768396
1694.0,0.13816700234205515
1693.0,0.13282724882135022
1692.0,0.1275523522109867
1691.0,0.12257105921178035
1690.0,0.11833009232793867
1689.0,0.1148084593931522
1688.0,0.11159583226295333
1687.0,0.10807246577932506
1686.0,0.10452220372428545
1685.0,0.1022080180607754
1684.0,0.1014393550602879
1683.0,0.10017949757290379
1682.0,0.09783387072894878
1681.0,0.0950141189006366
1680.0,0.09205147838772776
1679.0,0.08910891135547172
1678.0,0.086239113587677
1677.0,0.08354605145007499
1676.0,0.08113125661901543
1675.0,0.07904229404455076
1674.0,0.07696333132921396
1673.0,0.07473949048056472
1672.0,0.07237303755504598
1671.0,0.0702746216219956
1670.0,0.06864384953207203
1669.0,0.06737405597821788
1668.0,0.06590573164451952
1667.0,0.06414020196211956
1666.0,0.062131203436140536
1665.0,0.06003170944866376
1664.0,0.05804158346918653
1663.0,0.05635711724787096
1662.0,0.0549747987575373
1661.0,0.053646002773725554
1660.0,0.05222329153526162
1659.0,0.05075640943173498
1658.0,0.049294465226138895
1657.0,0.047982909952573705
1656.0,0.04672366333269573
1655.0,0.045564513671517703
1654.0,0.0451788169482068
1653.0,0.0454680573730859
1652.0,0.044793462458058375
1651.0,0.04368746915880539
1650.0,0.042584285277331047
1649.0,0.04138834223512067
1648.0,0.040529297924893015
1647.0,0.04014804520039483
1646.0,0.03995754427315856
1645.0,0.03948165721929198
1644.0,0.03876880295533702
1643.0,0.03791491948264003
1642.0,0.0371100126082089
1641.0,0.036401037402758574
1640.0,0.035740369803151095
1639.0,0.03508070571335731
1638.0,0.034469056377139484
1637.0,0.03414006319292828
1636.0,0.034046110897937076
1635.0,0.03385826726096752
1634.0,0.033482823553208085
1633.0,0.033060836978886954
1632.0,0.03249882527715853
1631.0,0.03179733185715028
1630.0,0.031190286087141805
1629.0,0.030770520137356927
1628.0,0.030397735151460825
1627.0,0.03002526987828502
1626.0,0.029653123769906697
1625.0,0.02932775731028059
1624.0,0.029095501846216454
1623.0,0.02904906565457588
1622.0,0.029141943003497595
1621.0,0.029281296279810798
1620.0,0.02942069428514915
1619.0,0.029746130405213123
1618.0,0.030537492025363155
1617.0,0.03193753992355086
1616.0,0.0332483359486222
1615.0,0.03385826726096752
1614.0,0.03385826726096752
1613.0,0.033482823553208085
1612.0,0.03277974021703267
1611.0,0.03189079887180224
1610.0,0.030910397045078586
1609.0,0.029932203450862893
1608.0,0.02904906565457588
1607.0,0.02812138297373412
1606.0,0.02724191609646076
1605.0,0.026318081496016443
1604.0,0.025488307262671706
1603.0,0.024660115394541604
1602.0,0.023879381700184332
1601.0,0.023191662661933732
1600.0,0.022505030926963654
1599.0,0.021910826943857264
1598.0,0.021317434843055594
1597.0,0.020861530453190058
1596.0,0.02045162529590483
1595.0,0.020178569969774962
1594.0,0.01995115493504329
1593.0,0.019814763052665052
1592.0,0.019769308608968306
1591.0,0.019814763052665052
1590.0,0.01995115493504329
1589.0,0.02022406727031445
1588.0,0.02058821736556471
1587.0,0.0211806132671577
1586.0,0.022139270735302752
1585.0,0.023695883447997224
1584.0,0.025856900097785074
1583.0,0.02858497661500481
1582.0,0.03151705144606498
1581.0,0.034187046963396917
1580.0,0.03621217265444465
1579.0,0.03739392707587297
1578.0,0.037583306554248797
1577.0,0.03658998431977123
1576.0,0.03470420418834386
1575.0,0.032545631817259224
1574.0,0.03063068826647264
1573.0,0.028863370523193765
1572.0,0.027149444152769986
1571.0,0.025350165561278004
1570.0,0.023604163388120325
1569.0,0.022230681908425698
1568.0,0.021271822861508305
1567.0,0.020542681902151694
1566.0,0.019769308608968306
1565.0,0.01899731005860028
1564.0,0.01840788278591865
1563.0,0.018045555530026514
1562.0,0.017864505196230507
1561.0,0.017547848615010242
1560.0,0.017186237868137555
1559.0,0.017005545341335804
1558.0,0.016644385668211692
1557.0,0.01632861713980338
1556.0,0.016103208673694303
1555.0,0.01578783323856614
1554.0,0.01538268676325183
1553.0,0.015067833932588037
1552.0,0.014798141635428141
1551.0,0.014573525916998342
1550.0,0.014393916947563534
1549.0,0.014124642691606404
1548.0,0.01381070026317599
1547.0,0.013496984613259544
1546.0,0.013317820220494436
1545.0,0.01322826573375524
1544.0,0.013138729709955221
1543.0,0.012959713020733288
1542.0,0.012780770091995297
1541.0,0.012736045877764557
1540.0,0.012691326268817527
1539.0,0.012378417874516323
1538.0,0.012199714248127602
1537.0,0.01215504982870197
1536.0,0.01215504982870197
1535.0,0.012110390002254778
1534.0,0.012289056869694281
1533.0,0.01264661126420652
1532.0,0.012870232340102872
1531.0,0.012914970375878188
1530.0,0.012870232340102872
1529.0,0.012870232340102872
1528.0,0.012870232340102872
1527.0,0.012914970375878188
1526.0,0.012870232340102872
1525.0,0.01264661126420652
1524.0,0.012333735073725371
1523.0,0.012021084124518078
1522.0,0.011842527443247208
1521.0,0.011753276624621556
1520.0,0.011664044143949504
1519.0,0.011485634166333858
1518.0,0.011351874764248926
1517.0,0.011351874764248926
1516.0,0.011530229790124524
1515.0,0.011797899741219142
1514.0,0.012244383261476699
1513.0,0.012870232340102872
1512.0,0.013945219230304673
1511.0,0.015427684378367834
1510.0,0.017502630802287644
1509.0,0.02045162529590483
1508.0,0.025995203102585407
1507.0,0.03437503289075727
1506.0,0.04010041213405646
1505.0,0.04057697805689475
1504.0,0.03810452633214956
1503.0,0.03432802877989327
1502.0,0.029885677714903025
1501.0,0.025304128090317013
1500.0,0.021135015652343103
1499.0,0.01759307113620534
1498.0,0.014708281407112
1497.0,0.012423105273012602
1496.0,0.010728208358306901
1495.0,0.009439170005980158
1494.0,0.008596697419959609
1493.0,0.008109696063975047
1492.0,0.007844288957383316
1491.0,0.007667440952535687
1490.0,0.00762324020119709
1489.0,0.007755855953228474
1488.0,0.007976972236149349
1487.0,0.008065450281052211
1486.0,0.008242460465651913
1485.0,0.008552401996197112
1484.0,0.008951223547323472
1483.0,0.00939478857608056
1482.0,0.009883233932095559
1481.0,0.010505687227290839
1480.0,0.011129033935354915
1479.0,0.011664044143949504
1478.0,0.012199714248127602
1477.0,0.012914970375878188
1476.0,0.013586594534531482
1475.0,0.014124642691606404
1474.0,0.014573525916998342
1473.0,0.015112798935672522
1472.0,0.01578783323856614
1471.0,0.016193358021584725
1470.0,0.016599261819461697
1469.0,0.017141057687924732
1468.0,0.017955020928509757
1467.0,0.019042683770379876
1466.0,0.020770406977844713
1465.0,0.02314585342378117
1464.0,0.025672564576383117
1463.0,0.0277045713888604
1462.0,0.029374223311705583
1461.0,0.031003673351687855
1460.0,0.03277974021703267
1459.0,0.03508070571335731
1458.0,0.03848398855105106
1457.0,0.04244059810252043
1456.0,0.04484161307420642
1455.0,0.04541983725624266
1454.0,0.045323413081356456
1453.0,0.04508244626504121
1452.0,0.044793462458058375
1451.0,0.044360346976747955
1450.0,0.04397571771932274
1449.0,0.04368746915880539
1448.0,0.04344740808260106
1447.0,0.04315950984076644
1446.0,0.04282386959515394
1445.0,0.04248848854552012
1444.0,0.04215336629184985
1443.0,0.04186632432376469
1442.0,0.04153168163305643
1441.0,0.041149548320321694
1440.0,0.040672354027829094
1439.0,0.03986232513620536
1438.0,0.038721320914956836
1437.0,0.0369681249461018
1436.0,0.03470420418834386
1435.0,0.032218091924200776
1434.0,0.029653123769906697
1433.0,0.027056991894431892
1432.0,0.02438440203310499
1431.0,0.021773818325474092
1430.0,0.01940584422377989
1429.0,0.017367005605150476
1428.0,0.01578783323856614
1427.0,0.014708281407112
1426.0,0.013945219230304673
1425.0,0.013452186585275916
1424.0,0.013362604389846044
1423.0,0.01372104409400876
1422.0,0.014393916947563534
1421.0,0.015652742414136167
1420.0,0.018226681372252695
1419.0,0.02255077261765881
1418.0,0.028028723600243666
1417.0,0.03409308450480819
1416.0,0.041149548320321694
1415.0,0.04978123335813667
1414.0,0.06038092104330195
1413.0,0.07288638806623937
1412.0,0.08634506491338012
1411.0,0.09854167860388774
1410.0,0.10723776538418317
1409.0,0.11153968196461372
1408.0,0.11114683301706374
1407.0,0.10657115822045493
1406.0,0.0989778267519208
1405.0,0.09012318200960712
1404.0,0.08175990977858505
1403.0,0.07458476291575367
1402.0,0.0685421293109949
1401.0,0.06338573802478864
1400.0,0.05863766428823891
1399.0,0.05443294655761144
1398.0,0.05095170768433621
1397.0,0.048128442871635535
1396.0,0.0454680573730859
1395.0,0.04282386959515394
1394.0,0.040338629726504704
1393.0,0.038151940981675736
1392.0,0.03625938114211591
1391.0,0.034516075754861264
1390.0,0.03301397488206215
1389.0,0.03184406285002961
1388.0,0.030910397045078586
1387.0,0.030211462585061133
1386.0,0.029746130405213123
1385.0,0.029513651152349718
1384.0,0.029560137048236124
1383.0,0.029932203450862893
1382.0,0.03081714076773867
1381.0,0.03207779326948268
1380.0,0.03371743783253667
1379.0,0.035646070707806565
1378.0,0.037583306554248797
1377.0,0.03957679292217042
1376.0,0.04167506835594681
1375.0,0.044167989767578186
1374.0,0.04672366333269573
1373.0,0.048808242065293994
1372.0,0.05002482217034632
1371.0,0.050317309204795935
1370.0,0.04987865248862655
1369.0,0.04851676924770687
1368.0,0.04628861957244457
1367.0,0.04325545471730896
1366.0,0.03967194946985697
1365.0,0.03583468937826462
1364.0,0.03179733185715028
1363.0,0.027750864037404455
1362.0,0.024246610963712723
1361.0,0.021499930688540836
1360.0,0.01940584422377989
1359.0,0.017774008325325275
1358.0,0.016554142658660398
1357.0,0.015742798294583915
1356.0,0.015292705517326866
1355.0,0.015202742910707112
1354.0,0.015427684378367834
1353.0,0.01596801972881945
1352.0,0.016824927962187042
1351.0,0.01800028587012159
1350.0,0.01958753839310856
1349.0,0.02159120737696063
1348.0,0.024017056287453542
1347.0,0.02677975314776626
1346.0,0.029792641193145286
1345.0,0.033060836978886954
1344.0,0.03625938114211591
1343.0,0.03924390909822728
1342.0,0.041914151478914974
1341.0,0.044071843103049346
1340.0,0.04527520902093718
1339.0,0.04503426894157925
1338.0,0.0431115453499229
1337.0,0.03981472339538916
1336.0,0.03578752703018084
1335.0,0.03151705144606498
1334.0,0.027565723042634938
1333.0,0.024292536462819925
1332.0,0.021773818325474092
1331.0,0.020087589665283012
1330.0,0.0190880622231564
1329.0,0.018770512579999288
1328.0,0.01899731005860028
1327.0,0.019678413991243593
1326.0,0.020770406977844713
1325.0,0.022093572362881675
1324.0,0.023695883447997224
1323.0,0.025350165561278004
1322.0,0.027149444152769986
1321.0,0.029002634427514717
1320.0,0.030957032694186815
1319.0,0.0329671178412978
1318.0,0.0349394793888016
1317.0,0.036873558918095295
1316.0,0.03876880295533702
1315.0,0.04076775094900409
1314.0,0.04291974034210022
1313.0,0.045323413081356456
1312.0,0.04778894189133087
1311.0,0.050317309204795935
1310.0,0.05290953578037816
1309.0,0.05566540802921782
1308.0,0.058538260652670315
1307.0,0.06133019897732073
1306.0,0.06398920428479049
1305.0,0.06671522765130522
1304.0,0.06961138175567827
1303.0,0.07278366940873537
1302.0,0.07644514193245056
1301.0,0.08071265949561734
1300.0,0.08576265223225898
1299.0,0.09146136782804049
1298.0,0.0975619438013351
1297.0,0.10408045468998406
1296.0,0.11081038795292675
1295.0,0.11758931562603192
1294.0,0.12418661116024232
1293.0,0.13070959579060148
1292.0,0.13715334001706125
1291.0,0.14333151638846497
1290.0,0.14923127307111983
1289.0,0.15508812608785938
1288.0,0.16077342598656452
1287.0,0.1660882849286216
1286.0,0.17076057185861093
1285.0,0.17509352869788763
1284.0,0.1791420105603001
1283.0,0.18283142761894444
1282.0,0.18601892436352818
1281.0,0.18896149139578422
1280.0,0.19165396425960513
1279.0,0.19395576425191186
1278.0,0.19613336571501572
1277.0,0.1983905119726812
1276.0,0.2010042655561186
1275.0,0.2041199826559248
1274.0,0.20788859091283163
1273.0,0.21282300752944616
1272.0,0.21903497039168318
1271.0,0.22643295107394135
1270.0,0.2347040703019434
1269.0,0.24374435124576666
1268.0,0.25359935550843904
1267.0,0.2636831920958911
1266.0,0.2737619531973625
1265.0,0.2837461741039635
1264.0,0.29328221766324125
1263.0,0.3019864960608183
1262.0,0.30953810675382165
1261.0,0.31614279459965355
1260.0,0.32166375326781993
1259.0,0.3255981871547182
1258.0,0.328179439816751
1257.0,0.3302183847914635
1256.0,0.3322669474667326
1255.0,0.33432521900610657
1254.0,0.3366760663717876
1253.0,0.3397038397292702
1252.0,0.3436142809413123
1251.0,0.34804393046692583
1250.0,0.35300846252287754
1249.0,0.358724242768087
1248.0,0.36491856398912703
1247.0,0.37099838071300817
1246.0,0.37664731846200805
1245.0,0.38205656517102704
1244.0,0.3871102307125154
1243.0,0.39115317767358837
1242.0,0.39394125058968577
1241.0,0.3957739469155299
1240.0,0.3964226318485333
1239.0,0.3953420279521289
1238.0,0.3925449767853315
1237.0,0.38827669199265813
1236.0,0.3825802532628235
1235.0,0.3753054687279187
1234.0,0.36643055744590813
1233.0,0.3565473235138126
1232.0,0.3458234581220394
1231.0,0.3344190089820469
1230.0,0.32230181852548934
1229.0,0.31006989598178203
1228.0,0.29800052511036323
1227.0,0.28592183501814405
1226.0,0.27384353382724513
1225.0,0.2620126736665691
1224.0,0.2506502394025234
1223.0,0.2395021247734732
1222.0,0.22855951336008817
1221.0,0.2182446253475312
1220.0,0.20844969497266996
1219.0,0.1990081387398286
1218.0,0.19003647828598602
1217.0,0.18170810920000413
1216.0,0.17392519729917355
1215.0,0.1666616110606025
1214.0,0.15976840504189105
1213.0,0.15347733158371324
1212.0,0.1475810070629986
1211.0,0.14206473528057106
1210.0,0.1367961409713705
1209.0,0.13194363817695853
1208.0,0.12743585690934855
1207.0,0.12308968865537295
1206.0,0.11895789180659433
1205.0,0.11492161585077598
1204.0,0.11103465569966264
1203.0,0.10729336219433439
1202.0,0.10369429253391926
1201.0,0.10028890542885538
1200.0,0.09701860020249709
1199.0,0.09382663635595145
1198.0,0.09071147583774919
1197.0,0.08772478950118767
1196.0,0.08486409337798806
1195.0,0.08207457793525874
1194.0,0.07930286553008004
1193.0,0.07660053384128362
1192.0,0.07406940213152868
1191.0,0.07170658776779781
1190.0,0.06961138175567827
1189.0,0.06788152797087754
1188.0,0.0665127121512945
1187.0,0.06550154875643233
1186.0,0.06484555278383164
1185.0,0.06464390705442691
1184.0,0.06494641076893504
1183.0,0.06575411897692884
1182.0,0.06696850489759454
1181.0,0.0684912781333824
1180.0,0.07022356719509815
1179.0,0.07211658966929302
1178.0,0.07391491307485598
1177.0,0.07546228222451012
1176.0,0.07654873036034848
1175.0,0.07706704344478843
1174.0,0.07685964397479927
1173.0,0.07582412969807906
1172.0,0.07391491307485598
1171.0,0.07114346641808922
1170.0,0.06772922410050963
1169.0,0.06398920428479049
1168.0,0.06038092104330195
1167.0,0.05709945885970602
1166.0,0.05428528594013993
1165.0,0.05197846685889629
1164.0,0.050073556332087765
1163.0,0.0486139051197072
1162.0,0.04744970610179822
1161.0,0.04657860031896477
1160.0,0.046143701775014145
1159.0,0.046047116768076934
1158.0,0.04638525830935958
1157.0,0.047062332249019345
1156.0,0.048128442871635535
1155.0,0.04958646063061889
1154.0,0.05148923116234294
1153.0,0.05389176956309405
1152.0,0.05685187064143715
1151.0,0.060231224546650086
1150.0,0.06398920428479049
1149.0,0.06813548650796819
1148.0,0.07268097504034388
1147.0,0.07753405470158659
1146.0,0.08259953204474924
1145.0,0.08788427092114603
1144.0,0.09334178232840018
1143.0,0.09881421986284966
1142.0,0.10413564875270076
1141.0,0.10946720807225518
1140.0,0.11463877996848804
1139.0,0.11958660012208333
1138.0,0.12424442074194553
1137.0,0.12854382597704617
1136.0,0.13270933014511588
1135.0,0.1366771398795441
1134.0,0.1405014418122239
1133.0,0.14448084433219988
1132.0,0.14874165128092476
1131.0,0.15323004646278116
1130.0,0.1582027011256446
1129.0,0.1637391971415132
1128.0,0.16998906406388214
1127.0,0.17678668671733244
1126.0,0.18402399902801458
1125.0,0.19178902707577805
1124.0,0.20003947259401644
1123.0,0.2083093509798819
1122.0,0.21623930425607596
1121.0,0.22358941119265774
1120.0,0.2301059641878309
1119.0,0.23522628308895954
1118.0,0.23852322045529828
1117.0,0.24018112262517377
1116.0,0.2401056259745007
1115.0,0.23837281543841726
1114.0,0.23552497256559102
1113.0,0.2326214758858196
1112.0,0.2304749798289496
1111.0,0.2298847052128985
1110.0,0.23136189875238555
1109.0,0.23537560214901854
1108.0,0.2420728168866706
1107.0,0.25072759170157966
1106.0,0.2609025538825249
1105.0,0.2720522904552032
1104.0,0.28391314622516783
1103.0,0.29584948316020077
1102.0,0.3075937651663696
1101.0,0.31893975636818817
1100.0,0.3298469548078198
1099.0,0.3395139842150323
1098.0,0.3478503945983471
1097.0,0.3551676711743639
1096.0,0.36131111330987653
1095.0,0.3660268442103265
1094.0,0.36916548217194944
1093.0,0.37099838071300817
1092.0,0.3716110699496884
1091.0,0.3707943428976963
1090.0,0.36865771351606735
1089.0,0.365724305374056
1088.0,0.36211018341920953
1087.0,0.3578323655950548
1086.0,0.35261702988538013
1085.0,0.3470771124320582
1084.0,0.3411304077980377
1083.0,0.3340439705460432
1082.0,0.32569011105852286
1081.0,0.3164126824272331
1080.0,0.30627305107635316
1079.0,0.295249095709329
1078.0,0.283495836226783
1077.0,0.2714838952402334
1076.0,0.259321574772545
1075.0,0.24718356881172854
1074.0,0.23530093620163206
1073.0,0.22409842110832567
1072.0,0.2137456042102197
1071.0,0.2041199826559248
1070.0,0.19511125537760865
1069.0,0.18681946741398825
1068.0,0.17920761891179637
1067.0,0.17204947169736973
1066.0,0.16551571466519466
1065.0,0.15958022226351387
1064.0,0.1542200328881107
1063.0,0.1493537648169334
1062.0,0.14502632627358292
1061.0,0.14122226269455074
1060.0,0.13816700234205515
1059.0,0.13578566953867033
1058.0,0.13424477592854833
1057.0,0.13353543402825974
1056.0,0.13371266091580503
1055.0,0.13454067733803532
1054.0,0.13584504399797437
1053.0,0.13768969004572962
1052.0,0.14014147951900724
1051.0,0.14290884532648618
1050.0,0.14587621789883287
1049.0,0.14898639317633
1048.0,0.15205736115477642
1047.0,0.15490195998574308
1046.0,0.15745316350498495
1045.0,0.15989390554324223
1044.0,0.1619068615544017
1043.0,0.16323295260579473
1042.0,0.16380251922107458
1041.0,0.16380251922107458
1040.0,0.163359458427226
1039.0,0.1624115617644888
1038.0,0.16108797259400132
1037.0,0.159517512786558
1036.0,0.15782777061438424
1035.0,0.15614457737683884
1034.0,0.15434394001645568
1033.0,0.15267416921457633
1032.0,0.15101079374883275
1031.0,0.14929251462546267
1030.0,0.14745901423020125
1029.0,0.14575470293388149
1028.0,0.14442027749828212
1027.0,0.14363367634075197
1026.0,0.143996546002779
1025.0,0.1463626180414057
1024.0,0.15162611615539823
1023.0,0.1605219526258017
1022.0,0.17340694606595197
1021.0,0.1902383348928749
1020.0,0.20978522975602076
1019.0,0.22958986848609375
1018.0,0.24641694110709333
1017.0,0.2569608451950669
1016.0,0.2589272276266785
1015.0,0.25157937753243176
1014.0,0.23687162320086297
1013.0,0.2186036948032093
1012.0,0.20010831534313467
1011.0,0.18342730397389695
1010.0,0.16921892439363884
1009.0,0.15745316350498495
1008.0,0.1477030341730745
1007.0,0.13960209487268727
1006.0,0.13276828548110586
1005.0,0.12720296001040166
1004.0,0.12262865413022594
1003.0,0.11878658374498086
1002.0,0.11537453674376552
1001.0,0.11221396516162851
1000.0,0.10941133229451272
999.0,0.10684878687013422
998.0,0.10457745396059215
997.0,0.10253786198693682
996.0,0.10078158214862709
995.0,0.09914149529800831
994.0,0.09767069414168117
993.0,0.09636748391576244
992.0,0.09528445472131919
991.0,0.09436599867304518
990.0,0.0935572061829677
989.0,0.09285746899685954
988.0,0.09242742120144909
987.0,0.09210516458371698
986.0,0.09189045960744768
985.0,0.0917831469106074
984.0,0.0917831469106074
983.0,0.09189045960744768
982.0,0.09210516458371698
981.0,0.09237369515673355
980.0,0.09274991711867164
979.0,0.09301884677114591
978.0,0.09312646527792956
977.0,0.09318028453345462
976.0,0.09318028453345462
975.0,0.09307265269104414
974.0,0.09285746899685954
973.0,0.09253489323414388
972.0,0.09205147838772776
971.0,0.09130056764777605
970.0,0.09023008526723086
969.0,0.08889568219596411
968.0,0.08740600224789441
967.0,0.08570974433405087
966.0,0.08396738981143059
965.0,0.08217951800630297
964.0,0.08045124103115198
963.0,0.07867775641617802
962.0,0.07696333132921396
961.0,0.07530729697981409
960.0,0.07365755337434488
959.0,0.07206531825882068
958.0,0.07063217075990047
957.0,0.06935655895783555
956.0,0.06823711151882228
955.0,0.06722192993944942
954.0,0.0663102910421054
953.0,0.06545105233385295
952.0,0.06469430971007495
951.0,0.06393888339001164
950.0,0.06328524178879635
949.0,0.06268275223750575
948.0,0.06218131530164395
947.0,0.061780582187257016
946.0,0.06133019897732073
945.0,0.060880282351513104
944.0,0.060430831344098435
943.0,0.05993198626064755
942.0,0.05953332233647113
941.0,0.05918479134919874
940.0,0.058936011780097886
939.0,0.05863766428823891
938.0,0.0582898510583536
937.0,0.05799194697768684
936.0,0.057743849580535134
935.0,0.05749589383191922
934.0,0.057198533682059516
933.0,0.05690137699451481
932.0,0.05665390164340933
931.0,0.05635711724787096
930.0,0.05606053552778367
929.0,0.05571477931124735
928.0,0.05536929814372171
927.0,0.05502409158795207
926.0,0.054679159207724926
925.0,0.05428528594013993
924.0,0.053842605077627725
923.0,0.05340037498486727
922.0,0.05295859474477971
921.0,0.05261529831525902
920.0,0.052419250695677544
919.0,0.05232126006306337
918.0,0.05232126006306337
917.0,0.05237025261564554
916.0,0.0525172634430815
915.0,0.05286048235717078
914.0,0.053449489430144714
913.0,0.05438372077326825
912.0,0.05566540802921782
911.0,0.05724807957018618
910.0,0.059035506507200575
909.0,0.06118017497378969
908.0,0.0636873663378068
907.0,0.0665127121512945
906.0,0.06935655895783555
905.0,0.07221915065262552
904.0,0.07494587968815725
903.0,0.07748213975538865
902.0,0.07977228854307139
901.0,0.08181233864107451
900.0,0.08354605145007499
899.0,0.08502252755566908
898.0,0.08608023504853413
897.0,0.0867691288864394
896.0,0.0872466963286771
895.0,0.08740600224789441
894.0,0.08740600224789441
893.0,0.08740600224789441
892.0,0.08745911720936239
891.0,0.08767164203958999
890.0,0.0881502035005799
889.0,0.08889568219596411
888.0,0.0900697402471693
887.0,0.09146136782804049
886.0,0.09318028453345462
885.0,0.09533854208447545
884.0,0.09799710864927058
883.0,0.10138450258381404
882.0,0.10551778498990938
881.0,0.11058623595729111
880.0,0.1165657063169907
879.0,0.12320502379929943
878.0,0.13018179202067182
877.0,0.1373320497714121
876.0,0.14417809459397013
875.0,0.1502121757623145
874.0,0.1545918603782066
873.0,0.15676722190199066
872.0,0.15633127702085625
871.0,0.1534154971019539
870.0,0.14837479684669086
869.0,0.14200450443907608
868.0,0.1350738084609946
867.0,0.12784372725170723
866.0,0.12084675381575383
865.0,0.11446916681190777
864.0,0.10896458468468917
863.0,0.10446696051592963
862.0,0.10089114180660053
861.0,0.09826930827078129
860.0,0.09636748391576244
859.0,0.09496007192378841
858.0,0.09393445524476318
857.0,0.09312646527792956
856.0,0.09248115389337075
855.0,0.0919977988274463
854.0,0.0916222275676053
853.0,0.09151498112135026
852.0,0.09151498112135026
851.0,0.09156860103399356
850.0,0.09146136782804049
849.0,0.09124698081546634
848.0,0.09097914578884403
847.0,0.09071147583774919
846.0,0.09060445403289452
845.0,0.09060445403289452
844.0,0.0905509530187334
843.0,0.09028354676565531
842.0,0.08974922769985194
841.0,0.08905559425002108
840.0,0.08830984124613894
839.0,0.08751223866767632
838.0,0.08655704514060414
837.0,0.08549817717268593
836.0,0.08428366205400617
835.0,0.08280969148843575
834.0,0.08113125661901543
833.0,0.07951143534170213
832.0,0.07800156869172903
831.0,0.07665234350217442
830.0,0.07530729697981409
829.0,0.07406940213152868
828.0,0.07304051161972436
827.0,0.07211658966929302
826.0,0.07129697256940304
825.0,0.07058107428570715
824.0,0.0699173666076287
823.0,0.06925467168888666
822.0,0.06874559358358656
821.0,0.06844043290919477
820.0,0.06828793294324442
819.0,0.06823711151882228
818.0,0.06823711151882228
817.0,0.06828793294324442
816.0,0.06828793294324442
815.0,0.06828793294324442
814.0,0.06823711151882228
813.0,0.06828793294324442
812.0,0.06844043290919477
811.0,0.06869471857832687
810.0,0.06879647454924775
809.0,0.0688982543673613
808.0,0.0690000580438479
807.0,0.0690000580438479
806.0,0.06879647454924775
805.0,0.06833876031551878
804.0,0.06767846801070698
803.0,0.06691783763020887
802.0,0.06605739725873905
801.0,0.06545105233385295
800.0,0.06545105233385295
799.0,0.06656333217371957
798.0,0.0692037370166998
797.0,0.07340034609297241
796.0,0.07846958649875768
795.0,0.08317771540408803
794.0,0.08639805027084257
793.0,0.08761850108119962
792.0,0.08666307406737683
791.0,0.0839147001562972
790.0,0.07992887570247587
789.0,0.07541061433058172
788.0,0.07093887591523451
787.0,0.06671522765130522
786.0,0.06288348923294618
785.0,0.05938391766259232
784.0,0.05625823416868636
783.0,0.05340037498486727
782.0,0.050902874887084115
781.0,0.048808242065293994
780.0,0.047062332249019345
779.0,0.0454680573730859
778.0,0.0439276630048171
777.0,0.04248848854552012
776.0,0.041101805289228244
775.0,0.03981472339538916
774.0,0.038531444649213764
773.0,0.037299268295658994
772.0,0.036117771071222604
771.0,0.03489241415094413
770.0,0.03367050483612166
769.0,0.032545631817259224
768.0,0.031563752288295444
767.0,0.030537492025363155
766.0,0.029374223311705583
765.0,0.028028723600243666
764.0,0.026733563891471412
763.0,0.02562649291857677
762.0,0.024706084643793647
761.0,0.02406295751688936
760.0,0.02365002099672653
759.0,0.023283295636617574
758.0,0.022871099419317753
757.0,0.02227639471115217
756.0,0.021545566634771474
755.0,0.020907099361673565
754.0,0.020315076172974234
753.0,0.019860222254245663
752.0,0.01949668180660491
751.0,0.019315025636685412
750.0,0.019360432556262852
749.0,0.019723858922159776
748.0,0.02045162529590483
747.0,0.02159120737696063
746.0,0.023329119375188556
745.0,0.026041313893296225
744.0,0.030351159519274695
743.0,0.036731748473764814
742.0,0.045516282844447975
741.0,0.056950888991593285
740.0,0.07088774334533943
739.0,0.08682216600953208
738.0,0.10430127304069425
737.0,0.12308968865537295
736.0,0.14302956651750764
735.0,0.1637391971415132
734.0,0.1847544080834369
733.0,0.20641913263184408
732.0,0.22885365118501477
731.0,0.25219990913563106
730.0,0.2767085535224161
729.0,0.3031196283172377
728.0,0.3311483519174814
727.0,0.3588234533868859
726.0,0.38247546511370767
725.0,0.3987006898056624
724.0,0.40483458520977056
723.0,0.3993537643376055
722.0,0.38299965887910115
721.0,0.35862505480787443
720.0,0.33003263009149597
719.0,0.30102999566398125
718.0,0.2740883677049517
717.0,0.25041826513444065
716.0,0.23040115161255348
715.0,0.2137456042102197
714.0,0.200246033588114
713.0,0.18956584407732735
712.0,0.1812464095022832
711.0,0.17457388223217696
710.0,0.1686422145579325
709.0,0.16310648362356628
708.0,0.15789023655938994
707.0,0.1532918545439932
706.0,0.1493537648169334
705.0,0.1459369881335788
704.0,0.1425468829647336
703.0,0.13834612978608907
702.0,0.13294519952329842
701.0,0.1267375405612734
700.0,0.1203880929341492
699.0,0.11458223488906394
698.0,0.10946720807225518
697.0,0.10540705207704448
696.0,0.10231793820358015
695.0,0.09979678698310646
694.0,0.09712721455392082
693.0,0.09415017335768128
692.0,0.09124698081546634
691.0,0.08910891135547172
690.0,0.0877779434675845
689.0,0.08682216600953208
688.0,0.08576265223225898
687.0,0.08460016478773014
686.0,0.08365134772453975
685.0,0.08328292240118751
684.0,0.0833881548906541
683.0,0.08359869639612438
682.0,0.08359869639612438
681.0,0.0833881548906541
680.0,0.08286224724355584
679.0,0.08160266115629988
678.0,0.07956359344924135
677.0,0.07717078033335123
676.0,0.07504911108438939
675.0,0.07350321072677968
674.0,0.07237303755504598
673.0,0.07124579782334672
672.0,0.07001940948448526
671.0,0.06884736147670667
670.0,0.06788152797087754
669.0,0.06701917807680191
668.0,0.06625970050306473
667.0,0.0654005617819271
666.0,0.06343599486473406
665.0,0.06068046892176193
664.0,0.05814087347462649
663.0,0.05635711724787096
662.0,0.05522131887649295
661.0,0.05458065739693696
660.0,0.054186873412661596
659.0,0.05374429280060267
658.0,0.05290953578037816
657.0,0.05173378011970464
656.0,0.05051241005349638
655.0,0.04973253198641148
654.0,0.04958646063061889
653.0,0.05002482217034632
652.0,0.050805225762017736
651.0,0.051684859310652254
650.0,0.052027420754219955
649.0,0.05173378011970464
648.0,0.050902874887084115
647.0,0.049927370249842395
646.0,0.04909991063361274
645.0,0.04875964967565971
644.0,0.048905443158337114
643.0,0.04919717703534143
642.0,0.04944043838819989
641.0,0.04973253198641148
640.0,0.0506099933550872
639.0,0.05217431555754937
638.0,0.05428528594013993
637.0,0.057000406633959555
636.0,0.060530669156469985
635.0,0.06469430971007495
634.0,0.0684912781333824
633.0,0.07063217075990047
632.0,0.07032568205141221
631.0,0.0676277178520861
630.0,0.06343599486473406
629.0,0.05938391766259232
628.0,0.05665390164340933
627.0,0.055566682299785564
626.0,0.05546797900801881
625.0,0.05531996611868961
624.0,0.054728418492290265
623.0,0.05413767551038262
622.0,0.05394093961487645
621.0,0.05403929642243144
620.0,0.05394093961487645
619.0,0.0531548860393769
618.0,0.05173378011970464
617.0,0.05051241005349638
616.0,0.050171041064686284
615.0,0.050414848673348
614.0,0.050414848673348
613.0,0.04982994019179987
612.0,0.04909991063361274
611.0,0.04875964967565971
610.0,0.04875964967565971
609.0,0.04866248120408234
608.0,0.04817696468408794
607.0,0.04754660357696672
606.0,0.047595060422975566
605.0,0.04885683989244738
604.0,0.051049389754451946
603.0,0.0525172634430815
602.0,0.05192951848105887
601.0,0.04978123335813667
600.0,0.0478374257855374
