cm-1,A
4000.0,-0.0052
3999.0,-0.0052
3998.0,-0.0052
3997.0,-0.0052
3996.0,-0.0052
3995.0,-0.0053
3994.0,-0.0053
3993.0,-0.0053
3992.0,-0.0054
3991.0,-0.0054
3990.0,-0.0054
3989.0,-0.0053
3988.0,-0.0052
3987.0,-0.0051
3986.0,-0.0051
3985.0,-0.0051
3984.0,-0.0051
3983.0,-0.0052
3982.0,-0.0052
3981.0,-0.0052
3980.0,-0.0052
3979.0,-0.0052
3978.0,-0.0051
3977.0,-0.0051
3976.0,-0.0051
3975.0,-0.0051
3974.0,-0.0051
3973.0,-0.005
3972.0,-0.005
3971.0,-0.0049
3970.0,-0.0049
3969.0,-0.0049
3968.0,-0.005
3967.0,-0.005
3966.0,-0.0051
3965.0,-0.0052
3964.0,-0.0052
3963.0,-0.0052
3962.0,-0.0052
3961.0,-0.0052
3960.0,-0.0052
3959.0,-0.0052
3958.0,-0.0051
3957.0,-0.0051
3956.0,-0.005
3955.0,-0.005
3954.0,-0.0049
3953.0,-0.005
3952.0,-0.005
3951.0,-0.005
3950.0,-0.005
3949.0,-0.005
3948.0,-0.005
3947.0,-0.005
3946.0,-0.005
3945.0,-0.005
3944.0,-0.005
3943.0,-0.005
3942.0,-0.005
3941.0,-0.0051
3940.0,-0.0051
3939.0,-0.0052
3938.0,-0.0052
3937.0,-0.0051
3936.0,-0.0051
3935.0,-0.005
3934.0,-0.005
3933.0,-0.005
3932.0,-0.005
3931.0,-0.005
3930.0,-0.0049
3929.0,-0.0048
3928.0,-0.0047
3927.0,-0.0046
3926.0,-0.0045
3925.0,-0.0046
3924.0,-0.0047
3923.0,-0.0048
3922.0,-0.0049
3921.0,-0.0049
3920.0,-0.0049
3919.0,-0.005
3918.0,-0.0051
3917.0,-0.0052
3916.0,-0.0051
3915.0,-0.005
3914.0,-0.0048
3913.0,-0.0048
3912.0,-0.0048
3911.0,-0.0049
3910.0,-0.0049
3909.0,-0.0049
3908.0,-0.0049
3907.0,-0.0049
3906.0,-0.005
3905.0,-0.005
3904.0,-0.005
3903.0,-0.0049
3902.0,-0.0049
3901.0,-0.0049
3900.0,-0.0049
3899.0,-0.0049
3898.0,-0.0048
3897.0,-0.0047
3896.0,-0.0047
3895.0,-0.0047
3894.0,-0.0048
3893.0,-0.0049
3892.0,-0.005
3891.0,-0.0051
3890.0,-0.0051
3889.0,-0.005
3888.0,-0.0049
3887.0,-0.0049
3886.0,-0.0049
3885.0,-0.0049
3884.0,-0.0049
3883.0,-0.0048
3882.0,-0.0048
3881.0,-0.0048
3880.0,-0.0049
3879.0,-0.0049
3878.0,-0.0048
3877.0,-0.0047
3876.0,-0.0046
3875.0,-0.0046
3874.0,-0.0046
3873.0,-0.0047
3872.0,-0.0047
3871.0,-0.0046
3870.0,-0.0047
3869.0,-0.0047
3868.0,-0.0048
3867.0,-0.0048
3866.0,-0.0047
3865.0,-0.0047
3864.0,-0.0046
3863.0,-0.0047
3862.0,-0.0047
3861.0,-0.0047
3860.0,-0.0047
3859.0,-0.0047
3858.0,-0.0047
3857.0,-0.0048
3856.0,-0.0048
3855.0,-0.0048
3854.0,-0.0047
3853.0,-0.0048
3852.0,-0.0048
3851.0,-0.0047
3850.0,-0.0046
3849.0,-0.0046
3848.0,-0.0045
3847.0,-0.0045
3846.0,-0.0044
3845.0,-0.0043
3844.0,-0.0042
3843.0,-0.0041
3842.0,-0.004
3841.0,-0.004
3840.0,-0.004
3839.0,-0.0042
3838.0,-0.0043
3837.0,-0.0045
3836.0,-0.0046
3835.0,-0.0046
3834.0,-0.0047
3833.0,-0.0047
3832.0,-0.0047
3831.0,-0.0047
3830.0,-0.0046
3829.0,-0.0045
3828.0,-0.0043
3827.0,-0.0042
3826.0,-0.0042
3825.0,-0.0042
3824.0,-0.0042
3823.0,-0.0041
3822.0,-0.004
3821.0,-0.0039
3820.0,-0.0039
3819.0,-0.0039
3818.0,-0.004
3817.0,-0.0041
3816.0,-0.0043
3815.0,-0.0045
3814.0,-0.0045
3813.0,-0.0045
3812.0,-0.0045
3811.0,-0.0045
3810.0,-0.0044
3809.0,-0.0045
3808.0,-0.0045
3807.0,-0.0044
3806.0,-0.0042
3805.0,-0.0039
3804.0,-0.0037
3803.0,-0.0036
3802.0,-0.0037
3801.0,-0.0038
3800.0,-0.0039
3799.0,-0.004
3798.0,-0.004
3797.0,-0.0041
3796.0,-0.0042
3795.0,-0.0043
3794.0,-0.0043
3793.0,-0.0044
3792.0,-0.0044
3791.0,-0.0045
3790.0,-0.0044
3789.0,-0.0043
3788.0,-0.0042
3787.0,-0.0041
3786.0,-0.004
3785.0,-0.004
3784.0,-0.0039
3783.0,-0.0038
3782.0,-0.0038
3781.0,-0.0038
3780.0,-0.0039
3779.0,-0.0042
3778.0,-0.0043
3777.0,-0.0044
3776.0,-0.0044
3775.0,-0.0044
3774.0,-0.0044
3773.0,-0.0044
3772.0,-0.0044
3771.0,-0.0043
3770.0,-0.0042
3769.0,-0.0041
3768.0,-0.004
3767.0,-0.0039
3766.0,-0.004
3765.0,-0.0041
3764.0,-0.0041
3763.0,-0.0042
3762.0,-0.0042
3761.0,-0.0042
3760.0,-0.0041
3759.0,-0.004
3758.0,-0.0039
3757.0,-0.0039
3756.0,-0.0039
3755.0,-0.0039
3754.0,-0.0039
3753.0,-0.004
3752.0,-0.0043
3751.0,-0.0046
3750.0,-0.0045
3749.0,-0.0044
3748.0,-0.0042
3747.0,-0.0041
3746.0,-0.0041
3745.0,-0.0042
3744.0,-0.0042
3743.0,-0.0042
3742.0,-0.0041
3741.0,-0.004
3740.0,-0.0041
3739.0,-0.0041
3738.0,-0.0042
3737.0,-0.0043
3736.0,-0.0044
3735.0,-0.0045
3734.0,-0.0047
3733.0,-0.005
3732.0,-0.0053
3731.0,-0.0054
3730.0,-0.0056
3729.0,-0.0057
3728.0,-0.0058
3727.0,-0.0058
3726.0,-0.0056
3725.0,-0.0053
3724.0,-0.0051
3723.0,-0.005
3722.0,-0.0049
3721.0,-0.0048
3720.0,-0.0047
3719.0,-0.0045
3718.0,-0.0043
3717.0,-0.0041
3716.0,-0.0039
3715.0,-0.0038
3714.0,-0.0037
3713.0,-0.0039
3712.0,-0.0042
3711.0,-0.0045
3710.0,-0.0047
3709.0,-0.0047
3708.0,-0.0047
3707.0,-0.0047
3706.0,-0.0046
3705.0,-0.0045
3704.0,-0.0043
3703.0,-0.0041
3702.0,-0.004
3701.0,-0.0041
3700.0,-0.0042
3699.0,-0.0042
3698.0,-0.0042
3697.0,-0.004
3696.0,-0.0039
3695.0,-0.0039
3694.0,-0.0038
3693.0,-0.0037
3692.0,-0.0035
3691.0,-0.0033
3690.0,-0.0031
3689.0,-0.0032
3688.0,-0.0033
3687.0,-0.0035
3686.0,-0.0035
3685.0,-0.0034
3684.0,-0.0033
3683.0,-0.0032
3682.0,-0.0031
3681.0,-0.0029
3680.0,-0.0028
3679.0,-0.0027
3678.0,-0.0025
3677.0,-0.0022
3676.0,-0.0019
3675.0,-0.0019
3674.0,-0.0021
3673.0,-0.0022
3672.0,-0.0023
3671.0,-0.0023
3670.0,-0.0021
3669.0,-0.0021
3668.0,-0.002
3667.0,-0.0019
3666.0,-0.0018
3665.0,-0.0017
3664.0,-0.0016
3663.0,-0.0015
3662.0,-0.0015
3661.0,-0.0014
3660.0,-0.0015
3659.0,-0.0015
3658.0,-0.0014
3657.0,-0.0012
3656.0,-0.001
3655.0,-0.0008
3654.0,-0.0007
3653.0,-0.0006
3652.0,-0.0004
3651.0,-0.0003
3650.0,-0.0001
3649.0,0.0001
3648.0,0.0001
3647.0,0.0001
3646.0,0.0001
3645.0,0.0001
3644.0,0.0001
3643.0,0.0
3642.0,-0.0
3641.0,-0.0001
3640.0,-0.0001
3639.0,-0.0
3638.0,0.0
3637.0,0.0001
3636.0,0.0002
3635.0,0.0002
3634.0,0.0002
3633.0,0.0
3632.0,-0.0002
3631.0,-0.0003
3630.0,-0.0002
3629.0,0.0001
3628.0,0.0004
3627.0,0.0006
3626.0,0.0007
3625.0,0.0008
3624.0,0.0009
3623.0,0.0011
3622.0,0.0015
3621.0,0.0019
3620.0,0.0022
3619.0,0.0023
3618.0,0.0023
3617.0,0.0024
3616.0,0.0026
3615.0,0.0029
3614.0,0.0031
3613.0,0.0031
3612.0,0.0031
3611.0,0.003
3610.0,0.003
3609.0,0.0031
3608.0,0.0032
3607.0,0.0034
3606.0,0.0036
3605.0,0.0039
3604.0,0.004
3603.0,0.0042
3602.0,0.0042
3601.0,0.0044
3600.0,0.0046
3599.0,0.0049
3598.0,0.005
3597.0,0.0051
3596.0,0.0051
3595.0,0.0051
3594.0,0.0052
3593.0,0.0053
3592.0,0.0053
3591.0,0.0053
3590.0,0.0055
3589.0,0.0058
3588.0,0.0064
3587.0,0.0068
3586.0,0.007
3585.0,0.007
3584.0,0.007
3583.0,0.007
3582.0,0.0071
3581.0,0.0074
3580.0,0.0076
3579.0,0.0078
3578.0,0.0079
3577.0,0.0081
3576.0,0.0082
3575.0,0.0083
3574.0,0.0085
3573.0,0.0085
3572.0,0.0085
3571.0,0.0085
3570.0,0.0086
3569.0,0.0088
3568.0,0.0091
3567.0,0.0095
3566.0,0.0098
3565.0,0.01
3564.0,0.0101
3563.0,0.0103
3562.0,0.0105
3561.0,0.0106
3560.0,0.0107
3559.0,0.0108
3558.0,0.0108
3557.0,0.0109
3556.0,0.011
3555.0,0.0112
3554.0,0.0114
3553.0,0.0116
3552.0,0.0116
3551.0,0.0116
3550.0,0.0116
3549.0,0.0116
3548.0,0.0117
3547.0,0.0119
3546.0,0.012
3545.0,0.0122
3544.0,0.0123
3543.0,0.0124
3542.0,0.0125
3541.0,0.0125
3540.0,0.0126
3539.0,0.0126
3538.0,0.0128
3537.0,0.0129
3536.0,0.0131
3535.0,0.0132
3534.0,0.0133
3533.0,0.0134
3532.0,0.0134
3531.0,0.0136
3530.0,0.0137
3529.0,0.0139
3528.0,0.0141
3527.0,0.0142
3526.0,0.0142
3525.0,0.0143
3524.0,0.0144
3523.0,0.0146
3522.0,0.0147
3521.0,0.0148
3520.0,0.0149
3519.0,0.015
3518.0,0.0151
3517.0,0.0152
3516.0,0.0153
3515.0,0.0154
3514.0,0.0155
3513.0,0.0156
3512.0,0.0157
3511.0,0.0159
3510.0,0.0162
3509.0,0.0163
3508.0,0.0165
3507.0,0.0166
3506.0,0.0167
3505.0,0.0168
3504.0,0.0169
3503.0,0.017
3502.0,0.0171
3501.0,0.0172
3500.0,0.0173
3499.0,0.0173
3498.0,0.0174
3497.0,0.0175
3496.0,0.0177
3495.0,0.0179
3494.0,0.018
3493.0,0.0181
3492.0,0.0181
3491.0,0.0181
3490.0,0.0182
3489.0,0.0183
3488.0,0.0185
3487.0,0.0186
3486.0,0.0187
3485.0,0.0189
3484.0,0.019
3483.0,0.0193
3482.0,0.0195
3481.0,0.0197
3480.0,0.0198
3479.0,0.0199
3478.0,0.02
3477.0,0.0201
3476.0,0.0202
3475.0,0.0203
3474.0,0.0205
3473.0,0.0206
3472.0,0.0206
3471.0,0.0207
3470.0,0.0208
3469.0,0.0209
3468.0,0.0209
3467.0,0.021
3466.0,0.0211
3465.0,0.0212
3464.0,0.0214
3463.0,0.0216
3462.0,0.0218
3461.0,0.0219
3460.0,0.0221
3459.0,0.0223
3458.0,0.0225
3457.0,0.0227
3456.0,0.0228
3455.0,0.023
3454.0,0.0231
3453.0,0.0232
3452.0,0.0233
3451.0,0.0235
3450.0,0.0237
3449.0,0.0238
3448.0,0.0241
3447.0,0.0243
3446.0,0.0244
3445.0,0.0245
3444.0,0.0246
3443.0,0.0247
3442.0,0.0249
3441.0,0.0251
3440.0,0.0252
3439.0,0.0254
3438.0,0.0256
3437.0,0.0258
3436.0,0.0259
3435.0,0.026
3434.0,0.0261
3433.0,0.0263
3432.0,0.0265
3431.0,0.0268
3430.0,0.0271
3429.0,0.0274
3428.0,0.0276
3427.0,0.0279
3426.0,0.028
3425.0,0.0282
3424.0,0.0283
3423.0,0.0283
3422.0,0.0284
3421.0,0.0284
3420.0,0.0285
3419.0,0.0286
3418.0,0.0287
3417.0,0.0289
3416.0,0.029
3415.0,0.0292
3414.0,0.0293
3413.0,0.0295
3412.0,0.0297
3411.0,0.0299
3410.0,0.0301
3409.0,0.0304
3408.0,0.0306
3407.0,0.0306
3406.0,0.0306
3405.0,0.0306
3404.0,0.0307
3403.0,0.0309
3402.0,0.0311
3401.0,0.0312
3400.0,0.0313
3399.0,0.0313
3398.0,0.0313
3397.0,0.0314
3396.0,0.0316
3395.0,0.0319
3394.0,0.0321
3393.0,0.0323
3392.0,0.0324
3391.0,0.0324
3390.0,0.0323
3389.0,0.0322
3388.0,0.0322
3387.0,0.0322
3386.0,0.0323
3385.0,0.0323
3384.0,0.0324
3383.0,0.0324
3382.0,0.0324
3381.0,0.0324
3380.0,0.0324
3379.0,0.0324
3378.0,0.0324
3377.0,0.0324
3376.0,0.0323
3375.0,0.0323
3374.0,0.0322
3373.0,0.0321
3372.0,0.0321
3371.0,0.032
3370.0,0.032
3369.0,0.0319
3368.0,0.0317
3367.0,0.0316
3366.0,0.0315
3365.0,0.0315
3364.0,0.0315
3363.0,0.0315
3362.0,0.0314
3361.0,0.0314
3360.0,0.0312
3359.0,0.0311
3358.0,0.031
3357.0,0.031
3356.0,0.031
3355.0,0.031
3354.0,0.0309
3353.0,0.0307
3352.0,0.0306
3351.0,0.0304
3350.0,0.0303
3349.0,0.0303
3348.0,0.0303
3347.0,0.0302
3346.0,0.03
3345.0,0.0299
3344.0,0.0298
3343.0,0.0298
3342.0,0.0297
3341.0,0.0296
3340.0,0.0295
3339.0,0.0293
3338.0,0.0291
3337.0,0.0289
3336.0,0.0288
3335.0,0.0288
3334.0,0.0288
3333.0,0.0289
3332.0,0.0288
3331.0,0.0287
3330.0,0.0286
3329.0,0.0285
3328.0,0.0284
3327.0,0.0283
3326.0,0.0281
3325.0,0.0279
3324.0,0.0277
3323.0,0.0276
3322.0,0.0275
3321.0,0.0274
3320.0,0.0273
3319.0,0.0272
3318.0,0.027
3317.0,0.0269
3316.0,0.0268
3315.0,0.0267
3314.0,0.0266
3313.0,0.0265
3312.0,0.0265
3311.0,0.0264
3310.0,0.0263
3309.0,0.0261
3308.0,0.026
3307.0,0.0259
3306.0,0.0258
3305.0,0.0257
3304.0,0.0256
3303.0,0.0256
3302.0,0.0255
3301.0,0.0255
3300.0,0.0255
3299.0,0.0254
3298.0,0.0253
3297.0,0.0251
3296.0,0.025
3295.0,0.0248
3294.0,0.0246
3293.0,0.0245
3292.0,0.0244
3291.0,0.0244
3290.0,0.0244
3289.0,0.0244
3288.0,0.0243
3287.0,0.0242
3286.0,0.0241
3285.0,0.024
3284.0,0.024
3283.0,0.0239
3282.0,0.0239
3281.0,0.0239
3280.0,0.0239
3279.0,0.024
3278.0,0.024
3277.0,0.024
3276.0,0.0239
3275.0,0.0238
3274.0,0.0238
3273.0,0.0237
3272.0,0.0236
3271.0,0.0236
3270.0,0.0235
3269.0,0.0234
3268.0,0.0232
3267.0,0.0231
3266.0,0.023
3265.0,0.023
3264.0,0.0231
3263.0,0.0232
3262.0,0.0234
3261.0,0.0235
3260.0,0.0235
3259.0,0.0235
3258.0,0.0234
3257.0,0.0234
3256.0,0.0233
3255.0,0.0233
3254.0,0.0232
3253.0,0.0231
3252.0,0.023
3251.0,0.0229
3250.0,0.0229
3249.0,0.0229
3248.0,0.023
3247.0,0.0229
3246.0,0.0228
3245.0,0.0227
3244.0,0.0226
3243.0,0.0225
3242.0,0.0224
3241.0,0.0223
3240.0,0.0221
3239.0,0.0219
3238.0,0.0217
3237.0,0.0215
3236.0,0.0213
3235.0,0.0212
3234.0,0.021
3233.0,0.0209
3232.0,0.0208
3231.0,0.0207
3230.0,0.0205
3229.0,0.0204
3228.0,0.0202
3227.0,0.0201
3226.0,0.02
3225.0,0.0198
3224.0,0.0197
3223.0,0.0195
3222.0,0.0192
3221.0,0.0191
3220.0,0.019
3219.0,0.0189
3218.0,0.0188
3217.0,0.0187
3216.0,0.0186
3215.0,0.0184
3214.0,0.0183
3213.0,0.0181
3212.0,0.018
3211.0,0.0178
3210.0,0.0176
3209.0,0.0174
3208.0,0.0173
3207.0,0.0171
3206.0,0.0169
3205.0,0.0168
3204.0,0.0167
3203.0,0.0166
3202.0,0.0165
3201.0,0.0164
3200.0,0.0162
3199.0,0.016
3198.0,0.0158
3197.0,0.0157
3196.0,0.0156
3195.0,0.0154
3194.0,0.0152
3193.0,0.0151
3192.0,0.0149
3191.0,0.0147
3190.0,0.0145
3189.0,0.0144
3188.0,0.0143
3187.0,0.0142
3186.0,0.014
3185.0,0.0139
3184.0,0.0138
3183.0,0.0137
3182.0,0.0135
3181.0,0.0133
3180.0,0.0131
3179.0,0.0129
3178.0,0.0128
3177.0,0.0127
3176.0,0.0125
3175.0,0.0123
3174.0,0.0121
3173.0,0.012
3172.0,0.0119
3171.0,0.0119
3170.0,0.0118
3169.0,0.0118
3168.0,0.0116
3167.0,0.0115
3166.0,0.0113
3165.0,0.0111
3164.0,0.011
3163.0,0.0109
3162.0,0.0109
3161.0,0.0108
3160.0,0.0107
3159.0,0.0106
3158.0,0.0104
3157.0,0.0102
3156.0,0.01
3155.0,0.0098
3154.0,0.0096
3153.0,0.0094
3152.0,0.0092
3151.0,0.0091
3150.0,0.009
3149.0,0.0089
3148.0,0.0088
3147.0,0.0087
3146.0,0.0086
3145.0,0.0084
3144.0,0.0083
3143.0,0.0082
3142.0,0.0081
3141.0,0.0079
3140.0,0.0079
3139.0,0.0078
3138.0,0.0077
3137.0,0.0076
3136.0,0.0075
3135.0,0.0073
3134.0,0.0072
3133.0,0.0072
3132.0,0.0071
3131.0,0.0069
3130.0,0.0068
3129.0,0.0066
3128.0,0.0064
3127.0,0.0063
3126.0,0.0062
3125.0,0.006
3124.0,0.0059
3123.0,0.0058
3122.0,0.0057
3121.0,0.0057
3120.0,0.0057
3119.0,0.0057
3118.0,0.0055
3117.0,0.0054
3116.0,0.0053
3115.0,0.0052
3114.0,0.0052
3113.0,0.0052
3112.0,0.0052
3111.0,0.0052
3110.0,0.0051
3109.0,0.005
3108.0,0.0047
3107.0,0.0046
3106.0,0.0044
3105.0,0.0044
3104.0,0.0044
3103.0,0.0043
3102.0,0.0042
3101.0,0.004
3100.0,0.0038
3099.0,0.0037
3098.0,0.0036
3097.0,0.0036
3096.0,0.0035
3095.0,0.0034
3094.0,0.0033
3093.0,0.0032
3092.0,0.0032
3091.0,0.0031
3090.0,0.003
3089.0,0.0029
3088.0,0.0029
3087.0,0.0029
3086.0,0.0028
3085.0,0.0028
3084.0,0.0027
3083.0,0.0026
3082.0,0.0025
3081.0,0.0025
3080.0,0.0024
3079.0,0.0022
3078.0,0.0021
3077.0,0.002
3076.0,0.002
3075.0,0.002
3074.0,0.002
3073.0,0.0019
3072.0,0.0019
3071.0,0.0019
3070.0,0.0019
3069.0,0.0018
3068.0,0.0017
3067.0,0.0016
3066.0,0.0016
3065.0,0.0015
3064.0,0.0014
3063.0,0.0013
3062.0,0.0013
3061.0,0.0012
3060.0,0.0012
3059.0,0.0011
3058.0,0.001
3057.0,0.0009
3056.0,0.0009
3055.0,0.0008
3054.0,0.0007
3053.0,0.0006
3052.0,0.0005
3051.0,0.0004
3050.0,0.0003
3049.0,0.0002
3048.0,0.0002
3047.0,0.0002
3046.0,0.0002
3045.0,0.0001
3044.0,0.0001
3043.0,0.0001
3042.0,0.0
3041.0,-0.0
3040.0,-0.0
3039.0,-0.0
3038.0,-0.0001
3037.0,-0.0001
3036.0,-0.0001
3035.0,-0.0001
3034.0,-0.0001
3033.0,-0.0001
3032.0,-0.0002
3031.0,-0.0002
3030.0,-0.0003
3029.0,-0.0003
3028.0,-0.0003
3027.0,-0.0002
3026.0,-0.0001
3025.0,-0.0
3024.0,0.0
3023.0,0.0001
3022.0,0.0002
3021.0,0.0003
3020.0,0.0004
3019.0,0.0006
3018.0,0.0007
3017.0,0.0009
3016.0,0.0012
3015.0,0.0014
3014.0,0.0017
3013.0,0.0021
3012.0,0.0024
3011.0,0.0028
3010.0,0.0033
3009.0,0.0037
3008.0,0.0042
3007.0,0.0047
3006.0,0.0051
3005.0,0.0056
3004.0,0.0061
3003.0,0.0066
3002.0,0.0071
3001.0,0.0076
3000.0,0.008
2999.0,0.0083
2998.0,0.0086
2997.0,0.0089
2996.0,0.0091
2995.0,0.0093
2994.0,0.0092
2993.0,0.0091
2992.0,0.0088
2991.0,0.0084
2990.0,0.0079
2989.0,0.0075
2988.0,0.007
2987.0,0.0065
2986.0,0.006
2985.0,0.0055
2984.0,0.005
2983.0,0.0046
2982.0,0.0042
2981.0,0.004
2980.0,0.0037
2979.0,0.0035
2978.0,0.0033
2977.0,0.0031
2976.0,0.003
2975.0,0.0028
2974.0,0.0028
2973.0,0.0027
2972.0,0.0027
2971.0,0.0027
2970.0,0.0027
2969.0,0.0028
2968.0,0.0028
2967.0,0.0027
2966.0,0.0027
2965.0,0.0026
2964.0,0.0026
2963.0,0.0027
2962.0,0.0027
2961.0,0.0028
2960.0,0.0029
2959.0,0.0031
2958.0,0.0033
2957.0,0.0036
2956.0,0.0039
2955.0,0.0042
2954.0,0.0045
2953.0,0.0049
2952.0,0.0053
2951.0,0.0058
2950.0,0.0063
2949.0,0.0067
2948.0,0.0071
2947.0,0.0074
2946.0,0.0076
2945.0,0.0077
2944.0,0.0076
2943.0,0.0075
2942.0,0.0071
2941.0,0.0067
2940.0,0.0061
2939.0,0.0056
2938.0,0.0051
2937.0,0.0046
2936.0,0.0042
2935.0,0.0037
2934.0,0.0034
2933.0,0.0031
2932.0,0.0029
2931.0,0.0026
2930.0,0.0024
2929.0,0.0022
2928.0,0.002
2927.0,0.0018
2926.0,0.0016
2925.0,0.0014
2924.0,0.0013
2923.0,0.0012
2922.0,0.001
2921.0,0.0008
2920.0,0.0005
2919.0,0.0004
2918.0,0.0002
2917.0,0.0001
2916.0,-0.0
2915.0,-0.0002
2914.0,-0.0002
2913.0,-0.0002
2912.0,-0.0002
2911.0,-0.0001
2910.0,-0.0002
2909.0,-0.0002
2908.0,-0.0003
2907.0,-0.0004
2906.0,-0.0005
2905.0,-0.0005
2904.0,-0.0006
2903.0,-0.0006
2902.0,-0.0007
2901.0,-0.0008
2900.0,-0.0009
2899.0,-0.0009
2898.0,-0.0009
2897.0,-0.0009
2896.0,-0.0009
2895.0,-0.0009
2894.0,-0.001
2893.0,-0.001
2892.0,-0.001
2891.0,-0.0009
2890.0,-0.0008
2889.0,-0.0007
2888.0,-0.0006
2887.0,-0.0006
2886.0,-0.0005
2885.0,-0.0004
2884.0,-0.0003
2883.0,-0.0002
2882.0,-0.0002
2881.0,-0.0002
2880.0,-0.0002
2879.0,-0.0003
2878.0,-0.0004
2877.0,-0.0005
2876.0,-0.0007
2875.0,-0.0009
2874.0,-0.0011
2873.0,-0.0012
2872.0,-0.0014
2871.0,-0.0015
2870.0,-0.0017
2869.0,-0.0018
2868.0,-0.0019
2867.0,-0.0019
2866.0,-0.002
2865.0,-0.0021
2864.0,-0.0023
2863.0,-0.0023
2862.0,-0.0024
2861.0,-0.0024
2860.0,-0.0024
2859.0,-0.0024
2858.0,-0.0024
2857.0,-0.0024
2856.0,-0.0025
2855.0,-0.0026
2854.0,-0.0026
2853.0,-0.0027
2852.0,-0.0027
2851.0,-0.0028
2850.0,-0.0029
2849.0,-0.003
2848.0,-0.003
2847.0,-0.003
2846.0,-0.003
2845.0,-0.003
2844.0,-0.003
2843.0,-0.003
2842.0,-0.0031
2841.0,-0.0031
2840.0,-0.0032
2839.0,-0.0032
2838.0,-0.0032
2837.0,-0.0032
2836.0,-0.0033
2835.0,-0.0033
2834.0,-0.0034
2833.0,-0.0034
2832.0,-0.0035
2831.0,-0.0035
2830.0,-0.0035
2829.0,-0.0035
2828.0,-0.0035
2827.0,-0.0035
2826.0,-0.0036
2825.0,-0.0036
2824.0,-0.0036
2823.0,-0.0036
2822.0,-0.0036
2821.0,-0.0037
2820.0,-0.0037
2819.0,-0.0037
2818.0,-0.0037
2817.0,-0.0037
2816.0,-0.0037
2815.0,-0.0038
2814.0,-0.0039
2813.0,-0.0039
2812.0,-0.0039
2811.0,-0.004
2810.0,-0.004
2809.0,-0.004
2808.0,-0.0041
2807.0,-0.0041
2806.0,-0.004
2805.0,-0.004
2804.0,-0.004
2803.0,-0.0041
2802.0,-0.0041
2801.0,-0.0042
2800.0,-0.0041
2799.0,-0.0041
2798.0,-0.0042
2797.0,-0.0042
2796.0,-0.0043
2795.0,-0.0044
2794.0,-0.0044
2793.0,-0.0043
2792.0,-0.0043
2791.0,-0.0043
2790.0,-0.0043
2789.0,-0.0043
2788.0,-0.0042
2787.0,-0.0042
2786.0,-0.0042
2785.0,-0.0042
2784.0,-0.0042
2783.0,-0.0042
2782.0,-0.0042
2781.0,-0.0043
2780.0,-0.0044
2779.0,-0.0044
2778.0,-0.0044
2777.0,-0.0045
2776.0,-0.0045
2775.0,-0.0044
2774.0,-0.0044
2773.0,-0.0044
2772.0,-0.0045
2771.0,-0.0045
2770.0,-0.0045
2769.0,-0.0045
2768.0,-0.0046
2767.0,-0.0046
2766.0,-0.0046
2765.0,-0.0045
2764.0,-0.0045
2763.0,-0.0045
2762.0,-0.0046
2761.0,-0.0046
2760.0,-0.0045
2759.0,-0.0045
2758.0,-0.0045
2757.0,-0.0045
2756.0,-0.0046
2755.0,-0.0046
2754.0,-0.0046
2753.0,-0.0045
2752.0,-0.0045
2751.0,-0.0045
2750.0,-0.0045
2749.0,-0.0044
2748.0,-0.0044
2747.0,-0.0044
2746.0,-0.0044
2745.0,-0.0045
2744.0,-0.0046
2743.0,-0.0046
2742.0,-0.0046
2741.0,-0.0046
2740.0,-0.0046
2739.0,-0.0046
2738.0,-0.0046
2737.0,-0.0046
2736.0,-0.0046
2735.0,-0.0047
2734.0,-0.0047
2733.0,-0.0046
2732.0,-0.0046
2731.0,-0.0045
2730.0,-0.0045
2729.0,-0.0045
2728.0,-0.0046
2727.0,-0.0047
2726.0,-0.0048
2725.0,-0.0048
2724.0,-0.0048
2723.0,-0.0048
2722.0,-0.0048
2721.0,-0.0048
2720.0,-0.0048
2719.0,-0.0047
2718.0,-0.0046
2717.0,-0.0046
2716.0,-0.0046
2715.0,-0.0046
2714.0,-0.0047
2713.0,-0.0048
2712.0,-0.0048
2711.0,-0.0048
2710.0,-0.0048
2709.0,-0.0048
2708.0,-0.0048
2707.0,-0.0048
2706.0,-0.0047
2705.0,-0.0047
2704.0,-0.0047
2703.0,-0.0047
2702.0,-0.0048
2701.0,-0.0048
2700.0,-0.0047
2699.0,-0.0047
2698.0,-0.0047
2697.0,-0.0046
2696.0,-0.0046
2695.0,-0.0046
2694.0,-0.0046
2693.0,-0.0047
2692.0,-0.0047
2691.0,-0.0047
2690.0,-0.0047
2689.0,-0.0048
2688.0,-0.0048
2687.0,-0.0048
2686.0,-0.0047
2685.0,-0.0047
2684.0,-0.0047
2683.0,-0.0048
2682.0,-0.0048
2681.0,-0.0049
2680.0,-0.0049
2679.0,-0.0049
2678.0,-0.0048
2677.0,-0.0048
2676.0,-0.0048
2675.0,-0.0047
2674.0,-0.0047
2673.0,-0.0048
2672.0,-0.0048
2671.0,-0.0048
2670.0,-0.0048
2669.0,-0.0047
2668.0,-0.0047
2667.0,-0.0048
2666.0,-0.0048
2665.0,-0.0048
2664.0,-0.0048
2663.0,-0.0048
2662.0,-0.0048
2661.0,-0.0048
2660.0,-0.0047
2659.0,-0.0047
2658.0,-0.0047
2657.0,-0.0047
2656.0,-0.0048
2655.0,-0.0048
2654.0,-0.0048
2653.0,-0.0048
2652.0,-0.0047
2651.0,-0.0047
2650.0,-0.0047
2649.0,-0.0047
2648.0,-0.0047
2647.0,-0.0046
2646.0,-0.0046
2645.0,-0.0046
2644.0,-0.0046
2643.0,-0.0047
2642.0,-0.0047
2641.0,-0.0048
2640.0,-0.0047
2639.0,-0.0047
2638.0,-0.0046
2637.0,-0.0046
2636.0,-0.0046
2635.0,-0.0046
2634.0,-0.0047
2633.0,-0.0048
2632.0,-0.0048
2631.0,-0.0048
2630.0,-0.0048
2629.0,-0.0047
2628.0,-0.0047
2627.0,-0.0048
2626.0,-0.0048
2625.0,-0.0048
2624.0,-0.0048
2623.0,-0.0047
2622.0,-0.0047
2621.0,-0.0047
2620.0,-0.0047
2619.0,-0.0047
2618.0,-0.0047
2617.0,-0.0047
2616.0,-0.0047
2615.0,-0.0048
2614.0,-0.0049
2613.0,-0.005
2612.0,-0.005
2611.0,-0.0049
2610.0,-0.0049
2609.0,-0.0049
2608.0,-0.0049
2607.0,-0.0049
2606.0,-0.0048
2605.0,-0.0048
2604.0,-0.0048
2603.0,-0.0048
2602.0,-0.0048
2601.0,-0.0048
2600.0,-0.0048
2599.0,-0.0048
2598.0,-0.0047
2597.0,-0.0047
2596.0,-0.0047
2595.0,-0.0047
2594.0,-0.0047
2593.0,-0.0047
2592.0,-0.0047
2591.0,-0.0047
2590.0,-0.0047
2589.0,-0.0048
2588.0,-0.0048
2587.0,-0.0048
2586.0,-0.0048
2585.0,-0.0049
2584.0,-0.0048
2583.0,-0.0048
2582.0,-0.0048
2581.0,-0.0048
2580.0,-0.0048
2579.0,-0.0048
2578.0,-0.0048
2577.0,-0.0048
2576.0,-0.0048
2575.0,-0.0049
2574.0,-0.0049
2573.0,-0.0049
2572.0,-0.0049
2571.0,-0.0049
2570.0,-0.0049
2569.0,-0.005
2568.0,-0.005
2567.0,-0.005
2566.0,-0.005
2565.0,-0.0049
2564.0,-0.0049
2563.0,-0.0049
2562.0,-0.005
2561.0,-0.005
2560.0,-0.005
2559.0,-0.0049
2558.0,-0.0049
2557.0,-0.0049
2556.0,-0.0049
2555.0,-0.0049
2554.0,-0.0048
2553.0,-0.0048
2552.0,-0.0048
2551.0,-0.0048
2550.0,-0.0048
2549.0,-0.0048
2548.0,-0.0048
2547.0,-0.0049
2546.0,-0.0049
2545.0,-0.0049
2544.0,-0.0049
2543.0,-0.0049
2542.0,-0.0048
2541.0,-0.0048
2540.0,-0.0048
2539.0,-0.0048
2538.0,-0.0048
2537.0,-0.0048
2536.0,-0.0048
2535.0,-0.0049
2534.0,-0.0049
2533.0,-0.0049
2532.0,-0.0049
2531.0,-0.0049
2530.0,-0.0049
2529.0,-0.0049
2528.0,-0.0049
2527.0,-0.0049
2526.0,-0.0049
2525.0,-0.0049
2524.0,-0.0048
2523.0,-0.0047
2522.0,-0.0047
2521.0,-0.0048
2520.0,-0.0049
2519.0,-0.0049
2518.0,-0.0049
2517.0,-0.0049
2516.0,-0.0049
2515.0,-0.0048
2514.0,-0.0048
2513.0,-0.0048
2512.0,-0.0048
2511.0,-0.0048
2510.0,-0.0048
2509.0,-0.0047
2508.0,-0.0047
2507.0,-0.0047
2506.0,-0.0048
2505.0,-0.0048
2504.0,-0.0048
2503.0,-0.0048
2502.0,-0.0048
2501.0,-0.0047
2500.0,-0.0046
2499.0,-0.0046
2498.0,-0.0047
2497.0,-0.0048
2496.0,-0.0048
2495.0,-0.0048
2494.0,-0.0048
2493.0,-0.0048
2492.0,-0.0048
2491.0,-0.0048
2490.0,-0.0049
2489.0,-0.0049
2488.0,-0.0049
2487.0,-0.0049
2486.0,-0.0049
2485.0,-0.0049
2484.0,-0.0049
2483.0,-0.0049
2482.0,-0.0049
2481.0,-0.0049
2480.0,-0.0048
2479.0,-0.0048
2478.0,-0.0047
2477.0,-0.0047
2476.0,-0.0047
2475.0,-0.0047
2474.0,-0.0047
2473.0,-0.0048
2472.0,-0.0048
2471.0,-0.0049
2470.0,-0.005
2469.0,-0.005
2468.0,-0.0049
2467.0,-0.0049
2466.0,-0.005
2465.0,-0.0049
2464.0,-0.0049
2463.0,-0.0048
2462.0,-0.0048
2461.0,-0.0048
2460.0,-0.0049
2459.0,-0.0049
2458.0,-0.005
2457.0,-0.005
2456.0,-0.0049
2455.0,-0.0048
2454.0,-0.0047
2453.0,-0.0047
2452.0,-0.0047
2451.0,-0.0047
2450.0,-0.0048
2449.0,-0.0047
2448.0,-0.0047
2447.0,-0.0047
2446.0,-0.0047
2445.0,-0.0047
2444.0,-0.0047
2443.0,-0.0047
2442.0,-0.0047
2441.0,-0.0047
2440.0,-0.0047
2439.0,-0.0047
2438.0,-0.0047
2437.0,-0.0047
2436.0,-0.0047
2435.0,-0.0047
2434.0,-0.0047
2433.0,-0.0047
2432.0,-0.0046
2431.0,-0.0046
2430.0,-0.0046
2429.0,-0.0046
2428.0,-0.0045
2427.0,-0.0045
2426.0,-0.0045
2425.0,-0.0045
2424.0,-0.0045
2423.0,-0.0045
2422.0,-0.0045
2421.0,-0.0045
2420.0,-0.0045
2419.0,-0.0045
2418.0,-0.0045
2417.0,-0.0045
2416.0,-0.0044
2415.0,-0.0044
2414.0,-0.0044
2413.0,-0.0043
2412.0,-0.0043
2411.0,-0.0043
2410.0,-0.0043
2409.0,-0.0043
2408.0,-0.0043
2407.0,-0.0042
2406.0,-0.0042
2405.0,-0.0042
2404.0,-0.0042
2403.0,-0.0042
2402.0,-0.0042
2401.0,-0.0041
2400.0,-0.0041
2399.0,-0.0042
2398.0,-0.0042
2397.0,-0.0042
2396.0,-0.0041
2395.0,-0.0041
2394.0,-0.0041
2393.0,-0.0042
2392.0,-0.0042
2391.0,-0.0043
2390.0,-0.0043
2389.0,-0.0043
2388.0,-0.0043
2387.0,-0.0044
2386.0,-0.0044
2385.0,-0.0044
2384.0,-0.0043
2383.0,-0.004
2382.0,-0.0035
2381.0,-0.003
2380.0,-0.0026
2379.0,-0.0023
2378.0,-0.0023
2377.0,-0.0025
2376.0,-0.0031
2375.0,-0.0039
2374.0,-0.0048
2373.0,-0.0057
2372.0,-0.0064
2371.0,-0.0068
2370.0,-0.0068
2369.0,-0.0064
2368.0,-0.0059
2367.0,-0.006
2366.0,-0.0066
2365.0,-0.0072
2364.0,-0.0072
2363.0,-0.0068
2362.0,-0.0068
2361.0,-0.007
2360.0,-0.0073
2359.0,-0.0079
2358.0,-0.0085
2357.0,-0.009
2356.0,-0.0095
2355.0,-0.0101
2354.0,-0.0105
2353.0,-0.0098
2352.0,-0.0082
2351.0,-0.0066
2350.0,-0.0057
2349.0,-0.0056
2348.0,-0.006
2347.0,-0.0068
2346.0,-0.0082
2345.0,-0.0098
2344.0,-0.011
2343.0,-0.0116
2342.0,-0.0114
2341.0,-0.0104
2340.0,-0.0092
2339.0,-0.0083
2338.0,-0.0079
2337.0,-0.0078
2336.0,-0.0077
2335.0,-0.0075
2334.0,-0.007
2333.0,-0.0063
2332.0,-0.0059
2331.0,-0.0062
2330.0,-0.0072
2329.0,-0.0083
2328.0,-0.0091
2327.0,-0.0094
2326.0,-0.0093
2325.0,-0.0087
2324.0,-0.0078
2323.0,-0.007
2322.0,-0.0066
2321.0,-0.0067
2320.0,-0.0071
2319.0,-0.0073
2318.0,-0.0073
2317.0,-0.007
2316.0,-0.0066
2315.0,-0.0064
2314.0,-0.0063
2313.0,-0.0065
2312.0,-0.0068
2311.0,-0.0071
2310.0,-0.0073
2309.0,-0.0073
2308.0,-0.0071
2307.0,-0.0068
2306.0,-0.0066
2305.0,-0.0065
2304.0,-0.0067
2303.0,-0.0069
2302.0,-0.0071
2301.0,-0.0072
2300.0,-0.0072
2299.0,-0.0072
2298.0,-0.0072
2297.0,-0.0072
2296.0,-0.0071
2295.0,-0.0071
2294.0,-0.007
2293.0,-0.0069
2292.0,-0.0067
2291.0,-0.0065
2290.0,-0.0062
2289.0,-0.0061
2288.0,-0.0059
2287.0,-0.0057
2286.0,-0.0055
2285.0,-0.0053
2284.0,-0.0053
2283.0,-0.0053
2282.0,-0.0054
2281.0,-0.0055
2280.0,-0.0056
2279.0,-0.0057
2278.0,-0.0057
2277.0,-0.0056
2276.0,-0.0056
2275.0,-0.0055
2274.0,-0.0055
2273.0,-0.0055
2272.0,-0.0055
2271.0,-0.0055
2270.0,-0.0056
2269.0,-0.0056
2268.0,-0.0056
2267.0,-0.0057
2266.0,-0.0057
2265.0,-0.0057
2264.0,-0.0057
2263.0,-0.0057
2262.0,-0.0057
2261.0,-0.0057
2260.0,-0.0056
2259.0,-0.0055
2258.0,-0.0054
2257.0,-0.0054
2256.0,-0.0054
2255.0,-0.0054
2254.0,-0.0054
2253.0,-0.0054
2252.0,-0.0054
2251.0,-0.0054
2250.0,-0.0054
2249.0,-0.0054
2248.0,-0.0054
2247.0,-0.0054
2246.0,-0.0055
2245.0,-0.0055
2244.0,-0.0055
2243.0,-0.0054
2242.0,-0.0054
2241.0,-0.0053
2240.0,-0.0053
2239.0,-0.0053
2238.0,-0.0054
2237.0,-0.0055
2236.0,-0.0056
2235.0,-0.0056
2234.0,-0.0056
2233.0,-0.0056
2232.0,-0.0056
2231.0,-0.0057
2230.0,-0.0057
2229.0,-0.0057
2228.0,-0.0057
2227.0,-0.0057
2226.0,-0.0057
2225.0,-0.0057
2224.0,-0.0058
2223.0,-0.0058
2222.0,-0.0058
2221.0,-0.0057
2220.0,-0.0057
2219.0,-0.0056
2218.0,-0.0057
2217.0,-0.0058
2216.0,-0.0059
2215.0,-0.0059
2214.0,-0.006
2213.0,-0.006
2212.0,-0.006
2211.0,-0.0061
2210.0,-0.0061
2209.0,-0.0061
2208.0,-0.0062
2207.0,-0.0062
2206.0,-0.0061
2205.0,-0.0061
2204.0,-0.006
2203.0,-0.0061
2202.0,-0.0061
2201.0,-0.0061
2200.0,-0.0062
2199.0,-0.0062
2198.0,-0.0062
2197.0,-0.0062
2196.0,-0.0063
2195.0,-0.0063
2194.0,-0.0064
2193.0,-0.0064
2192.0,-0.0064
2191.0,-0.0064
2190.0,-0.0064
2189.0,-0.0064
2188.0,-0.0064
2187.0,-0.0064
2186.0,-0.0064
2185.0,-0.0064
2184.0,-0.0064
2183.0,-0.0064
2182.0,-0.0064
2181.0,-0.0064
2180.0,-0.0064
2179.0,-0.0065
2178.0,-0.0065
2177.0,-0.0065
2176.0,-0.0065
2175.0,-0.0065
2174.0,-0.0065
2173.0,-0.0065
2172.0,-0.0065
2171.0,-0.0066
2170.0,-0.0066
2169.0,-0.0065
2168.0,-0.0065
2167.0,-0.0065
2166.0,-0.0066
2165.0,-0.0066
2164.0,-0.0067
2163.0,-0.0067
2162.0,-0.0067
2161.0,-0.0067
2160.0,-0.0067
2159.0,-0.0067
2158.0,-0.0067
2157.0,-0.0067
2156.0,-0.0068
2155.0,-0.0068
2154.0,-0.0069
2153.0,-0.0069
2152.0,-0.0069
2151.0,-0.0069
2150.0,-0.0069
2149.0,-0.007
2148.0,-0.0069
2147.0,-0.0069
2146.0,-0.0069
2145.0,-0.0068
2144.0,-0.0068
2143.0,-0.0068
2142.0,-0.0068
2141.0,-0.0068
2140.0,-0.0068
2139.0,-0.0069
2138.0,-0.0069
2137.0,-0.0068
2136.0,-0.0068
2135.0,-0.0068
2134.0,-0.0068
2133.0,-0.0067
2132.0,-0.0067
2131.0,-0.0067
2130.0,-0.0067
2129.0,-0.0067
2128.0,-0.0067
2127.0,-0.0068
2126.0,-0.0068
2125.0,-0.0068
2124.0,-0.0069
2123.0,-0.0068
2122.0,-0.0068
2121.0,-0.0068
2120.0,-0.0068
2119.0,-0.0068
2118.0,-0.0068
2117.0,-0.0068
2116.0,-0.0068
2115.0,-0.0068
2114.0,-0.0068
2113.0,-0.0068
2112.0,-0.0068
2111.0,-0.0069
2110.0,-0.0069
2109.0,-0.0069
2108.0,-0.007
2107.0,-0.007
2106.0,-0.007
2105.0,-0.007
2104.0,-0.007
2103.0,-0.007
2102.0,-0.007
2101.0,-0.007
2100.0,-0.007
2099.0,-0.007
2098.0,-0.007
2097.0,-0.007
2096.0,-0.007
2095.0,-0.007
2094.0,-0.007
2093.0,-0.007
2092.0,-0.007
2091.0,-0.007
2090.0,-0.007
2089.0,-0.007
2088.0,-0.007
2087.0,-0.007
2086.0,-0.007
2085.0,-0.0069
2084.0,-0.007
2083.0,-0.007
2082.0,-0.007
2081.0,-0.007
2080.0,-0.007
2079.0,-0.0071
2078.0,-0.0071
2077.0,-0.0071
2076.0,-0.0071
2075.0,-0.0072
2074.0,-0.0072
2073.0,-0.0073
2072.0,-0.0073
2071.0,-0.0073
2070.0,-0.0073
2069.0,-0.0073
2068.0,-0.0074
2067.0,-0.0075
2066.0,-0.0075
2065.0,-0.0076
2064.0,-0.0076
2063.0,-0.0076
2062.0,-0.0076
2061.0,-0.0076
2060.0,-0.0077
2059.0,-0.0077
2058.0,-0.0077
2057.0,-0.0077
2056.0,-0.0078
2055.0,-0.0078
2054.0,-0.0078
2053.0,-0.0079
2052.0,-0.008
2051.0,-0.0081
2050.0,-0.0081
2049.0,-0.0081
2048.0,-0.0082
2047.0,-0.0082
2046.0,-0.0083
2045.0,-0.0083
2044.0,-0.0084
2043.0,-0.0084
2042.0,-0.0084
2041.0,-0.0084
2040.0,-0.0085
2039.0,-0.0085
2038.0,-0.0086
2037.0,-0.0086
2036.0,-0.0086
2035.0,-0.0087
2034.0,-0.0087
2033.0,-0.0087
2032.0,-0.0088
2031.0,-0.0088
2030.0,-0.0089
2029.0,-0.0089
2028.0,-0.009
2027.0,-0.0091
2026.0,-0.0091
2025.0,-0.009
2024.0,-0.009
2023.0,-0.0089
2022.0,-0.0089
2021.0,-0.009
2020.0,-0.009
2019.0,-0.0091
2018.0,-0.0091
2017.0,-0.0091
2016.0,-0.0091
2015.0,-0.0091
2014.0,-0.0091
2013.0,-0.0091
2012.0,-0.0091
2011.0,-0.0091
2010.0,-0.0091
2009.0,-0.0091
2008.0,-0.0092
2007.0,-0.0092
2006.0,-0.0091
2005.0,-0.0091
2004.0,-0.009
2003.0,-0.0091
2002.0,-0.0091
2001.0,-0.0092
2000.0,-0.0092
1999.0,-0.0093
1998.0,-0.0093
1997.0,-0.0093
1996.0,-0.0093
1995.0,-0.0093
1994.0,-0.0093
1993.0,-0.0093
1992.0,-0.0093
1991.0,-0.0093
1990.0,-0.0093
1989.0,-0.0093
1988.0,-0.0093
1987.0,-0.0094
1986.0,-0.0094
1985.0,-0.0094
1984.0,-0.0094
1983.0,-0.0094
1982.0,-0.0094
1981.0,-0.0094
1980.0,-0.0094
1979.0,-0.0094
1978.0,-0.0094
1977.0,-0.0094
1976.0,-0.0094
1975.0,-0.0094
1974.0,-0.0094
1973.0,-0.0095
1972.0,-0.0095
1971.0,-0.0095
1970.0,-0.0095
1969.0,-0.0095
1968.0,-0.0095
1967.0,-0.0095
1966.0,-0.0096
1965.0,-0.0096
1964.0,-0.0096
1963.0,-0.0097
1962.0,-0.0097
1961.0,-0.0097
1960.0,-0.0097
1959.0,-0.0098
1958.0,-0.0098
1957.0,-0.0098
1956.0,-0.0098
1955.0,-0.0099
1954.0,-0.0099
1953.0,-0.01
1952.0,-0.0101
1951.0,-0.0101
1950.0,-0.0102
1949.0,-0.0102
1948.0,-0.0102
1947.0,-0.0102
1946.0,-0.0102
1945.0,-0.0103
1944.0,-0.0104
1943.0,-0.0106
1942.0,-0.0106
1941.0,-0.0106
1940.0,-0.0106
1939.0,-0.0106
1938.0,-0.0106
1937.0,-0.0106
1936.0,-0.0106
1935.0,-0.0107
1934.0,-0.0107
1933.0,-0.0108
1932.0,-0.0108
1931.0,-0.0108
1930.0,-0.0108
1929.0,-0.0108
1928.0,-0.0108
1927.0,-0.0108
1926.0,-0.0109
1925.0,-0.0109
1924.0,-0.0109
1923.0,-0.011
1922.0,-0.011
1921.0,-0.011
1920.0,-0.011
1919.0,-0.0111
1918.0,-0.0111
1917.0,-0.0112
1916.0,-0.0111
1915.0,-0.0111
1914.0,-0.0111
1913.0,-0.0111
1912.0,-0.011
1911.0,-0.0111
1910.0,-0.0111
1909.0,-0.0111
1908.0,-0.0112
1907.0,-0.0112
1906.0,-0.0112
1905.0,-0.0112
1904.0,-0.0112
1903.0,-0.0113
1902.0,-0.0113
1901.0,-0.0113
1900.0,-0.0113
1899.0,-0.0114
1898.0,-0.0114
1897.0,-0.0114
1896.0,-0.0114
1895.0,-0.0114
1894.0,-0.0114
1893.0,-0.0114
1892.0,-0.0114
1891.0,-0.0114
1890.0,-0.0115
1889.0,-0.0115
1888.0,-0.0116
1887.0,-0.0116
1886.0,-0.0116
1885.0,-0.0117
1884.0,-0.0117
1883.0,-0.0117
1882.0,-0.0117
1881.0,-0.0117
1880.0,-0.0117
1879.0,-0.0117
1878.0,-0.0117
1877.0,-0.0118
1876.0,-0.0118
1875.0,-0.0117
1874.0,-0.0117
1873.0,-0.0117
1872.0,-0.0117
1871.0,-0.0117
1870.0,-0.0118
1869.0,-0.012
1868.0,-0.0121
1867.0,-0.012
1866.0,-0.012
1865.0,-0.0119
1864.0,-0.0119
1863.0,-0.0119
1862.0,-0.0119
1861.0,-0.0119
1860.0,-0.0119
1859.0,-0.0118
1858.0,-0.0118
1857.0,-0.0118
1856.0,-0.0117
1855.0,-0.0117
1854.0,-0.0117
1853.0,-0.0116
1852.0,-0.0115
1851.0,-0.0114
1850.0,-0.0114
1849.0,-0.0114
1848.0,-0.0113
1847.0,-0.0113
1846.0,-0.0113
1845.0,-0.0113
1844.0,-0.0113
1843.0,-0.0113
1842.0,-0.0112
1841.0,-0.011
1840.0,-0.0108
1839.0,-0.0106
1838.0,-0.0105
1837.0,-0.0103
1836.0,-0.0102
1835.0,-0.01
1834.0,-0.0099
1833.0,-0.0098
1832.0,-0.0096
1831.0,-0.0095
1830.0,-0.0095
1829.0,-0.0093
1828.0,-0.0091
1827.0,-0.0089
1826.0,-0.0087
1825.0,-0.0086
1824.0,-0.0084
1823.0,-0.0083
1822.0,-0.0081
1821.0,-0.0079
1820.0,-0.0077
1819.0,-0.0076
1818.0,-0.0075
1817.0,-0.0073
1816.0,-0.0071
1815.0,-0.0069
1814.0,-0.0068
1813.0,-0.0066
1812.0,-0.0063
1811.0,-0.0061
1810.0,-0.0059
1809.0,-0.0057
1808.0,-0.0054
1807.0,-0.0051
1806.0,-0.0048
1805.0,-0.0045
1804.0,-0.0042
1803.0,-0.0039
1802.0,-0.0036
1801.0,-0.0031
1800.0,-0.0025
1799.0,-0.002
1798.0,-0.0016
1797.0,-0.0011
1796.0,-0.0004
1795.0,0.0002
1794.0,0.001
1793.0,0.0021
1792.0,0.0038
1791.0,0.0054
1790.0,0.0069
1789.0,0.0085
1788.0,0.0103
1787.0,0.0124
1786.0,0.0148
1785.0,0.0177
1784.0,0.0207
1783.0,0.0235
1782.0,0.0265
1781.0,0.03
1780.0,0.0337
1779.0,0.0369
1778.0,0.0397
1777.0,0.0426
1776.0,0.0455
1775.0,0.0482
1774.0,0.0512
1773.0,0.0553
1772.0,0.0604
1771.0,0.0647
1770.0,0.0682
1769.0,0.0725
1768.0,0.0777
1767.0,0.083
1766.0,0.0878
1765.0,0.0926
1764.0,0.0981
1763.0,0.1051
1762.0,0.1136
1761.0,0.1218
1760.0,0.1283
1759.0,0.1335
1758.0,0.1391
1757.0,0.1457
1756.0,0.1515
1755.0,0.1549
1754.0,0.1568
1753.0,0.1587
1752.0,0.1611
1751.0,0.1632
1750.0,0.1647
1749.0,0.1656
1748.0,0.1656
1747.0,0.1642
1746.0,0.1618
1745.0,0.1588
1744.0,0.155
1743.0,0.1503
1742.0,0.1449
1741.0,0.1386
1740.0,0.1311
1739.0,0.1236
1738.0,0.1175
1737.0,0.1124
1736.0,0.1067
1735.0,0.0988
1734.0,0.0904
1733.0,0.0844
1732.0,0.0802
1731.0,0.0762
1730.0,0.0724
1729.0,0.0688
1728.0,0.0655
1727.0,0.0627
1726.0,0.0602
1725.0,0.0579
1724.0,0.0556
1723.0,0.0536
1722.0,0.052
1721.0,0.0506
1720.0,0.049
1719.0,0.0471
1718.0,0.0453
1717.0,0.0439
1716.0,0.0425
1715.0,0.0412
1714.0,0.0401
1713.0,0.0391
1712.0,0.0379
1711.0,0.0367
1710.0,0.0357
1709.0,0.0347
1708.0,0.0336
1707.0,0.0324
1706.0,0.0313
1705.0,0.0305
1704.0,0.0297
1703.0,0.0289
1702.0,0.0281
1701.0,0.0274
1700.0,0.0267
1699.0,0.0261
1698.0,0.0258
1697.0,0.0254
1696.0,0.025
1695.0,0.0245
1694.0,0.0241
1693.0,0.0238
1692.0,0.0235
1691.0,0.023
1690.0,0.0227
1689.0,0.0226
1688.0,0.0225
1687.0,0.0224
1686.0,0.0222
1685.0,0.0221
1684.0,0.0222
1683.0,0.0221
1682.0,0.022
1681.0,0.022
1680.0,0.022
1679.0,0.0219
1678.0,0.0218
1677.0,0.0217
1676.0,0.0217
1675.0,0.0218
1674.0,0.0218
1673.0,0.0218
1672.0,0.0217
1671.0,0.0216
1670.0,0.0218
1669.0,0.0221
1668.0,0.0222
1667.0,0.0222
1666.0,0.0222
1665.0,0.0221
1664.0,0.0221
1663.0,0.0221
1662.0,0.0222
1661.0,0.0223
1660.0,0.0223
1659.0,0.0222
1658.0,0.0222
1657.0,0.0222
1656.0,0.0221
1655.0,0.0219
1654.0,0.0222
1653.0,0.0229
1652.0,0.023
1651.0,0.0229
1650.0,0.0228
1649.0,0.0227
1648.0,0.0228
1647.0,0.023
1646.0,0.0233
1645.0,0.0234
1644.0,0.0234
1643.0,0.0233
1642.0,0.0233
1641.0,0.0232
1640.0,0.0231
1639.0,0.0229
1638.0,0.0227
1637.0,0.0223
1636.0,0.0217
1635.0,0.0211
1634.0,0.0204
1633.0,0.0199
1632.0,0.0193
1631.0,0.0187
1630.0,0.0181
1629.0,0.0175
1628.0,0.017
1627.0,0.0166
1626.0,0.0161
1625.0,0.0157
1624.0,0.0152
1623.0,0.0148
1622.0,0.0145
1621.0,0.0142
1620.0,0.014
1619.0,0.0136
1618.0,0.0132
1617.0,0.0127
1616.0,0.0123
1615.0,0.0121
1614.0,0.0119
1613.0,0.0117
1612.0,0.0114
1611.0,0.0111
1610.0,0.0108
1609.0,0.0105
1608.0,0.0102
1607.0,0.0099
1606.0,0.0096
1605.0,0.0093
1604.0,0.009
1603.0,0.0087
1602.0,0.0085
1601.0,0.0082
1600.0,0.0079
1599.0,0.0077
1598.0,0.0074
1597.0,0.0071
1596.0,0.0068
1595.0,0.0065
1594.0,0.0062
1593.0,0.006
1592.0,0.0057
1591.0,0.0054
1590.0,0.0052
1589.0,0.005
1588.0,0.0047
1587.0,0.0045
1586.0,0.0043
1585.0,0.0041
1584.0,0.0038
1583.0,0.0036
1582.0,0.0035
1581.0,0.0033
1580.0,0.0031
1579.0,0.0029
1578.0,0.0026
1577.0,0.0023
1576.0,0.002
1575.0,0.0018
1574.0,0.0017
1573.0,0.0016
1572.0,0.0015
1571.0,0.0012
1570.0,0.001
1569.0,0.0008
1568.0,0.0007
1567.0,0.0006
1566.0,0.0004
1565.0,0.0003
1564.0,0.0002
1563.0,0.0002
1562.0,0.0003
1561.0,0.0003
1560.0,0.0002
1559.0,-0.0001
1558.0,-0.0006
1557.0,-0.001
1556.0,-0.0011
1555.0,-0.0011
1554.0,-0.0012
1553.0,-0.0012
1552.0,-0.0012
1551.0,-0.0012
1550.0,-0.0012
1549.0,-0.0013
1548.0,-0.0013
1547.0,-0.0013
1546.0,-0.0014
1545.0,-0.0016
1544.0,-0.0017
1543.0,-0.0018
1542.0,-0.0018
1541.0,-0.0018
1540.0,-0.0018
1539.0,-0.002
1538.0,-0.0021
1537.0,-0.0022
1536.0,-0.0021
1535.0,-0.0022
1534.0,-0.0023
1533.0,-0.0025
1532.0,-0.0026
1531.0,-0.0026
1530.0,-0.0027
1529.0,-0.0028
1528.0,-0.0029
1527.0,-0.0031
1526.0,-0.0032
1525.0,-0.0033
1524.0,-0.0032
1523.0,-0.0033
1522.0,-0.0034
1521.0,-0.0035
1520.0,-0.0034
1519.0,-0.0034
1518.0,-0.0035
1517.0,-0.0036
1516.0,-0.0036
1515.0,-0.0036
1514.0,-0.0037
1513.0,-0.0038
1512.0,-0.0039
1511.0,-0.004
1510.0,-0.004
1509.0,-0.0039
1508.0,-0.0038
1507.0,-0.0036
1506.0,-0.0039
1505.0,-0.0042
1504.0,-0.0042
1503.0,-0.0042
1502.0,-0.0043
1501.0,-0.0044
1500.0,-0.0044
1499.0,-0.0045
1498.0,-0.0046
1497.0,-0.0046
1496.0,-0.0045
1495.0,-0.0045
1494.0,-0.0046
1493.0,-0.0046
1492.0,-0.0046
1491.0,-0.0047
1490.0,-0.0048
1489.0,-0.0048
1488.0,-0.0047
1487.0,-0.0047
1486.0,-0.0048
1485.0,-0.0049
1484.0,-0.0048
1483.0,-0.0047
1482.0,-0.0046
1481.0,-0.0045
1480.0,-0.0042
1479.0,-0.004
1478.0,-0.0038
1477.0,-0.0035
1476.0,-0.0031
1475.0,-0.0027
1474.0,-0.0021
1473.0,-0.0008
1472.0,0.0011
1471.0,0.0027
1470.0,0.0042
1469.0,0.0059
1468.0,0.0079
1467.0,0.0103
1466.0,0.0136
1465.0,0.0179
1464.0,0.0222
1463.0,0.0257
1462.0,0.0285
1461.0,0.0312
1460.0,0.0338
1459.0,0.0367
1458.0,0.0407
1457.0,0.0455
1456.0,0.0487
1455.0,0.0501
1454.0,0.051
1453.0,0.0516
1452.0,0.052
1451.0,0.0521
1450.0,0.0518
1449.0,0.051
1448.0,0.0495
1447.0,0.0475
1446.0,0.0451
1445.0,0.0424
1444.0,0.039
1443.0,0.0353
1442.0,0.0315
1441.0,0.0278
1440.0,0.0245
1439.0,0.0215
1438.0,0.0183
1437.0,0.0149
1436.0,0.012
1435.0,0.0103
1434.0,0.0091
1433.0,0.0081
1432.0,0.007
1431.0,0.0059
1430.0,0.0049
1429.0,0.004
1428.0,0.0032
1427.0,0.0027
1426.0,0.0022
1425.0,0.0016
1424.0,0.001
1423.0,0.0006
1422.0,0.0003
1421.0,-0.0001
1420.0,-0.0005
1419.0,-0.0009
1418.0,-0.0011
1417.0,-0.0013
1416.0,-0.0015
1415.0,-0.0016
1414.0,-0.0017
1413.0,-0.0018
1412.0,-0.0019
1411.0,-0.002
1410.0,-0.002
1409.0,-0.0021
1408.0,-0.0021
1407.0,-0.002
1406.0,-0.0019
1405.0,-0.0017
1404.0,-0.0014
1403.0,-0.0011
1402.0,-0.0007
1401.0,-0.0002
1400.0,0.0006
1399.0,0.0018
1398.0,0.0031
1397.0,0.0046
1396.0,0.0067
1395.0,0.0096
1394.0,0.0128
1393.0,0.0158
1392.0,0.0187
1391.0,0.0216
1390.0,0.0245
1389.0,0.0277
1388.0,0.0313
1387.0,0.0351
1386.0,0.0384
1385.0,0.0407
1384.0,0.0425
1383.0,0.0437
1382.0,0.0443
1381.0,0.044
1380.0,0.043
1379.0,0.0415
1378.0,0.0395
1377.0,0.0375
1376.0,0.0358
1375.0,0.0346
1374.0,0.0344
1373.0,0.035
1372.0,0.0361
1371.0,0.0374
1370.0,0.0389
1369.0,0.0402
1368.0,0.0413
1367.0,0.0422
1366.0,0.0428
1365.0,0.0432
1364.0,0.0437
1363.0,0.0443
1362.0,0.0449
1361.0,0.0453
1360.0,0.0455
1359.0,0.0456
1358.0,0.0454
1357.0,0.045
1356.0,0.0444
1355.0,0.0436
1354.0,0.0426
1353.0,0.0415
1352.0,0.0402
1351.0,0.0389
1350.0,0.0374
1349.0,0.0359
1348.0,0.0344
1347.0,0.0331
1346.0,0.0318
1345.0,0.0305
1344.0,0.0293
1343.0,0.0283
1342.0,0.0272
1341.0,0.0262
1340.0,0.0253
1339.0,0.0245
1338.0,0.0238
1337.0,0.0231
1336.0,0.0225
1335.0,0.0219
1334.0,0.0213
1333.0,0.0208
1332.0,0.0204
1331.0,0.02
1330.0,0.0196
1329.0,0.0193
1328.0,0.0191
1327.0,0.0189
1326.0,0.0187
1325.0,0.0186
1324.0,0.0184
1323.0,0.0184
1322.0,0.0183
1321.0,0.0183
1320.0,0.0182
1319.0,0.0181
1318.0,0.018
1317.0,0.018
1316.0,0.0179
1315.0,0.0179
1314.0,0.0179
1313.0,0.018
1312.0,0.018
1311.0,0.018
1310.0,0.018
1309.0,0.018
1308.0,0.018
1307.0,0.018
1306.0,0.018
1305.0,0.0179
1304.0,0.0178
1303.0,0.0177
1302.0,0.0176
1301.0,0.0174
1300.0,0.0171
1299.0,0.0167
1298.0,0.0161
1297.0,0.0155
1296.0,0.0148
1295.0,0.0142
1294.0,0.0135
1293.0,0.013
1292.0,0.0126
1291.0,0.0124
1290.0,0.0125
1289.0,0.0129
1288.0,0.0137
1287.0,0.0149
1286.0,0.0163
1285.0,0.018
1284.0,0.0199
1283.0,0.022
1282.0,0.0241
1281.0,0.0264
1280.0,0.0286
1279.0,0.0309
1278.0,0.0331
1277.0,0.0351
1276.0,0.0371
1275.0,0.0389
1274.0,0.0405
1273.0,0.0418
1272.0,0.0431
1271.0,0.0441
1270.0,0.0449
1269.0,0.0455
1268.0,0.0459
1267.0,0.0461
1266.0,0.0462
1265.0,0.046
1264.0,0.0457
1263.0,0.0452
1262.0,0.0445
1261.0,0.0437
1260.0,0.0429
1259.0,0.0421
1258.0,0.0413
1257.0,0.0405
1256.0,0.0397
1255.0,0.039
1254.0,0.0382
1253.0,0.0376
1252.0,0.037
1251.0,0.0366
1250.0,0.0362
1249.0,0.036
1248.0,0.0358
1247.0,0.0358
1246.0,0.0358
1245.0,0.0358
1244.0,0.0359
1243.0,0.0362
1242.0,0.0365
1241.0,0.0368
1240.0,0.0374
1239.0,0.038
1238.0,0.0387
1237.0,0.0396
1236.0,0.0405
1235.0,0.0415
1234.0,0.0426
1233.0,0.0438
1232.0,0.0452
1231.0,0.0468
1230.0,0.0486
1229.0,0.0505
1228.0,0.0526
1227.0,0.0548
1226.0,0.0571
1225.0,0.0596
1224.0,0.0622
1223.0,0.0651
1222.0,0.0679
1221.0,0.0708
1220.0,0.0737
1219.0,0.0767
1218.0,0.0796
1217.0,0.0825
1216.0,0.0852
1215.0,0.0878
1214.0,0.0902
1213.0,0.0924
1212.0,0.0943
1211.0,0.096
1210.0,0.0973
1209.0,0.0983
1208.0,0.0992
1207.0,0.1
1206.0,0.1007
1205.0,0.1014
1204.0,0.1021
1203.0,0.1029
1202.0,0.1039
1201.0,0.1049
1200.0,0.1063
1199.0,0.108
1198.0,0.11
1197.0,0.1124
1196.0,0.1151
1195.0,0.1184
1194.0,0.1221
1193.0,0.1262
1192.0,0.1309
1191.0,0.1362
1190.0,0.1421
1189.0,0.1485
1188.0,0.1554
1187.0,0.1624
1186.0,0.1695
1185.0,0.1763
1184.0,0.1823
1183.0,0.1873
1182.0,0.1907
1181.0,0.1918
1180.0,0.1903
1179.0,0.186
1178.0,0.1789
1177.0,0.1696
1176.0,0.1587
1175.0,0.147
1174.0,0.1352
1173.0,0.1238
1172.0,0.1131
1171.0,0.1034
1170.0,0.0946
1169.0,0.0867
1168.0,0.0796
1167.0,0.0734
1166.0,0.0681
1165.0,0.0633
1164.0,0.0591
1163.0,0.0554
1162.0,0.0521
1161.0,0.0492
1160.0,0.0466
1159.0,0.0445
1158.0,0.0426
1157.0,0.0411
1156.0,0.04
1155.0,0.0392
1154.0,0.0387
1153.0,0.0387
1152.0,0.039
1151.0,0.0398
1150.0,0.041
1149.0,0.0428
1148.0,0.0452
1147.0,0.0484
1146.0,0.0523
1145.0,0.0569
1144.0,0.0622
1143.0,0.0679
1142.0,0.0742
1141.0,0.0807
1140.0,0.0873
1139.0,0.0939
1138.0,0.1004
1137.0,0.1067
1136.0,0.1125
1135.0,0.1179
1134.0,0.1226
1133.0,0.1268
1132.0,0.1304
1131.0,0.1336
1130.0,0.1362
1129.0,0.138
1128.0,0.139
1127.0,0.1391
1126.0,0.1382
1125.0,0.1364
1124.0,0.134
1123.0,0.1312
1122.0,0.1284
1121.0,0.1257
1120.0,0.1233
1119.0,0.1213
1118.0,0.1197
1117.0,0.1184
1116.0,0.1175
1115.0,0.1172
1114.0,0.1175
1113.0,0.1183
1112.0,0.1198
1111.0,0.122
1110.0,0.1251
1109.0,0.1288
1108.0,0.1333
1107.0,0.1383
1106.0,0.1438
1105.0,0.1495
1104.0,0.1555
1103.0,0.1616
1102.0,0.1678
1101.0,0.1741
1100.0,0.1804
1099.0,0.1867
1098.0,0.1931
1097.0,0.1994
1096.0,0.2058
1095.0,0.2122
1094.0,0.2186
1093.0,0.2251
1092.0,0.2317
1091.0,0.2382
1090.0,0.2447
1089.0,0.251
1088.0,0.257
1087.0,0.2627
1086.0,0.2677
1085.0,0.2719
1084.0,0.2752
1083.0,0.2776
1082.0,0.279
1081.0,0.2792
1080.0,0.2784
1079.0,0.2765
1078.0,0.2737
1077.0,0.2698
1076.0,0.2649
1075.0,0.259
1074.0,0.2524
1073.0,0.2451
1072.0,0.2371
1071.0,0.2288
1070.0,0.2202
1069.0,0.2114
1068.0,0.2027
1067.0,0.1942
1066.0,0.1861
1065.0,0.1786
1064.0,0.172
1063.0,0.1665
1062.0,0.1622
1061.0,0.1592
1060.0,0.1572
1059.0,0.1561
1058.0,0.1558
1057.0,0.1561
1056.0,0.1568
1055.0,0.1578
1054.0,0.1589
1053.0,0.1603
1052.0,0.1619
1051.0,0.1637
1050.0,0.1657
1049.0,0.1677
1048.0,0.1697
1047.0,0.1715
1046.0,0.1731
1045.0,0.1742
1044.0,0.1749
1043.0,0.1749
1042.0,0.1744
1041.0,0.1734
1040.0,0.1716
1039.0,0.1693
1038.0,0.1664
1037.0,0.1631
1036.0,0.1595
1035.0,0.1556
1034.0,0.1518
1033.0,0.1481
1032.0,0.1446
1031.0,0.1414
1030.0,0.1386
1029.0,0.1361
1028.0,0.1338
1027.0,0.1317
1026.0,0.1297
1025.0,0.1277
1024.0,0.1255
1023.0,0.123
1022.0,0.1204
1021.0,0.1175
1020.0,0.1146
1019.0,0.1116
1018.0,0.1085
1017.0,0.1055
1016.0,0.1024
1015.0,0.0994
1014.0,0.0965
1013.0,0.0937
1012.0,0.0911
1011.0,0.0886
1010.0,0.0863
1009.0,0.0841
1008.0,0.0822
1007.0,0.0804
1006.0,0.0788
1005.0,0.0772
1004.0,0.0757
1003.0,0.0743
1002.0,0.073
1001.0,0.0718
1000.0,0.0706
999.0,0.0696
998.0,0.0686
997.0,0.0676
996.0,0.0666
995.0,0.0657
994.0,0.0648
993.0,0.0639
992.0,0.0631
991.0,0.0624
990.0,0.0617
989.0,0.0611
988.0,0.0605
987.0,0.0599
986.0,0.0594
985.0,0.0589
984.0,0.0583
983.0,0.0576
982.0,0.0569
981.0,0.0561
980.0,0.0553
979.0,0.0546
978.0,0.054
977.0,0.0534
976.0,0.0529
975.0,0.0524
974.0,0.0518
973.0,0.0513
972.0,0.0508
971.0,0.0504
970.0,0.05
969.0,0.0496
968.0,0.0492
967.0,0.049
966.0,0.0488
965.0,0.0489
964.0,0.0491
963.0,0.0496
962.0,0.0503
961.0,0.0512
960.0,0.0521
959.0,0.053
958.0,0.0538
957.0,0.0542
956.0,0.0544
955.0,0.0542
954.0,0.0539
953.0,0.0535
952.0,0.0529
951.0,0.0524
950.0,0.0518
949.0,0.0512
948.0,0.0507
947.0,0.0501
946.0,0.0496
945.0,0.0491
944.0,0.0486
943.0,0.0482
942.0,0.0478
941.0,0.0474
940.0,0.047
939.0,0.0467
938.0,0.0465
937.0,0.0463
936.0,0.0461
935.0,0.0459
934.0,0.0456
933.0,0.0454
932.0,0.0453
931.0,0.0452
930.0,0.0451
929.0,0.045
928.0,0.0449
927.0,0.0448
926.0,0.0448
925.0,0.0448
924.0,0.0448
923.0,0.0447
922.0,0.0447
921.0,0.0446
920.0,0.0445
919.0,0.0443
918.0,0.0442
917.0,0.0441
916.0,0.0441
915.0,0.044
914.0,0.0439
913.0,0.0438
912.0,0.0437
911.0,0.0435
910.0,0.0434
909.0,0.0434
908.0,0.0433
907.0,0.0433
906.0,0.0433
905.0,0.0433
904.0,0.0432
903.0,0.0431
902.0,0.0431
901.0,0.0432
900.0,0.0432
899.0,0.0432
898.0,0.0432
897.0,0.0432
896.0,0.0432
895.0,0.0431
894.0,0.043
893.0,0.0429
892.0,0.0426
891.0,0.0423
890.0,0.0419
889.0,0.0414
888.0,0.041
887.0,0.0406
886.0,0.0403
885.0,0.0403
884.0,0.0406
883.0,0.0412
882.0,0.0423
881.0,0.0438
880.0,0.0456
879.0,0.0476
878.0,0.05
877.0,0.0526
876.0,0.0552
875.0,0.0578
874.0,0.0602
873.0,0.0625
872.0,0.0644
871.0,0.066
870.0,0.0673
869.0,0.0682
868.0,0.0689
867.0,0.0693
866.0,0.0694
865.0,0.0692
864.0,0.0689
863.0,0.0683
862.0,0.0674
861.0,0.0662
860.0,0.0646
859.0,0.0628
858.0,0.0607
857.0,0.0586
856.0,0.0566
855.0,0.0547
854.0,0.053
853.0,0.0516
852.0,0.0506
851.0,0.05
850.0,0.0497
849.0,0.0494
848.0,0.0492
847.0,0.0487
846.0,0.048
845.0,0.0472
844.0,0.0465
843.0,0.0457
842.0,0.045
841.0,0.0444
840.0,0.0436
839.0,0.0428
838.0,0.0421
837.0,0.0415
836.0,0.041
835.0,0.0407
834.0,0.0403
833.0,0.0399
832.0,0.0396
831.0,0.0393
830.0,0.039
829.0,0.0388
828.0,0.0387
827.0,0.0386
826.0,0.0386
825.0,0.0386
824.0,0.0386
823.0,0.0386
822.0,0.0385
821.0,0.0384
820.0,0.0382
819.0,0.0379
818.0,0.0377
817.0,0.0376
816.0,0.0376
815.0,0.0376
814.0,0.0375
813.0,0.0373
812.0,0.0372
811.0,0.0371
810.0,0.0371
809.0,0.0372
808.0,0.0373
807.0,0.0373
806.0,0.0373
805.0,0.0371
804.0,0.0369
803.0,0.0367
802.0,0.0367
801.0,0.0367
800.0,0.0369
799.0,0.0371
798.0,0.0372
797.0,0.0372
796.0,0.0373
795.0,0.0373
794.0,0.0375
793.0,0.0377
792.0,0.0378
791.0,0.038
790.0,0.0383
789.0,0.0388
788.0,0.0393
787.0,0.0399
786.0,0.0404
785.0,0.041
784.0,0.0416
783.0,0.0423
782.0,0.0431
781.0,0.0439
780.0,0.0447
779.0,0.0454
778.0,0.046
777.0,0.0466
776.0,0.0473
775.0,0.0481
774.0,0.0491
773.0,0.0501
772.0,0.0511
771.0,0.0521
770.0,0.0532
769.0,0.0544
768.0,0.0558
767.0,0.0573
766.0,0.0589
765.0,0.0606
764.0,0.0625
763.0,0.0646
762.0,0.0667
761.0,0.0688
760.0,0.0709
759.0,0.0728
758.0,0.0745
757.0,0.076
756.0,0.0772
755.0,0.078
754.0,0.0784
753.0,0.0785
752.0,0.0783
751.0,0.078
750.0,0.0776
749.0,0.0772
748.0,0.0767
747.0,0.0762
746.0,0.0758
745.0,0.0755
744.0,0.0751
743.0,0.0747
742.0,0.0742
741.0,0.0737
740.0,0.0732
739.0,0.0725
738.0,0.0714
737.0,0.07
736.0,0.0683
735.0,0.0665
734.0,0.0645
733.0,0.0625
732.0,0.0608
731.0,0.0593
730.0,0.0582
729.0,0.0572
728.0,0.0564
727.0,0.0558
726.0,0.0554
725.0,0.0552
724.0,0.0554
723.0,0.0558
722.0,0.0562
721.0,0.0569
720.0,0.0578
719.0,0.0591
718.0,0.0606
717.0,0.062
716.0,0.0634
715.0,0.0646
714.0,0.0656
713.0,0.0663
712.0,0.0669
711.0,0.0674
710.0,0.0678
709.0,0.0679
708.0,0.068
707.0,0.0683
706.0,0.0687
705.0,0.0691
704.0,0.0692
703.0,0.0689
702.0,0.0685
701.0,0.0682
700.0,0.0682
699.0,0.0686
698.0,0.0692
697.0,0.0699
696.0,0.0704
695.0,0.0706
694.0,0.0704
693.0,0.07
692.0,0.0695
691.0,0.0693
690.0,0.0693
689.0,0.0693
688.0,0.0694
687.0,0.0695
686.0,0.0697
685.0,0.0696
684.0,0.0691
683.0,0.0686
682.0,0.0681
681.0,0.0677
680.0,0.0672
679.0,0.0667
678.0,0.0664
677.0,0.0666
676.0,0.0673
675.0,0.0683
674.0,0.0689
673.0,0.069
672.0,0.069
671.0,0.0695
670.0,0.0709
669.0,0.0738
668.0,0.077
667.0,0.0761
666.0,0.073
665.0,0.0705
664.0,0.0692
663.0,0.0686
662.0,0.0681
661.0,0.0674
660.0,0.0668
659.0,0.0666
658.0,0.0669
657.0,0.0671
656.0,0.0667
655.0,0.0658
654.0,0.0649
653.0,0.0645
652.0,0.065
651.0,0.0657
650.0,0.066
649.0,0.0663
648.0,0.0669
647.0,0.0677
646.0,0.0684
645.0,0.0687
644.0,0.0687
643.0,0.0686
642.0,0.0685
641.0,0.0685
640.0,0.069
639.0,0.0698
638.0,0.0709
637.0,0.0722
636.0,0.0735
635.0,0.0744
634.0,0.0745
633.0,0.0739
632.0,0.0733
631.0,0.0726
630.0,0.0716
629.0,0.0704
628.0,0.0698
627.0,0.0696
626.0,0.0693
625.0,0.0686
624.0,0.0677
623.0,0.067
622.0,0.0662
621.0,0.0653
620.0,0.0646
619.0,0.0639
618.0,0.0632
617.0,0.0624
616.0,0.0621
615.0,0.0623
614.0,0.0626
613.0,0.0624
612.0,0.062
611.0,0.0616
610.0,0.0613
609.0,0.061
608.0,0.0611
607.0,0.0614
606.0,0.0615
605.0,0.0609
604.0,0.06
603.0,0.0593
602.0,0.0591
601.0,0.0588
600.0,0.0582
