cm-1,A
4000.0,0.003794893821675638
3999.0,0.0038387066319929275
3998.0,0.0038825238627120395
3997.0,0.0038387066319929275
3996.0,0.0037510854308679953
3995.0,0.003619686766589858
3994.0,0.0035321097382827737
3993.0,0.0034445503666347133
3992.0,0.0034445503666347133
3991.0,0.0035321097382827737
3990.0,0.0035758960449088217
3989.0,0.0036634819042162814
3988.0,0.003794893821675638
3987.0,0.003926345514724705
3986.0,0.00401400208620073
3985.0,0.00401400208620073
3984.0,0.003970171588923321
3983.0,0.0038387066319929275
3982.0,0.0037510854308679953
3981.0,0.003707281458678491
3980.0,0.0037510854308679953
3979.0,0.003794893821675638
3978.0,0.0038825238627120395
3977.0,0.003970171588923321
3976.0,0.003970171588923321
3975.0,0.003970171588923321
3974.0,0.0038825238627120395
3973.0,0.0037510854308679953
3972.0,0.0036634819042162814
3971.0,0.003619686766589858
3970.0,0.003619686766589858
3969.0,0.003619686766589858
3968.0,0.0035758960449088217
3967.0,0.0035321097382827737
3966.0,0.0035321097382827737
3965.0,0.0035321097382827737
3964.0,0.0036634819042162814
3963.0,0.003794893821675638
3962.0,0.003926345514724705
3961.0,0.003926345514724705
3960.0,0.003926345514724705
3959.0,0.0038825238627120395
3958.0,0.0038825238627120395
3957.0,0.0038825238627120395
3956.0,0.003970171588923321
3955.0,0.00401400208620073
3954.0,0.003970171588923321
3953.0,0.003926345514724705
3952.0,0.0038387066319929275
3951.0,0.0037510854308679953
3950.0,0.0037510854308679953
3949.0,0.003794893821675638
3948.0,0.0038825238627120395
3947.0,0.003926345514724705
3946.0,0.003926345514724705
3945.0,0.0038825238627120395
3944.0,0.0038825238627120395
3943.0,0.003926345514724705
3942.0,0.0038825238627120395
3941.0,0.0038825238627120395
3940.0,0.0038387066319929275
3939.0,0.003794893821675638
3938.0,0.0037510854308679953
3937.0,0.0037510854308679953
3936.0,0.0037510854308679953
3935.0,0.003794893821675638
3934.0,0.0038387066319929275
3933.0,0.0038825238627120395
3932.0,0.003926345514724705
3931.0,0.003970171588923321
3930.0,0.003970171588923321
3929.0,0.003970171588923321
3928.0,0.00401400208620073
3927.0,0.0040578370074493275
3926.0,0.0040578370074493275
3925.0,0.003970171588923321
3924.0,0.0038387066319929275
3923.0,0.0037510854308679953
3922.0,0.003707281458678491
3921.0,0.003707281458678491
3920.0,0.0037510854308679953
3919.0,0.003794893821675638
3918.0,0.0038387066319929275
3917.0,0.0038387066319929275
3916.0,0.0038387066319929275
3915.0,0.003794893821675638
3914.0,0.003794893821675638
3913.0,0.003794893821675638
3912.0,0.0038387066319929275
3911.0,0.0038387066319929275
3910.0,0.0038387066319929275
3909.0,0.0038387066319929275
3908.0,0.003794893821675638
3907.0,0.0037510854308679953
3906.0,0.003707281458678491
3905.0,0.0036634819042162814
3904.0,0.0035758960449088217
3903.0,0.0035321097382827737
3902.0,0.0035321097382827737
3901.0,0.0035758960449088217
3900.0,0.0035758960449088217
3899.0,0.0035321097382827737
3898.0,0.0035321097382827737
3897.0,0.0035758960449088217
3896.0,0.003619686766589858
3895.0,0.0036634819042162814
3894.0,0.0036634819042162814
3893.0,0.0036634819042162814
3892.0,0.0036634819042162814
3891.0,0.0035321097382827737
3890.0,0.0034445503666347133
3889.0,0.003488327845821315
3888.0,0.003619686766589858
3887.0,0.003707281458678491
3886.0,0.003707281458678491
3885.0,0.0036634819042162814
3884.0,0.003707281458678491
3883.0,0.0038387066319929275
3882.0,0.003970171588923321
3881.0,0.00401400208620073
3880.0,0.003926345514724705
3879.0,0.003794893821675638
3878.0,0.003794893821675638
3877.0,0.0038387066319929275
3876.0,0.0038387066319929275
3875.0,0.003707281458678491
3874.0,0.003488327845821315
3873.0,0.0034007772998332353
3872.0,0.0035758960449088217
3871.0,0.0038387066319929275
3870.0,0.003926345514724705
3869.0,0.003794893821675638
3868.0,0.003707281458678491
3867.0,0.003707281458678491
3866.0,0.003794893821675638
3865.0,0.0038825238627120395
3864.0,0.003970171588923321
3863.0,0.00401400208620073
3862.0,0.00401400208620073
3861.0,0.003926345514724705
3860.0,0.003794893821675638
3859.0,0.003619686766589858
3858.0,0.003488327845821315
3857.0,0.0034007772998332353
3856.0,0.0034007772998332353
3855.0,0.0035321097382827737
3854.0,0.0036634819042162814
3853.0,0.0035321097382827737
3852.0,0.0034007772998332353
3851.0,0.0035758960449088217
3850.0,0.003794893821675638
3849.0,0.0038825238627120395
3848.0,0.0038825238627120395
3847.0,0.0038825238627120395
3846.0,0.003970171588923321
3845.0,0.0040578370074493275
3844.0,0.004101676353562844
3843.0,0.00401400208620073
3842.0,0.0038387066319929275
3841.0,0.003707281458678491
3840.0,0.0036634819042162814
3839.0,0.0036634819042162814
3838.0,0.0037510854308679953
3837.0,0.003794893821675638
3836.0,0.0038825238627120395
3835.0,0.00401400208620073
3834.0,0.004101676353562844
3833.0,0.004101676353562844
3832.0,0.00401400208620073
3831.0,0.0038825238627120395
3830.0,0.0038387066319929275
3829.0,0.0038825238627120395
3828.0,0.003926345514724705
3827.0,0.003926345514724705
3826.0,0.0037510854308679953
3825.0,0.0034445503666347133
3824.0,0.0032694845648473247
3823.0,0.0032694845648473247
3822.0,0.0035321097382827737
3821.0,0.003794893821675638
3820.0,0.0038825238627120395
3819.0,0.003926345514724705
3818.0,0.003970171588923321
3817.0,0.0038825238627120395
3816.0,0.0036634819042162814
3815.0,0.0035321097382827737
3814.0,0.0035758960449088217
3813.0,0.0037510854308679953
3812.0,0.0038387066319929275
3811.0,0.0038387066319929275
3810.0,0.003794893821675638
3809.0,0.003794893821675638
3808.0,0.0038387066319929275
3807.0,0.0037510854308679953
3806.0,0.003619686766589858
3805.0,0.0036634819042162814
3804.0,0.003794893821675638
3803.0,0.0040578370074493275
3802.0,0.004145520125434121
3801.0,0.00401400208620073
3800.0,0.003794893821675638
3799.0,0.0037510854308679953
3798.0,0.0038387066319929275
3797.0,0.0038825238627120395
3796.0,0.003926345514724705
3795.0,0.003926345514724705
3794.0,0.003926345514724705
3793.0,0.003926345514724705
3792.0,0.003926345514724705
3791.0,0.0038825238627120395
3790.0,0.003926345514724705
3789.0,0.003926345514724705
3788.0,0.003926345514724705
3787.0,0.003926345514724705
3786.0,0.00401400208620073
3785.0,0.0040578370074493275
3784.0,0.0040578370074493275
3783.0,0.0040578370074493275
3782.0,0.0040578370074493275
3781.0,0.004101676353562844
3780.0,0.004145520125434121
3779.0,0.004145520125434121
3778.0,0.004101676353562844
3777.0,0.0040578370074493275
3776.0,0.0040578370074493275
3775.0,0.00401400208620073
3774.0,0.00401400208620073
3773.0,0.003926345514724705
3772.0,0.0038387066319929275
3771.0,0.0037510854308679953
3770.0,0.0036634819042162814
3769.0,0.0036634819042162814
3768.0,0.0037510854308679953
3767.0,0.0038825238627120395
3766.0,0.003926345514724705
3765.0,0.003926345514724705
3764.0,0.0038825238627120395
3763.0,0.0038825238627120395
3762.0,0.0038387066319929275
3761.0,0.0037510854308679953
3760.0,0.003619686766589858
3759.0,0.0035321097382827737
3758.0,0.003488327845821315
3757.0,0.003488327845821315
3756.0,0.003488327845821315
3755.0,0.003488327845821315
3754.0,0.0034445503666347133
3753.0,0.0034007772998332353
3752.0,0.0035321097382827737
3751.0,0.003707281458678491
3750.0,0.003794893821675638
3749.0,0.0037510854308679953
3748.0,0.003794893821675638
3747.0,0.0038825238627120395
3746.0,0.003970171588923321
3745.0,0.003926345514724705
3744.0,0.003707281458678491
3743.0,0.0035758960449088217
3742.0,0.003707281458678491
3741.0,0.0038387066319929275
3740.0,0.0037510854308679953
3739.0,0.0036634819042162814
3738.0,0.0036634819042162814
3737.0,0.0038387066319929275
3736.0,0.003970171588923321
3735.0,0.00401400208620073
3734.0,0.0040578370074493275
3733.0,0.004145520125434121
3732.0,0.004233220950025984
3731.0,0.004277078004534696
3730.0,0.0043648054024501
3729.0,0.004408675747646695
3728.0,0.004408675747646695
3727.0,0.004320939488377862
3726.0,0.004189368323957332
3725.0,0.0040578370074493275
3724.0,0.00401400208620073
3723.0,0.0040578370074493275
3722.0,0.004145520125434121
3721.0,0.004189368323957332
3720.0,0.004145520125434121
3719.0,0.004101676353562844
3718.0,0.00401400208620073
3717.0,0.003926345514724705
3716.0,0.0038387066319929275
3715.0,0.003794893821675638
3714.0,0.0037510854308679953
3713.0,0.0038387066319929275
3712.0,0.0040578370074493275
3711.0,0.004320939488377862
3710.0,0.0044964297349936455
3709.0,0.004628093971837721
3708.0,0.004759798137184523
3707.0,0.004803708402820517
3706.0,0.004803708402820517
3705.0,0.004759798137184523
3704.0,0.004671990922590297
3703.0,0.004628093971837721
3702.0,0.004628093971837721
3701.0,0.004671990922590297
3700.0,0.004715892310740433
3699.0,0.00484762310854614
3698.0,0.005023326350308999
3697.0,0.005111204635089406
3696.0,0.005155150446602086
3695.0,0.005155150446602086
3694.0,0.005111204635089406
3693.0,0.005023326350308999
3692.0,0.00489154225525934
3691.0,0.00484762310854614
3690.0,0.00489154225525934
3689.0,0.004979393875242044
3688.0,0.005023326350308999
3687.0,0.005067263269958211
3686.0,0.005155150446602086
3685.0,0.005199100705396198
3684.0,0.005199100705396198
3683.0,0.005155150446602086
3682.0,0.005111204635089406
3681.0,0.005111204635089406
3680.0,0.005067263269958211
3679.0,0.005023326350308999
3678.0,0.004979393875242044
3677.0,0.005067263269958211
3676.0,0.005067263269958211
3675.0,0.00484762310854614
3674.0,0.004715892310740433
3673.0,0.00484762310854614
3672.0,0.005199100705396198
3671.0,0.005594853310833647
3670.0,0.005814871797682919
3669.0,0.005726851026829571
3668.0,0.005594853310833647
3667.0,0.005506877116487674
3666.0,0.005462895701502157
3665.0,0.00537494623139545
3664.0,0.005330978174470591
3663.0,0.005330978174470591
3662.0,0.00537494623139545
3661.0,0.00541891874010525
3660.0,0.00541891874010525
3659.0,0.005330978174470591
3658.0,0.005243055412371911
3657.0,0.005155150446602086
3656.0,0.004979393875242044
3655.0,0.004803708402820517
3654.0,0.00458420145758498
3653.0,0.004277078004534696
3652.0,0.003970171588923321
3651.0,0.003794893821675638
3650.0,0.00401400208620073
3649.0,0.004452550524862486
3648.0,0.004671990922590297
3647.0,0.004803708402820517
3646.0,0.004935465843858511
3645.0,0.005067263269958211
3644.0,0.005243055412371911
3643.0,0.005330978174470591
3642.0,0.005330978174470591
3641.0,0.005243055412371911
3640.0,0.005111204635089406
3639.0,0.004979393875242044
3638.0,0.004935465843858511
3637.0,0.004935465843858511
3636.0,0.004979393875242044
3635.0,0.004935465843858511
3634.0,0.00484762310854614
3633.0,0.004671990922590297
3632.0,0.004540313378935901
3631.0,0.004540313378935901
3630.0,0.004715892310740433
3629.0,0.00489154225525934
3628.0,0.00489154225525934
3627.0,0.00484762310854614
3626.0,0.00484762310854614
3625.0,0.004803708402820517
3624.0,0.004628093971837721
3623.0,0.004408675747646695
3622.0,0.004320939488377862
3621.0,0.004277078004534696
3620.0,0.004320939488377862
3619.0,0.004320939488377862
3618.0,0.004189368323957332
3617.0,0.004101676353562844
3616.0,0.0040578370074493275
3615.0,0.004145520125434121
3614.0,0.004320939488377862
3613.0,0.0044964297349936455
3612.0,0.004671990922590297
3611.0,0.004715892310740433
3610.0,0.004759798137184523
3609.0,0.004715892310740433
3608.0,0.004759798137184523
3607.0,0.004803708402820517
3606.0,0.00489154225525934
3605.0,0.005067263269958211
3604.0,0.005199100705396198
3603.0,0.005330978174470591
3602.0,0.00537494623139545
3601.0,0.005243055412371911
3600.0,0.004979393875242044
3599.0,0.004628093971837721
3598.0,0.004408675747646695
3597.0,0.0043648054024501
3596.0,0.004452550524862486
3595.0,0.004540313378935901
3594.0,0.00458420145758498
3593.0,0.0044964297349936455
3592.0,0.0043648054024501
3591.0,0.004320939488377862
3590.0,0.004320939488377862
3589.0,0.004408675747646695
3588.0,0.004540313378935901
3587.0,0.00458420145758498
3586.0,0.004540313378935901
3585.0,0.004452550524862486
3584.0,0.0043648054024501
3583.0,0.0043648054024501
3582.0,0.0043648054024501
3581.0,0.004452550524862486
3580.0,0.004540313378935901
3579.0,0.00458420145758498
3578.0,0.004628093971837721
3577.0,0.004540313378935901
3576.0,0.004452550524862486
3575.0,0.004320939488377862
3574.0,0.004277078004534696
3573.0,0.004320939488377862
3572.0,0.004452550524862486
3571.0,0.004540313378935901
3570.0,0.004540313378935901
3569.0,0.0044964297349936455
3568.0,0.004408675747646695
3567.0,0.0043648054024501
3566.0,0.004320939488377862
3565.0,0.0043648054024501
3564.0,0.0043648054024501
3563.0,0.004320939488377862
3562.0,0.004233220950025984
3561.0,0.004189368323957332
3560.0,0.004145520125434121
3559.0,0.004189368323957332
3558.0,0.004277078004534696
3557.0,0.004320939488377862
3556.0,0.004408675747646695
3555.0,0.0044964297349936455
3554.0,0.004540313378935901
3553.0,0.0044964297349936455
3552.0,0.004452550524862486
3551.0,0.004320939488377862
3550.0,0.004233220950025984
3549.0,0.004189368323957332
3548.0,0.004233220950025984
3547.0,0.004320939488377862
3546.0,0.0043648054024501
3545.0,0.004320939488377862
3544.0,0.004277078004534696
3543.0,0.004277078004534696
3542.0,0.004320939488377862
3541.0,0.0043648054024501
3540.0,0.004408675747646695
3539.0,0.0044964297349936455
3538.0,0.004628093971837721
3537.0,0.004715892310740433
3536.0,0.004715892310740433
3535.0,0.00458420145758498
3534.0,0.004408675747646695
3533.0,0.004233220950025984
3532.0,0.004145520125434121
3531.0,0.004145520125434121
3530.0,0.004145520125434121
3529.0,0.004101676353562844
3528.0,0.0040578370074493275
3527.0,0.00401400208620073
3526.0,0.00401400208620073
3525.0,0.0040578370074493275
3524.0,0.004189368323957332
3523.0,0.004320939488377862
3522.0,0.0043648054024501
3521.0,0.0043648054024501
3520.0,0.0043648054024501
3519.0,0.004408675747646695
3518.0,0.004452550524862486
3517.0,0.004540313378935901
3516.0,0.004628093971837721
3515.0,0.004759798137184523
3514.0,0.004803708402820517
3513.0,0.004803708402820517
3512.0,0.004671990922590297
3511.0,0.00458420145758498
3510.0,0.004452550524862486
3509.0,0.0043648054024501
3508.0,0.004277078004534696
3507.0,0.004233220950025984
3506.0,0.004233220950025984
3505.0,0.004233220950025984
3504.0,0.004320939488377862
3503.0,0.004452550524862486
3502.0,0.004540313378935901
3501.0,0.004671990922590297
3500.0,0.004759798137184523
3499.0,0.00484762310854614
3498.0,0.00489154225525934
3497.0,0.00489154225525934
3496.0,0.00484762310854614
3495.0,0.004803708402820517
3494.0,0.004759798137184523
3493.0,0.004759798137184523
3492.0,0.004759798137184523
3491.0,0.004759798137184523
3490.0,0.004715892310740433
3489.0,0.004628093971837721
3488.0,0.004540313378935901
3487.0,0.0044964297349936455
3486.0,0.0044964297349936455
3485.0,0.00458420145758498
3484.0,0.004671990922590297
3483.0,0.004759798137184523
3482.0,0.004803708402820517
3481.0,0.004803708402820517
3480.0,0.004715892310740433
3479.0,0.00458420145758498
3478.0,0.0044964297349936455
3477.0,0.004452550524862486
3476.0,0.004452550524862486
3475.0,0.0044964297349936455
3474.0,0.004540313378935901
3473.0,0.0044964297349936455
3472.0,0.004452550524862486
3471.0,0.004408675747646695
3470.0,0.0043648054024501
3469.0,0.0043648054024501
3468.0,0.004452550524862486
3467.0,0.004540313378935901
3466.0,0.004671990922590297
3465.0,0.004759798137184523
3464.0,0.004803708402820517
3463.0,0.004759798137184523
3462.0,0.004715892310740433
3461.0,0.004671990922590297
3460.0,0.00458420145758498
3459.0,0.004540313378935901
3458.0,0.004540313378935901
3457.0,0.00458420145758498
3456.0,0.004540313378935901
3455.0,0.004452550524862486
3454.0,0.0043648054024501
3453.0,0.004320939488377862
3452.0,0.004320939488377862
3451.0,0.004408675747646695
3450.0,0.004540313378935901
3449.0,0.004715892310740433
3448.0,0.00484762310854614
3447.0,0.00489154225525934
3446.0,0.00489154225525934
3445.0,0.004803708402820517
3444.0,0.004715892310740433
3443.0,0.004671990922590297
3442.0,0.00458420145758498
3441.0,0.004452550524862486
3440.0,0.0043648054024501
3439.0,0.004320939488377862
3438.0,0.0043648054024501
3437.0,0.004452550524862486
3436.0,0.00458420145758498
3435.0,0.004628093971837721
3434.0,0.00458420145758498
3433.0,0.004540313378935901
3432.0,0.0044964297349936455
3431.0,0.004540313378935901
3430.0,0.00458420145758498
3429.0,0.004628093971837721
3428.0,0.004628093971837721
3427.0,0.004628093971837721
3426.0,0.004628093971837721
3425.0,0.004628093971837721
3424.0,0.004628093971837721
3423.0,0.004628093971837721
3422.0,0.004671990922590297
3421.0,0.004671990922590297
3420.0,0.004715892310740433
3419.0,0.004671990922590297
3418.0,0.004671990922590297
3417.0,0.004671990922590297
3416.0,0.004671990922590297
3415.0,0.004628093971837721
3414.0,0.004540313378935901
3413.0,0.0043648054024501
3412.0,0.004233220950025984
3411.0,0.004145520125434121
3410.0,0.004101676353562844
3409.0,0.004145520125434121
3408.0,0.004189368323957332
3407.0,0.004233220950025984
3406.0,0.004189368323957332
3405.0,0.004145520125434121
3404.0,0.004145520125434121
3403.0,0.004189368323957332
3402.0,0.004277078004534696
3401.0,0.0043648054024501
3400.0,0.004452550524862486
3399.0,0.004452550524862486
3398.0,0.004408675747646695
3397.0,0.004277078004534696
3396.0,0.004101676353562844
3395.0,0.00401400208620073
3394.0,0.00401400208620073
3393.0,0.004101676353562844
3392.0,0.004189368323957332
3391.0,0.004189368323957332
3390.0,0.004189368323957332
3389.0,0.004233220950025984
3388.0,0.004277078004534696
3387.0,0.004408675747646695
3386.0,0.0044964297349936455
3385.0,0.004540313378935901
3384.0,0.004540313378935901
3383.0,0.004540313378935901
3382.0,0.004540313378935901
3381.0,0.00458420145758498
3380.0,0.00458420145758498
3379.0,0.004540313378935901
3378.0,0.004452550524862486
3377.0,0.0043648054024501
3376.0,0.004277078004534696
3375.0,0.004189368323957332
3374.0,0.004145520125434121
3373.0,0.004101676353562844
3372.0,0.004145520125434121
3371.0,0.004233220950025984
3370.0,0.004277078004534696
3369.0,0.004277078004534696
3368.0,0.004277078004534696
3367.0,0.004277078004534696
3366.0,0.004233220950025984
3365.0,0.004233220950025984
3364.0,0.004233220950025984
3363.0,0.004189368323957332
3362.0,0.004277078004534696
3361.0,0.0043648054024501
3360.0,0.0044964297349936455
3359.0,0.00458420145758498
3358.0,0.004540313378935901
3357.0,0.004408675747646695
3356.0,0.004233220950025984
3355.0,0.0040578370074493275
3354.0,0.00401400208620073
3353.0,0.0040578370074493275
3352.0,0.004145520125434121
3351.0,0.004233220950025984
3350.0,0.004320939488377862
3349.0,0.004320939488377862
3348.0,0.004233220950025984
3347.0,0.004189368323957332
3346.0,0.004189368323957332
3345.0,0.004233220950025984
3344.0,0.004233220950025984
3343.0,0.004277078004534696
3342.0,0.004320939488377862
3341.0,0.004320939488377862
3340.0,0.004277078004534696
3339.0,0.004189368323957332
3338.0,0.0040578370074493275
3337.0,0.00401400208620073
3336.0,0.0040578370074493275
3335.0,0.004189368323957332
3334.0,0.004277078004534696
3333.0,0.0043648054024501
3332.0,0.0043648054024501
3331.0,0.0043648054024501
3330.0,0.004320939488377862
3329.0,0.004233220950025984
3328.0,0.004145520125434121
3327.0,0.0040578370074493275
3326.0,0.0040578370074493275
3325.0,0.004101676353562844
3324.0,0.004145520125434121
3323.0,0.004145520125434121
3322.0,0.004101676353562844
3321.0,0.0040578370074493275
3320.0,0.004101676353562844
3319.0,0.004189368323957332
3318.0,0.004320939488377862
3317.0,0.0043648054024501
3316.0,0.004277078004534696
3315.0,0.004189368323957332
3314.0,0.004101676353562844
3313.0,0.00401400208620073
3312.0,0.00401400208620073
3311.0,0.003926345514724705
3310.0,0.0038825238627120395
3309.0,0.0038825238627120395
3308.0,0.003926345514724705
3307.0,0.00401400208620073
3306.0,0.0040578370074493275
3305.0,0.003970171588923321
3304.0,0.0038825238627120395
3303.0,0.003794893821675638
3302.0,0.0037510854308679953
3301.0,0.003794893821675638
3300.0,0.0038387066319929275
3299.0,0.0038825238627120395
3298.0,0.0038387066319929275
3297.0,0.0037510854308679953
3296.0,0.0036634819042162814
3295.0,0.003619686766589858
3294.0,0.003619686766589858
3293.0,0.003619686766589858
3292.0,0.003619686766589858
3291.0,0.003619686766589858
3290.0,0.003619686766589858
3289.0,0.0036634819042162814
3288.0,0.003707281458678491
3287.0,0.0037510854308679953
3286.0,0.0037510854308679953
3285.0,0.003794893821675638
3284.0,0.0038387066319929275
3283.0,0.0038387066319929275
3282.0,0.0038387066319929275
3281.0,0.0037510854308679953
3280.0,0.003619686766589858
3279.0,0.0035321097382827737
3278.0,0.0035321097382827737
3277.0,0.003619686766589858
3276.0,0.0037510854308679953
3275.0,0.0038387066319929275
3274.0,0.003970171588923321
3273.0,0.00401400208620073
3272.0,0.00401400208620073
3271.0,0.003926345514724705
3270.0,0.0037510854308679953
3269.0,0.0035321097382827737
3268.0,0.0034007772998332353
3267.0,0.0033570086445275926
3266.0,0.0034445503666347133
3265.0,0.0035321097382827737
3264.0,0.0035321097382827737
3263.0,0.0034445503666347133
3262.0,0.0032694845648473247
3261.0,0.0031382315093266833
3260.0,0.003050751504618754
3259.0,0.0030944893043338695
3258.0,0.0031382315093266833
3257.0,0.0032257291386954545
3256.0,0.0033132443998284966
3255.0,0.0033570086445275926
3254.0,0.0034445503666347133
3253.0,0.0035321097382827737
3252.0,0.003619686766589858
3251.0,0.003619686766589858
3250.0,0.003619686766589858
3249.0,0.0035758960449088217
3248.0,0.0035321097382827737
3247.0,0.0035758960449088217
3246.0,0.0035758960449088217
3245.0,0.0035321097382827737
3244.0,0.0034445503666347133
3243.0,0.0033132443998284966
3242.0,0.0032257291386954545
3241.0,0.0031819781204844855
3240.0,0.0032257291386954545
3239.0,0.0033132443998284966
3238.0,0.0034445503666347133
3237.0,0.0035758960449088217
3236.0,0.0036634819042162814
3235.0,0.003707281458678491
3234.0,0.0036634819042162814
3233.0,0.0035321097382827737
3232.0,0.0034445503666347133
3231.0,0.0033570086445275926
3230.0,0.0033570086445275926
3229.0,0.0034007772998332353
3228.0,0.0034445503666347133
3227.0,0.0034007772998332353
3226.0,0.0033132443998284966
3225.0,0.0031382315093266833
3224.0,0.003050751504618754
3223.0,0.0030070181092942683
3222.0,0.0030944893043338695
3221.0,0.0031819781204844855
3220.0,0.0033570086445275926
3219.0,0.0035321097382827737
3218.0,0.003619686766589858
3217.0,0.0035758960449088217
3216.0,0.0034007772998332353
3215.0,0.0031819781204844855
3214.0,0.0030944893043338695
3213.0,0.003050751504618754
3212.0,0.0031382315093266833
3211.0,0.0031819781204844855
3210.0,0.0031819781204844855
3209.0,0.0031382315093266833
3208.0,0.003050751504618754
3207.0,0.0029632891174733444
3206.0,0.0028321285541661467
3205.0,0.002701007590486082
3204.0,0.002701007590486082
3203.0,0.002701007590486082
3202.0,0.0027884171674950053
3201.0,0.0028321285541661467
3200.0,0.0028321285541661467
3199.0,0.0027884171674950053
3198.0,0.0027884171674950053
3197.0,0.0028321285541661467
3196.0,0.0030070181092942683
3195.0,0.0031382315093266833
3194.0,0.0031819781204844855
3193.0,0.0030944893043338695
3192.0,0.0029195645282691363
3191.0,0.0027884171674950053
3190.0,0.0027884171674950053
3189.0,0.0028758443407954637
3188.0,0.0029632891174733444
3187.0,0.0029632891174733444
3186.0,0.0029195645282691363
3185.0,0.0027884171674950053
3184.0,0.002701007590486082
3183.0,0.002613615602686581
3182.0,0.002569926202528716
3181.0,0.002613615602686581
3180.0,0.0027447101798967477
3179.0,0.0028321285541661467
3178.0,0.0029632891174733444
3177.0,0.0030070181092942683
3176.0,0.0029632891174733444
3175.0,0.0028758443407954637
3174.0,0.0027884171674950053
3173.0,0.002701007590486082
3172.0,0.0026573093983774942
3171.0,0.002613615602686581
3170.0,0.002613615602686581
3169.0,0.002701007590486082
3168.0,0.0028321285541661467
3167.0,0.0029195645282691363
3166.0,0.0030070181092942683
3165.0,0.003050751504618754
3164.0,0.003050751504618754
3163.0,0.0028758443407954637
3162.0,0.002613615602686581
3161.0,0.0024388843664115978
3160.0,0.002351545103793873
3159.0,0.0024388843664115978
3158.0,0.0025262411970197185
3157.0,0.0025262411970197185
3156.0,0.002395212539545666
3155.0,0.0022205691343961664
3154.0,0.002089632653256679
3153.0,0.002089632653256679
3152.0,0.0021332737608552588
3151.0,0.0021769192542746563
3150.0,0.0022205691343961664
3149.0,0.0022642234021015284
3148.0,0.0022642234021015284
3147.0,0.0022642234021015284
3146.0,0.0022642234021015284
3145.0,0.0023078820582733695
3144.0,0.002351545103793873
3143.0,0.002351545103793873
3142.0,0.0023078820582733695
3141.0,0.0022642234021015284
3140.0,0.0021769192542746563
3139.0,0.0020459959305969555
3138.0,0.0019587356365717845
3137.0,0.0019587356365717845
3136.0,0.0020023635919956817
3135.0,0.0020459959305969555
3134.0,0.0020459959305969555
3133.0,0.0020023635919956817
3132.0,0.0020023635919956817
3131.0,0.0020023635919956817
3130.0,0.0019587356365717845
3129.0,0.0019587356365717845
3128.0,0.0019587356365717845
3127.0,0.0020023635919956817
3126.0,0.002089632653256679
3125.0,0.0021332737608552588
3124.0,0.0021332737608552588
3123.0,0.0020459959305969555
3122.0,0.0019587356365717845
3121.0,0.001915112063444413
3120.0,0.001915112063444413
3119.0,0.0020023635919956817
3118.0,0.0020459959305969555
3117.0,0.0020459959305969555
3116.0,0.0020023635919956817
3115.0,0.0019587356365717845
3114.0,0.0019587356365717845
3113.0,0.001915112063444413
3112.0,0.0018714928717336043
3111.0,0.0018278780605593958
3110.0,0.0017842676290416026
3109.0,0.0017842676290416026
3108.0,0.0018278780605593958
3107.0,0.0018714928717336043
3106.0,0.0018714928717336043
3105.0,0.0018278780605593958
3104.0,0.0017406615763013722
3103.0,0.0017406615763013722
3102.0,0.0017842676290416026
3101.0,0.0018714928717336043
3100.0,0.0020459959305969555
3099.0,0.0021769192542746563
3098.0,0.0022205691343961664
3097.0,0.0022642234021015284
3096.0,0.0022642234021015284
3095.0,0.0022205691343961664
3094.0,0.0021769192542746563
3093.0,0.002089632653256679
3092.0,0.0019587356365717845
3091.0,0.001915112063444413
3090.0,0.001915112063444413
3089.0,0.001915112063444413
3088.0,0.0019587356365717845
3087.0,0.0020459959305969555
3086.0,0.002089632653256679
3085.0,0.0021332737608552588
3084.0,0.0020459959305969555
3083.0,0.0019587356365717845
3082.0,0.0018278780605593958
3081.0,0.0017842676290416026
3080.0,0.0017842676290416026
3079.0,0.0017842676290416026
3078.0,0.0018278780605593958
3077.0,0.0018278780605593958
3076.0,0.0017842676290416026
3075.0,0.0017842676290416026
3074.0,0.0017842676290416026
3073.0,0.0017842676290416026
3072.0,0.0017842676290416026
3071.0,0.0017842676290416026
3070.0,0.0017842676290416026
3069.0,0.0018278780605593958
3068.0,0.0018714928717336043
3067.0,0.0020023635919956817
3066.0,0.002089632653256679
3065.0,0.002089632653256679
3064.0,0.002089632653256679
3063.0,0.0020023635919956817
3062.0,0.0018714928717336043
3061.0,0.0017842676290416026
3060.0,0.0017406615763013722
3059.0,0.0017406615763013722
3058.0,0.0017842676290416026
3057.0,0.0018278780605593958
3056.0,0.0018278780605593958
3055.0,0.0018714928717336043
3054.0,0.0018714928717336043
3053.0,0.0018714928717336043
3052.0,0.0018278780605593958
3051.0,0.0017842676290416026
3050.0,0.0018278780605593958
3049.0,0.001915112063444413
3048.0,0.0020023635919956817
3047.0,0.0020459959305969555
3046.0,0.0020459959305969555
3045.0,0.0019587356365717845
3044.0,0.0018714928717336043
3043.0,0.0017842676290416026
3042.0,0.0018278780605593958
3041.0,0.0018714928717336043
3040.0,0.001915112063444413
3039.0,0.0019587356365717845
3038.0,0.0020023635919956817
3037.0,0.002089632653256679
3036.0,0.0021769192542746563
3035.0,0.0022205691343961664
3034.0,0.0022205691343961664
3033.0,0.0022205691343961664
3032.0,0.0022205691343961664
3031.0,0.0022205691343961664
3030.0,0.0022205691343961664
3029.0,0.0022642234021015284
3028.0,0.002395212539545666
3027.0,0.0025262411970197185
3026.0,0.002701007590486082
3025.0,0.0028758443407954637
3024.0,0.0029632891174733444
3023.0,0.0030070181092942683
3022.0,0.0030070181092942683
3021.0,0.0030070181092942683
3020.0,0.003050751504618754
3019.0,0.003050751504618754
3018.0,0.003050751504618754
3017.0,0.003050751504618754
3016.0,0.0031382315093266833
3015.0,0.0032257291386954545
3014.0,0.0033132443998284966
3013.0,0.003488327845821315
3012.0,0.003619686766589858
3011.0,0.0037510854308679953
3010.0,0.0038825238627120395
3009.0,0.00401400208620073
3008.0,0.004145520125434121
3007.0,0.004233220950025984
3006.0,0.004408675747646695
3005.0,0.004540313378935901
3004.0,0.004715892310740433
3003.0,0.00484762310854614
3002.0,0.005023326350308999
3001.0,0.005199100705396198
3000.0,0.00537494623139545
2999.0,0.005462895701502157
2998.0,0.005550862985963967
2997.0,0.005594853310833647
2996.0,0.005594853310833647
2995.0,0.005638848091999105
2994.0,0.00577085918230158
2993.0,0.005946936412324799
2992.0,0.00621118618129457
2991.0,0.006519680930003435
2990.0,0.006828394969235152
2989.0,0.00696076819309055
2988.0,0.007049039429553483
2987.0,0.007049039429553483
2986.0,0.007049039429553483
2985.0,0.007137328610972382
2984.0,0.007225635744644521
2983.0,0.007402303897961815
2982.0,0.00762324020119709
2981.0,0.007888512213050314
2980.0,0.008153946355103248
2979.0,0.008419542825660153
2978.0,0.0087296108049002
2977.0,0.00908424549391551
2976.0,0.009483555971770974
2975.0,0.009927665307847056
2974.0,0.01046119667949763
2973.0,0.011039929609661936
2972.0,0.011664044143949504
2971.0,0.012378417874516323
2970.0,0.013049212141483357
2969.0,0.013631406429727155
2968.0,0.014214382227394795
2967.0,0.014798141635428141
2966.0,0.015517693597737248
2965.0,0.01628352608625061
2964.0,0.017095882207371904
2963.0,0.017864505196230507
2962.0,0.018543833477873584
2961.0,0.019133445417920836
2960.0,0.019723858922159776
2959.0,0.02022406727031445
2958.0,0.02067930261797568
2957.0,0.021089422824428272
2956.0,0.02140867317992523
2955.0,0.021636852916117055
2954.0,0.021865152601710403
2953.0,0.022093572362881675
2952.0,0.022367834754000393
2951.0,0.022642270454698687
2950.0,0.02300845469384938
2949.0,0.02365002099672653
2948.0,0.024568191490736968
2947.0,0.025764722556973707
2946.0,0.027288159452933503
2945.0,0.02904906565457588
2944.0,0.031096969696171817
2943.0,0.033482823553208085
2942.0,0.036117771071222604
2941.0,0.03905380426616856
2940.0,0.042201225070002124
2939.0,0.045612749855485024
2938.0,0.049294465226138895
2937.0,0.05330216275425803
2936.0,0.057743849580535134
2935.0,0.06253226035662252
2934.0,0.06772922410050963
2933.0,0.0732460948102629
2932.0,0.07919861817434581
2931.0,0.08555105930144569
2930.0,0.09248115389337075
2929.0,0.09985143928065598
2928.0,0.10779405402422748
2927.0,0.11645212073195621
2926.0,0.12598229613781387
2925.0,0.13655817138629134
2924.0,0.1482525808667361
2923.0,0.16102504504453208
2922.0,0.17483362774345035
2921.0,0.18936429972446267
2920.0,0.2040505010971967
2919.0,0.21788585252092885
2918.0,0.22944252514900487
2917.0,0.23717144681090963
2916.0,0.24003014244569276
2915.0,0.2376215706880358
2914.0,0.23084430928560118
2913.0,0.22105327203138314
2912.0,0.20985563495709947
2911.0,0.1985276864785288
2910.0,0.1878891587969005
2909.0,0.17815907279954568
2908.0,0.16960382351653092
2907.0,0.16203298163134527
2906.0,0.15539858037365328
2905.0,0.1495988520028415
2904.0,0.1446020033459312
2903.0,0.14038142122781938
2902.0,0.13655817138629134
2901.0,0.1331221856625011
2900.0,0.12983027886355947
2899.0,0.12667939818460128
2898.0,0.12360893818081231
2897.0,0.12061736282565727
2896.0,0.11770319906234805
2895.0,0.1148084593931522
2894.0,0.11193288659256306
2893.0,0.10896458468468917
2892.0,0.10596099919539115
2891.0,0.10281292341984649
2890.0,0.09957824654226233
2889.0,0.09642170633694569
2888.0,0.09328794305703592
2887.0,0.09017663034908807
2886.0,0.08714052483764512
2885.0,0.08407278830288423
2884.0,0.08107890990866418
2883.0,0.07810552907089763
2882.0,0.07525564752005143
2881.0,0.07247565912497134
2880.0,0.06976434723371505
2879.0,0.0671712330991534
2878.0,0.06479513257341862
2877.0,0.06258241852286206
2876.0,0.06068046892176193
2875.0,0.058936011780097886
2874.0,0.05744631966579017
2873.0,0.056159373598738904
2872.0,0.05502409158795207
2871.0,0.05394093961487645
2870.0,0.05305672930217464
2869.0,0.05232126006306337
2868.0,0.05197846685889629
2867.0,0.052027420754219955
2866.0,0.05266432405126009
2865.0,0.05379344615721715
2864.0,0.05551732784983132
2863.0,0.05794231615860479
2862.0,0.0611301784870133
2861.0,0.06529959828457499
2860.0,0.07052998382251041
2859.0,0.07701518429111709
2858.0,0.08481129482684358
2857.0,0.09415017335768128
2856.0,0.10535169620648288
2855.0,0.11861534322942724
2854.0,0.13436311230037123
2853.0,0.1524890347967518
2852.0,0.17230771132555445
2851.0,0.19178902707577805
2850.0,0.20788859091283163
2849.0,0.21731243176503368
2848.0,0.21788585252092885
2847.0,0.20999647960951062
2846.0,0.1960651501361581
2845.0,0.17933886535640453
2844.0,0.16234844215360744
2843.0,0.14648430324307138
2842.0,0.13241467345296387
2841.0,0.12015894401343741
2840.0,0.10969078310005154
2839.0,0.10083635852278117
2838.0,0.09334178232840018
2837.0,0.08692825969074924
2836.0,0.08155025759884227
2835.0,0.07691148455760066
2834.0,0.07288638806623937
2833.0,0.06940751155740177
2832.0,0.0663102910421054
2831.0,0.06353652599525317
2830.0,0.06103020277710969
2829.0,0.058786812414678646
2828.0,0.05690137699451481
2827.0,0.055172003656783764
2826.0,0.053596866100945384
2825.0,0.05207638016827354
2824.0,0.0506099933550872
2823.0,0.049245818406496555
2822.0,0.047982909952573705
2821.0,0.04682039893436585
2820.0,0.04570923829887308
2819.0,0.04469717723830824
2818.0,0.04368746915880539
2817.0,0.04272802000705722
2816.0,0.04181850243505214
2815.0,0.040958607678906356
2814.0,0.04014804520039483
2813.0,0.03938654235209116
2812.0,0.03862637240519895
2811.0,0.03800971255993524
2810.0,0.03744126420403626
2809.0,0.03692083935817303
2808.0,0.03644826642590382
2807.0,0.03597620715996652
2806.0,0.03545753392086315
2805.0,0.03489241415094413
2804.0,0.03432802877989327
2803.0,0.03376437590141812
2802.0,0.0332483359486222
2801.0,0.03282657704446046
2800.0,0.03235843591698884
2799.0,0.03193753992355086
2798.0,0.031563752288295444
2797.0,0.031190286087141805
2796.0,0.030863766403287585
2795.0,0.030490901403433135
2794.0,0.030071810571884017
2793.0,0.029653123769906697
2792.0,0.029234840219232394
2791.0,0.028770552723758724
2790.0,0.028353117935693284
2789.0,0.027936083991977778
2788.0,0.027658283674251827
2787.0,0.02738066094037661
2786.0,0.027149444152769986
2785.0,0.026872146400301444
2784.0,0.02654885597506529
2783.0,0.026225806029419818
2782.0,0.025902996205869
2781.0,0.02562649291857677
2780.0,0.02539620791296726
2779.0,0.02521206778644225
2778.0,0.02498200236711723
2777.0,0.02475205875931885
2776.0,0.024476287039668643
2775.0,0.024246610963712723
2774.0,0.024017056287453542
2773.0,0.023787622882622816
2772.0,0.02351246269481
2771.0,0.023237476732539397
2770.0,0.02300845469384938
2769.0,0.022871099419317753
2768.0,0.022733787572707387
2767.0,0.02259651912656535
2766.0,0.02245929405346514
2765.0,0.02227639471115217
2764.0,0.022093572362881675
2763.0,0.021956506090037076
2762.0,0.021773818325474092
2761.0,0.021545566634771474
2760.0,0.021363051615525652
2759.0,0.021135015652343103
2758.0,0.0209982515252789
2757.0,0.020861530453190058
2756.0,0.020770406977844713
2755.0,0.020770406977844713
2754.0,0.020724852408976924
2753.0,0.02067930261797568
2752.0,0.020542681902151694
2751.0,0.02036058777709271
2750.0,0.020178569969774962
2749.0,0.020087589665283012
2748.0,0.02004210665933459
2747.0,0.02004210665933459
2746.0,0.019996628416253603
2745.0,0.01995115493504329
2744.0,0.01990568621470623
2743.0,0.019814763052665052
2742.0,0.019723858922159776
2741.0,0.019632973815224997
2740.0,0.019632973815224997
2739.0,0.019632973815224997
2738.0,0.019632973815224997
2737.0,0.01949668180660491
2736.0,0.019360432556262852
2735.0,0.019178833355664393
2734.0,0.0190880622231564
2733.0,0.01899731005860028
2732.0,0.018951941086827073
2731.0,0.018815862601645694
2730.0,0.018679826740892747
2729.0,0.01858915983411169
2728.0,0.018543833477873584
2727.0,0.018498511851753108
2726.0,0.018498511851753108
2725.0,0.01840788278591865
2724.0,0.01831727262871463
2723.0,0.018181392829336396
2722.0,0.018045555530026514
2721.0,0.017909760704207134
2720.0,0.01781925440359733
2719.0,0.01781925440359733
2718.0,0.017774008325325275
2717.0,0.01768353030793479
2716.0,0.017547848615010242
2715.0,0.017412209298337533
2714.0,0.017367005605150476
2713.0,0.017321806616515723
2712.0,0.017321806616515723
2711.0,0.017231422748988034
2710.0,0.017186237868137555
2709.0,0.017141057687924732
2708.0,0.017005545341335804
2707.0,0.016915227262211507
2706.0,0.016824927962187042
2705.0,0.01677978535189717
2704.0,0.01677978535189717
2703.0,0.016734647433454652
2702.0,0.016599261819461697
2701.0,0.01646391839700767
2700.0,0.01628352608625061
2699.0,0.016148281008528276
2698.0,0.016103208673694303
2697.0,0.016148281008528276
2696.0,0.016193358021584725
2695.0,0.016238439713835096
2694.0,0.016238439713835096
2693.0,0.016193358021584725
2692.0,0.016193358021584725
2691.0,0.016193358021584725
2690.0,0.016193358021584725
2689.0,0.016193358021584725
2688.0,0.016193358021584725
2687.0,0.016148281008528276
2686.0,0.016193358021584725
2685.0,0.016238439713835096
2684.0,0.01628352608625061
2683.0,0.01628352608625061
2682.0,0.01628352608625061
2681.0,0.016193358021584725
2680.0,0.016148281008528276
2679.0,0.016103208673694303
2678.0,0.016058141016111804
2677.0,0.016058141016111804
2676.0,0.016058141016111804
2675.0,0.016013078034810446
2674.0,0.016013078034810446
2673.0,0.016013078034810446
2672.0,0.016013078034810446
2671.0,0.016013078034810446
2670.0,0.015922966097169144
2669.0,0.015877917138889863
2668.0,0.015832872853011715
2667.0,0.01578783323856614
2666.0,0.01578783323856614
2665.0,0.01578783323856614
2664.0,0.015832872853011715
2663.0,0.015877917138889863
2662.0,0.015922966097169144
2661.0,0.015922966097169144
2660.0,0.015922966097169144
2659.0,0.015877917138889863
2658.0,0.015877917138889863
2657.0,0.015832872853011715
2656.0,0.015742798294583915
2655.0,0.015652742414136167
2654.0,0.015517693597737248
2653.0,0.01547268665620738
2652.0,0.01547268665620738
2651.0,0.015562705203923999
2650.0,0.015697768020096703
2649.0,0.015697768020096703
2648.0,0.015652742414136167
2647.0,0.015562705203923999
2646.0,0.015517693597737248
2645.0,0.015427684378367834
2644.0,0.01538268676325183
2643.0,0.01538268676325183
2642.0,0.01538268676325183
2641.0,0.01538268676325183
2640.0,0.015337693809893471
2639.0,0.015292705517326866
2638.0,0.015292705517326866
2637.0,0.015292705517326866
2636.0,0.01538268676325183
2635.0,0.01547268665620738
2634.0,0.015517693597737248
2633.0,0.015517693597737248
2632.0,0.01547268665620738
2631.0,0.015337693809893471
2630.0,0.015247721884586563
2629.0,0.015157768594724175
2628.0,0.015157768594724175
2627.0,0.015157768594724175
2626.0,0.015067833932588037
2625.0,0.014932966849499074
2624.0,0.014753209197138295
2623.0,0.014618439768003144
2622.0,0.01452861671041239
2621.0,0.01452861671041239
2620.0,0.014573525916998342
2619.0,0.014663358264387139
2618.0,0.014708281407112
2617.0,0.014663358264387139
2616.0,0.01452861671041239
2615.0,0.014393916947563534
2614.0,0.014259258949925524
2613.0,0.014214382227394795
2612.0,0.014214382227394795
2611.0,0.014214382227394795
2610.0,0.014214382227394795
2609.0,0.014169510141607944
2608.0,0.014079779876432497
2607.0,0.013990068146738865
2606.0,0.01385553528947936
2605.0,0.013765869865004277
2604.0,0.013676222949234651
2603.0,0.013586594534531482
2602.0,0.013541787262693505
2601.0,0.013541787262693505
2600.0,0.013496984613259544
2599.0,0.013496984613259544
2598.0,0.013496984613259544
2597.0,0.013541787262693505
2596.0,0.013541787262693505
2595.0,0.013496984613259544
2594.0,0.013407393177789162
2593.0,0.013273040668781544
2592.0,0.013138729709955221
2591.0,0.013093968619278806
2590.0,0.013049212141483357
2589.0,0.013049212141483357
2588.0,0.013049212141483357
2587.0,0.013049212141483357
2586.0,0.013004460275618523
2585.0,0.012914970375878188
2584.0,0.012825498912458322
2583.0,0.012736045877764557
2582.0,0.012736045877764557
2581.0,0.012780770091995297
2580.0,0.012780770091995297
2579.0,0.012736045877764557
2578.0,0.01264661126420652
2577.0,0.01260190086298274
2576.0,0.01264661126420652
2575.0,0.012691326268817527
2574.0,0.01264661126420652
2573.0,0.012557195064198723
2572.0,0.012378417874516323
2571.0,0.012244383261476699
2570.0,0.012199714248127602
2569.0,0.01215504982870197
2568.0,0.01215504982870197
2567.0,0.012065734767841452
2566.0,0.012021084124518078
2565.0,0.012021084124518078
2564.0,0.012021084124518078
2563.0,0.012065734767841452
2562.0,0.012065734767841452
2561.0,0.012065734767841452
2560.0,0.012021084124518078
2559.0,0.012021084124518078
2558.0,0.012065734767841452
2557.0,0.01215504982870197
2556.0,0.01215504982870197
2555.0,0.012021084124518078
2554.0,0.011887159731648111
2553.0,0.011797899741219142
2552.0,0.011797899741219142
2551.0,0.011797899741219142
2550.0,0.011797899741219142
2549.0,0.011753276624621556
2548.0,0.011708658092512314
2547.0,0.011664044143949504
2546.0,0.011619434777991433
2545.0,0.011574829993696856
2544.0,0.011574829993696856
2543.0,0.011574829993696856
2542.0,0.011619434777991433
2541.0,0.011574829993696856
2540.0,0.011574829993696856
2539.0,0.011530229790124524
2538.0,0.011485634166333858
2537.0,0.011530229790124524
2536.0,0.011530229790124524
2535.0,0.011530229790124524
2534.0,0.011485634166333858
2533.0,0.011396456654336085
2532.0,0.011351874764248926
2531.0,0.011351874764248926
2530.0,0.011396456654336085
2529.0,0.011441043121384498
2528.0,0.011530229790124524
2527.0,0.011574829993696856
2526.0,0.011574829993696856
2525.0,0.011485634166333858
2524.0,0.011396456654336085
2523.0,0.011351874764248926
2522.0,0.011262724711199823
2521.0,0.011218156546359825
2520.0,0.01117359295472431
2519.0,0.01117359295472431
2518.0,0.01117359295472431
2517.0,0.01117359295472431
2516.0,0.011129033935354915
2515.0,0.011039929609661936
2514.0,0.010950843561779777
2513.0,0.010906307389674463
2512.0,0.010950843561779777
2511.0,0.011039929609661936
2510.0,0.011129033935354915
2509.0,0.011129033935354915
2508.0,0.011084479487313281
2507.0,0.011039929609661936
2506.0,0.010995384301463185
2505.0,0.010950843561779777
2504.0,0.01086177578421088
2503.0,0.010817248744452446
2502.0,0.01077272626946324
2501.0,0.010817248744452446
2500.0,0.01086177578421088
2499.0,0.01086177578421088
2498.0,0.01077272626946324
2497.0,0.010683695010048622
2496.0,0.010639186223752484
2495.0,0.010683695010048622
2494.0,0.010728208358306901
2493.0,0.010817248744452446
2492.0,0.010817248744452446
2491.0,0.01077272626946324
2490.0,0.010728208358306901
2489.0,0.010683695010048622
2488.0,0.010728208358306901
2487.0,0.01077272626946324
2486.0,0.01077272626946324
2485.0,0.01077272626946324
2484.0,0.010728208358306901
2483.0,0.010683695010048622
2482.0,0.010728208358306901
2481.0,0.01077272626946324
2480.0,0.010817248744452446
2479.0,0.010817248744452446
2478.0,0.01077272626946324
2477.0,0.010683695010048622
2476.0,0.010550182333308289
2475.0,0.01046119667949763
2474.0,0.01046119667949763
2473.0,0.010550182333308289
2472.0,0.010639186223752484
2471.0,0.010683695010048622
2470.0,0.010594681998483901
2469.0,0.010505687227290839
2468.0,0.01046119667949763
2467.0,0.01046119667949763
2466.0,0.010505687227290839
2465.0,0.010594681998483901
2464.0,0.010639186223752484
2463.0,0.010550182333308289
2462.0,0.010505687227290839
2461.0,0.010416710688994968
2460.0,0.010416710688994968
2459.0,0.010416710688994968
2458.0,0.01037222925484893
2457.0,0.010327752376126709
2456.0,0.010283280051895272
2455.0,0.010194349063173958
2454.0,0.010149890396819572
2453.0,0.010105436281226954
2452.0,0.010060986715464404
2451.0,0.01001654169860089
2450.0,0.009972101229705377
2449.0,0.009927665307847056
2448.0,0.009972101229705377
2447.0,0.01001654169860089
2446.0,0.01001654169860089
2445.0,0.010060986715464404
2444.0,0.010060986715464404
2443.0,0.01001654169860089
2442.0,0.009972101229705377
2441.0,0.009927665307847056
2440.0,0.009972101229705377
2439.0,0.010060986715464404
2438.0,0.010149890396819572
2437.0,0.010149890396819572
2436.0,0.010105436281226954
2435.0,0.010060986715464404
2434.0,0.010060986715464404
2433.0,0.010060986715464404
2432.0,0.010105436281226954
2431.0,0.010194349063173958
2430.0,0.01023881228122181
2429.0,0.01023881228122181
2428.0,0.01023881228122181
2427.0,0.010283280051895272
2426.0,0.010327752376126709
2425.0,0.010416710688994968
2424.0,0.010416710688994968
2423.0,0.01037222925484893
2422.0,0.010327752376126709
2421.0,0.01023881228122181
2420.0,0.01023881228122181
2419.0,0.010283280051895272
2418.0,0.010283280051895272
2417.0,0.010283280051895272
2416.0,0.010194349063173958
2415.0,0.010105436281226954
2414.0,0.010060986715464404
2413.0,0.010060986715464404
2412.0,0.010105436281226954
2411.0,0.010149890396819572
2410.0,0.010149890396819572
2409.0,0.010149890396819572
2408.0,0.010149890396819572
2407.0,0.010060986715464404
2406.0,0.01001654169860089
2405.0,0.009972101229705377
2404.0,0.009972101229705377
2403.0,0.010060986715464404
2402.0,0.010149890396819572
2401.0,0.010194349063173958
2400.0,0.010194349063173958
2399.0,0.010105436281226954
2398.0,0.01001654169860089
2397.0,0.009972101229705377
2396.0,0.009972101229705377
2395.0,0.010060986715464404
2394.0,0.010105436281226954
2393.0,0.010149890396819572
2392.0,0.010105436281226954
2391.0,0.010060986715464404
2390.0,0.010060986715464404
2389.0,0.010105436281226954
2388.0,0.010149890396819572
2387.0,0.010283280051895272
2386.0,0.01037222925484893
2385.0,0.01046119667949763
2384.0,0.010505687227290839
2383.0,0.010550182333308289
2382.0,0.01046119667949763
2381.0,0.010327752376126709
2380.0,0.010105436281226954
2379.0,0.00974996707218323
2378.0,0.009439170005980158
2377.0,0.009217308196862062
2376.0,0.009217308196862062
2375.0,0.009483555971770974
2374.0,0.009883233932095559
2373.0,0.010194349063173958
2372.0,0.010283280051895272
2371.0,0.010327752376126709
2370.0,0.010416710688994968
2369.0,0.010594681998483901
2368.0,0.010550182333308289
2367.0,0.010105436281226954
2366.0,0.009527946474380489
2365.0,0.009217308196862062
2364.0,0.009350411681145587
2363.0,0.009794384815193347
2362.0,0.010283280051895272
2361.0,0.010550182333308289
2360.0,0.010505687227290839
2359.0,0.010194349063173958
2358.0,0.009838807101520963
2357.0,0.009439170005980158
2356.0,0.009172949432521227
2355.0,0.009128595198514056
2354.0,0.009350411681145587
2353.0,0.009616741093766423
2352.0,0.009883233932095559
2351.0,0.010149890396819572
2350.0,0.01037222925484893
2349.0,0.01046119667949763
2348.0,0.010327752376126709
2347.0,0.010149890396819572
2346.0,0.010194349063173958
2345.0,0.01046119667949763
2344.0,0.01077272626946324
2343.0,0.011129033935354915
2342.0,0.011262724711199823
2341.0,0.010950843561779777
2340.0,0.010283280051895272
2339.0,0.009705553871561357
2338.0,0.009527946474380489
2337.0,0.00966114521239847
2336.0,0.009794384815193347
2335.0,0.009883233932095559
2334.0,0.009883233932095559
2333.0,0.009972101229705377
2332.0,0.010194349063173958
2331.0,0.010550182333308289
2330.0,0.010817248744452446
2329.0,0.010950843561779777
2328.0,0.010950843561779777
2327.0,0.010906307389674463
2326.0,0.01077272626946324
2325.0,0.010594681998483901
2324.0,0.010327752376126709
2323.0,0.010105436281226954
2322.0,0.01001654169860089
2321.0,0.010105436281226954
2320.0,0.010327752376126709
2319.0,0.010683695010048622
2318.0,0.011084479487313281
2317.0,0.011351874764248926
2316.0,0.011396456654336085
2315.0,0.011307297450183107
2314.0,0.011084479487313281
2313.0,0.010906307389674463
2312.0,0.010817248744452446
2311.0,0.01077272626946324
2310.0,0.010817248744452446
2309.0,0.01086177578421088
2308.0,0.010906307389674463
2307.0,0.01086177578421088
2306.0,0.01077272626946324
2305.0,0.010683695010048622
2304.0,0.010728208358306901
2303.0,0.010817248744452446
2302.0,0.010995384301463185
2301.0,0.011084479487313281
2300.0,0.011129033935354915
2299.0,0.011084479487313281
2298.0,0.011084479487313281
2297.0,0.011039929609661936
2296.0,0.010950843561779777
2295.0,0.01086177578421088
2294.0,0.010728208358306901
2293.0,0.010594681998483901
2292.0,0.01046119667949763
2291.0,0.010327752376126709
2290.0,0.010283280051895272
2289.0,0.01023881228122181
2288.0,0.01023881228122181
2287.0,0.010194349063173958
2286.0,0.010105436281226954
2285.0,0.01001654169860089
2284.0,0.009972101229705377
2283.0,0.009972101229705377
2282.0,0.009972101229705377
2281.0,0.009972101229705377
2280.0,0.009972101229705377
2279.0,0.01001654169860089
2278.0,0.01001654169860089
2277.0,0.01001654169860089
2276.0,0.01001654169860089
2275.0,0.01001654169860089
2274.0,0.01001654169860089
2273.0,0.009972101229705377
2272.0,0.009972101229705377
2271.0,0.009927665307847056
2270.0,0.009927665307847056
2269.0,0.009883233932095559
2268.0,0.009705553871561357
2267.0,0.009527946474380489
2266.0,0.009439170005980158
2265.0,0.009439170005980158
2264.0,0.009483555971770974
2263.0,0.009527946474380489
2262.0,0.009572341514736404
2261.0,0.009572341514736404
2260.0,0.009572341514736404
2259.0,0.009572341514736404
2258.0,0.009616741093766423
2257.0,0.00966114521239847
2256.0,0.009705553871561357
2255.0,0.009705553871561357
2254.0,0.009616741093766423
2253.0,0.009483555971770974
2252.0,0.009439170005980158
2251.0,0.00939478857608056
2250.0,0.009483555971770974
2249.0,0.009527946474380489
2248.0,0.009572341514736404
2247.0,0.009572341514736404
2246.0,0.009527946474380489
2245.0,0.009439170005980158
2244.0,0.00939478857608056
2243.0,0.009439170005980158
2242.0,0.009483555971770974
2241.0,0.009483555971770974
2240.0,0.009483555971770974
2239.0,0.009439170005980158
2238.0,0.009483555971770974
2237.0,0.009483555971770974
2236.0,0.009483555971770974
2235.0,0.009439170005980158
2234.0,0.009439170005980158
2233.0,0.00939478857608056
2232.0,0.00939478857608056
2231.0,0.009350411681145587
2230.0,0.009350411681145587
2229.0,0.00939478857608056
2228.0,0.009439170005980158
2227.0,0.009439170005980158
2226.0,0.009350411681145587
2225.0,0.009306039320248427
2224.0,0.009261671492462709
2223.0,0.009261671492462709
2222.0,0.009261671492462709
2221.0,0.009261671492462709
2220.0,0.009261671492462709
2219.0,0.009261671492462709
2218.0,0.009261671492462709
2217.0,0.009306039320248427
2216.0,0.009261671492462709
2215.0,0.009172949432521227
2214.0,0.00908424549391551
2213.0,0.008995559669244813
2212.0,0.008995559669244813
2211.0,0.008995559669244813
2210.0,0.009039900317800775
2209.0,0.009128595198514056
2208.0,0.009172949432521227
2207.0,0.009217308196862062
2206.0,0.009217308196862062
2205.0,0.009261671492462709
2204.0,0.009261671492462709
2203.0,0.009217308196862062
2202.0,0.009217308196862062
2201.0,0.009128595198514056
2200.0,0.00908424549391551
2199.0,0.009039900317800775
2198.0,0.009039900317800775
2197.0,0.00908424549391551
2196.0,0.009128595198514056
2195.0,0.009217308196862062
2194.0,0.009217308196862062
2193.0,0.009217308196862062
2192.0,0.009172949432521227
2191.0,0.009172949432521227
2190.0,0.009217308196862062
2189.0,0.009306039320248427
2188.0,0.009350411681145587
2187.0,0.009350411681145587
2186.0,0.009306039320248427
2185.0,0.009306039320248427
2184.0,0.009306039320248427
2183.0,0.009350411681145587
2182.0,0.009350411681145587
2181.0,0.009306039320248427
2180.0,0.009261671492462709
2179.0,0.009217308196862062
2178.0,0.009217308196862062
2177.0,0.009172949432521227
2176.0,0.00908424549391551
2175.0,0.00908424549391551
2174.0,0.009039900317800775
2173.0,0.009039900317800775
2172.0,0.009039900317800775
2171.0,0.008995559669244813
2170.0,0.008995559669244813
2169.0,0.008995559669244813
2168.0,0.008995559669244813
2167.0,0.008951223547323472
2166.0,0.008951223547323472
2165.0,0.008951223547323472
2164.0,0.009039900317800775
2163.0,0.009128595198514056
2162.0,0.009172949432521227
2161.0,0.009172949432521227
2160.0,0.009128595198514056
2159.0,0.00908424549391551
2158.0,0.00908424549391551
2157.0,0.009128595198514056
2156.0,0.009172949432521227
2155.0,0.009217308196862062
2154.0,0.009261671492462709
2153.0,0.009217308196862062
2152.0,0.009172949432521227
2151.0,0.009172949432521227
2150.0,0.009172949432521227
2149.0,0.009217308196862062
2148.0,0.009217308196862062
2147.0,0.009128595198514056
2146.0,0.009039900317800775
2145.0,0.008995559669244813
2144.0,0.008951223547323472
2143.0,0.008906891951112605
2142.0,0.008906891951112605
2141.0,0.008951223547323472
2140.0,0.009039900317800775
2139.0,0.00908424549391551
2138.0,0.00908424549391551
2137.0,0.00908424549391551
2136.0,0.009039900317800775
2135.0,0.009039900317800775
2134.0,0.009039900317800775
2133.0,0.00908424549391551
2132.0,0.009128595198514056
2131.0,0.009128595198514056
2130.0,0.009128595198514056
2129.0,0.00908424549391551
2128.0,0.009039900317800775
2127.0,0.008951223547323472
2126.0,0.008862564879688284
2125.0,0.008906891951112605
2124.0,0.008995559669244813
2123.0,0.009039900317800775
2122.0,0.009039900317800775
2121.0,0.009039900317800775
2120.0,0.009039900317800775
2119.0,0.00908424549391551
2118.0,0.00908424549391551
2117.0,0.009039900317800775
2116.0,0.008995559669244813
2115.0,0.008951223547323472
2114.0,0.008951223547323472
2113.0,0.008995559669244813
2112.0,0.009039900317800775
2111.0,0.008995559669244813
2110.0,0.008995559669244813
2109.0,0.008995559669244813
2108.0,0.008995559669244813
2107.0,0.008951223547323472
2106.0,0.008951223547323472
2105.0,0.008906891951112605
2104.0,0.008906891951112605
2103.0,0.008906891951112605
2102.0,0.008862564879688284
2101.0,0.008818242332126802
2100.0,0.008773924307505121
2099.0,0.0087296108049002
2098.0,0.0087296108049002
2097.0,0.008773924307505121
2096.0,0.008862564879688284
2095.0,0.008906891951112605
2094.0,0.008862564879688284
2093.0,0.008818242332126802
2092.0,0.0087296108049002
2091.0,0.008640997362049818
2090.0,0.008685301823389224
2089.0,0.0087296108049002
2088.0,0.0087296108049002
2087.0,0.008773924307505121
2086.0,0.0087296108049002
2085.0,0.0087296108049002
2084.0,0.0087296108049002
2083.0,0.008773924307505121
2082.0,0.008773924307505121
2081.0,0.008862564879688284
2080.0,0.008862564879688284
2079.0,0.008906891951112605
2078.0,0.008906891951112605
2077.0,0.008951223547323472
2076.0,0.008995559669244813
2075.0,0.008951223547323472
2074.0,0.008862564879688284
2073.0,0.008818242332126802
2072.0,0.008818242332126802
2071.0,0.008818242332126802
2070.0,0.008818242332126802
2069.0,0.008773924307505121
2068.0,0.0087296108049002
2067.0,0.008640997362049818
2066.0,0.008640997362049818
2065.0,0.008685301823389224
2064.0,0.008773924307505121
2063.0,0.008862564879688284
2062.0,0.008951223547323472
2061.0,0.009039900317800775
2060.0,0.009128595198514056
2059.0,0.009172949432521227
2058.0,0.009172949432521227
2057.0,0.009172949432521227
2056.0,0.009128595198514056
2055.0,0.009128595198514056
2054.0,0.00908424549391551
2053.0,0.00908424549391551
2052.0,0.009039900317800775
2051.0,0.008995559669244813
2050.0,0.008951223547323472
2049.0,0.008995559669244813
2048.0,0.009039900317800775
2047.0,0.00908424549391551
2046.0,0.009039900317800775
2045.0,0.009039900317800775
2044.0,0.008995559669244813
2043.0,0.008951223547323472
2042.0,0.008951223547323472
2041.0,0.008906891951112605
2040.0,0.008862564879688284
2039.0,0.008906891951112605
2038.0,0.008995559669244813
2037.0,0.00908424549391551
2036.0,0.009128595198514056
2035.0,0.009128595198514056
2034.0,0.00908424549391551
2033.0,0.008995559669244813
2032.0,0.008951223547323472
2031.0,0.008906891951112605
2030.0,0.008995559669244813
2029.0,0.00908424549391551
2028.0,0.009172949432521227
2027.0,0.009261671492462709
2026.0,0.009306039320248427
2025.0,0.009261671492462709
2024.0,0.009217308196862062
2023.0,0.009172949432521227
2022.0,0.009217308196862062
2021.0,0.009306039320248427
2020.0,0.009350411681145587
2019.0,0.009350411681145587
2018.0,0.009261671492462709
2017.0,0.009172949432521227
2016.0,0.009128595198514056
2015.0,0.00908424549391551
2014.0,0.009039900317800775
2013.0,0.00908424549391551
2012.0,0.00908424549391551
2011.0,0.009039900317800775
2010.0,0.008951223547323472
2009.0,0.008906891951112605
2008.0,0.008818242332126802
2007.0,0.008773924307505121
2006.0,0.0087296108049002
2005.0,0.0087296108049002
2004.0,0.008685301823389224
2003.0,0.008685301823389224
2002.0,0.0087296108049002
2001.0,0.008773924307505121
2000.0,0.008818242332126802
1999.0,0.008818242332126802
1998.0,0.008773924307505121
1997.0,0.0087296108049002
1996.0,0.0087296108049002
1995.0,0.0087296108049002
1994.0,0.0087296108049002
1993.0,0.008685301823389224
1992.0,0.008685301823389224
1991.0,0.008685301823389224
1990.0,0.008685301823389224
1989.0,0.008773924307505121
1988.0,0.008818242332126802
1987.0,0.008773924307505121
1986.0,0.0087296108049002
1985.0,0.008685301823389224
1984.0,0.008640997362049818
1983.0,0.008596697419959609
1982.0,0.008596697419959609
1981.0,0.008640997362049818
1980.0,0.008685301823389224
1979.0,0.0087296108049002
1978.0,0.008818242332126802
1977.0,0.008862564879688284
1976.0,0.008862564879688284
1975.0,0.008862564879688284
1974.0,0.008818242332126802
1973.0,0.008773924307505121
1972.0,0.0087296108049002
1971.0,0.008685301823389224
1970.0,0.008685301823389224
1969.0,0.008685301823389224
1968.0,0.008685301823389224
1967.0,0.008685301823389224
1966.0,0.008685301823389224
1965.0,0.008640997362049818
1964.0,0.008640997362049818
1963.0,0.008685301823389224
1962.0,0.0087296108049002
1961.0,0.008773924307505121
1960.0,0.008818242332126802
1959.0,0.008818242332126802
1958.0,0.0087296108049002
1957.0,0.008640997362049818
1956.0,0.008552401996197112
1955.0,0.00850811108984062
1954.0,0.00850811108984062
1953.0,0.008552401996197112
1952.0,0.008552401996197112
1951.0,0.008596697419959609
1950.0,0.008640997362049818
1949.0,0.008596697419959609
1948.0,0.008552401996197112
1947.0,0.00850811108984062
1946.0,0.00850811108984062
1945.0,0.008552401996197112
1944.0,0.008640997362049818
1943.0,0.008685301823389224
1942.0,0.008640997362049818
1941.0,0.008552401996197112
1940.0,0.008552401996197112
1939.0,0.008596697419959609
1938.0,0.008685301823389224
1937.0,0.008685301823389224
1936.0,0.008640997362049818
1935.0,0.008596697419959609
1934.0,0.008552401996197112
1933.0,0.008596697419959609
1932.0,0.008640997362049818
1931.0,0.0087296108049002
1930.0,0.008773924307505121
1929.0,0.008773924307505121
1928.0,0.0087296108049002
1927.0,0.008685301823389224
1926.0,0.008596697419959609
1925.0,0.008552401996197112
1924.0,0.008552401996197112
1923.0,0.008552401996197112
1922.0,0.008552401996197112
1921.0,0.008552401996197112
1920.0,0.00850811108984062
1919.0,0.00850811108984062
1918.0,0.00850811108984062
1917.0,0.008552401996197112
1916.0,0.008552401996197112
1915.0,0.008552401996197112
1914.0,0.00850811108984062
1913.0,0.008419542825660153
1912.0,0.008375265465994541
1911.0,0.008330992620051436
1910.0,0.008330992620051436
1909.0,0.008375265465994541
1908.0,0.008419542825660153
1907.0,0.008463824699968647
1906.0,0.008552401996197112
1905.0,0.008640997362049818
1904.0,0.0087296108049002
1903.0,0.008773924307505121
1902.0,0.008818242332126802
1901.0,0.008862564879688284
1900.0,0.008906891951112605
1899.0,0.008951223547323472
1898.0,0.008906891951112605
1897.0,0.008862564879688284
1896.0,0.008773924307505121
1895.0,0.008685301823389224
1894.0,0.008640997362049818
1893.0,0.008596697419959609
1892.0,0.008552401996197112
1891.0,0.00850811108984062
1890.0,0.00850811108984062
1889.0,0.00850811108984062
1888.0,0.00850811108984062
1887.0,0.00850811108984062
1886.0,0.008419542825660153
1885.0,0.008375265465994541
1884.0,0.008286724286910463
1883.0,0.008286724286910463
1882.0,0.008330992620051436
1881.0,0.008419542825660153
1880.0,0.008419542825660153
1879.0,0.008375265465994541
1878.0,0.008286724286910463
1877.0,0.008242460465651913
1876.0,0.008286724286910463
1875.0,0.008286724286910463
1874.0,0.008330992620051436
1873.0,0.008375265465994541
1872.0,0.008375265465994541
1871.0,0.008330992620051436
1870.0,0.008198201155356077
1869.0,0.008109696063975047
1868.0,0.008109696063975047
1867.0,0.008153946355103248
1866.0,0.008242460465651913
1865.0,0.008286724286910463
1864.0,0.008375265465994541
1863.0,0.008375265465994541
1862.0,0.008330992620051436
1861.0,0.008330992620051436
1860.0,0.008286724286910463
1859.0,0.008242460465651913
1858.0,0.008242460465651913
1857.0,0.008153946355103248
1856.0,0.008109696063975047
1855.0,0.008065450281052211
1854.0,0.008065450281052211
1853.0,0.008065450281052211
1852.0,0.008021209005416363
1851.0,0.008021209005416363
1850.0,0.008021209005416363
1849.0,0.008065450281052211
1848.0,0.008065450281052211
1847.0,0.008065450281052211
1846.0,0.008065450281052211
1845.0,0.008065450281052211
1844.0,0.008065450281052211
1843.0,0.008065450281052211
1842.0,0.008109696063975047
1841.0,0.008109696063975047
1840.0,0.008109696063975047
1839.0,0.008109696063975047
1838.0,0.008153946355103248
1837.0,0.008198201155356077
1836.0,0.008242460465651913
1835.0,0.008242460465651913
1834.0,0.008198201155356077
1833.0,0.008109696063975047
1832.0,0.008021209005416363
1831.0,0.007932739972333236
1830.0,0.007888512213050314
1829.0,0.007844288957383316
1828.0,0.007844288957383316
1827.0,0.007844288957383316
1826.0,0.007800070204414977
1825.0,0.007844288957383316
1824.0,0.007932739972333236
1823.0,0.008021209005416363
1822.0,0.008021209005416363
1821.0,0.007932739972333236
1820.0,0.007844288957383316
1819.0,0.007888512213050314
1818.0,0.007976972236149349
1817.0,0.008153946355103248
1816.0,0.008198201155356077
1815.0,0.008109696063975047
1814.0,0.008021209005416363
1813.0,0.007976972236149349
1812.0,0.008021209005416363
1811.0,0.008065450281052211
1810.0,0.008065450281052211
1809.0,0.008065450281052211
1808.0,0.008065450281052211
1807.0,0.008021209005416363
1806.0,0.007976972236149349
1805.0,0.007976972236149349
1804.0,0.007976972236149349
1803.0,0.008021209005416363
1802.0,0.008109696063975047
1801.0,0.008198201155356077
1800.0,0.008153946355103248
1799.0,0.008065450281052211
1798.0,0.007976972236149349
1797.0,0.007932739972333236
1796.0,0.007888512213050314
1795.0,0.007888512213050314
1794.0,0.007888512213050314
1793.0,0.007932739972333236
1792.0,0.008021209005416363
1791.0,0.008109696063975047
1790.0,0.008198201155356077
1789.0,0.008198201155356077
1788.0,0.008153946355103248
1787.0,0.008065450281052211
1786.0,0.007976972236149349
1785.0,0.007976972236149349
1784.0,0.007932739972333236
1783.0,0.007932739972333236
1782.0,0.007844288957383316
1781.0,0.007844288957383316
1780.0,0.007888512213050314
1779.0,0.007932739972333236
1778.0,0.007976972236149349
1777.0,0.007932739972333236
1776.0,0.007844288957383316
1775.0,0.007711646202907652
1774.0,0.007667440952535687
1773.0,0.007711646202907652
1772.0,0.007844288957383316
1771.0,0.007844288957383316
1770.0,0.007844288957383316
1769.0,0.007800070204414977
1768.0,0.007844288957383316
1767.0,0.007800070204414977
1766.0,0.007800070204414977
1765.0,0.007800070204414977
1764.0,0.007800070204414977
1763.0,0.007844288957383316
1762.0,0.007932739972333236
1761.0,0.008021209005416363
1760.0,0.008109696063975047
1759.0,0.008109696063975047
1758.0,0.008065450281052211
1757.0,0.008065450281052211
1756.0,0.008065450281052211
1755.0,0.008065450281052211
1754.0,0.007976972236149349
1753.0,0.007888512213050314
1752.0,0.007888512213050314
1751.0,0.007976972236149349
1750.0,0.008065450281052211
1749.0,0.008153946355103248
1748.0,0.008153946355103248
1747.0,0.008198201155356077
1746.0,0.008198201155356077
1745.0,0.008198201155356077
1744.0,0.008242460465651913
1743.0,0.008286724286910463
1742.0,0.008330992620051436
1741.0,0.008330992620051436
1740.0,0.008242460465651913
1739.0,0.008198201155356077
1738.0,0.008242460465651913
1737.0,0.008330992620051436
1736.0,0.008463824699968647
1735.0,0.008640997362049818
1734.0,0.008773924307505121
1733.0,0.0087296108049002
1732.0,0.008640997362049818
1731.0,0.008552401996197112
1730.0,0.00850811108984062
1729.0,0.008463824699968647
1728.0,0.00850811108984062
1727.0,0.008552401996197112
1726.0,0.008596697419959609
1725.0,0.008685301823389224
1724.0,0.008773924307505121
1723.0,0.008818242332126802
1722.0,0.008773924307505121
1721.0,0.0087296108049002
1720.0,0.008640997362049818
1719.0,0.00850811108984062
1718.0,0.008419542825660153
1717.0,0.008375265465994541
1716.0,0.008375265465994541
1715.0,0.008419542825660153
1714.0,0.008463824699968647
1713.0,0.008419542825660153
1712.0,0.008375265465994541
1711.0,0.008286724286910463
1710.0,0.008242460465651913
1709.0,0.008286724286910463
1708.0,0.008330992620051436
1707.0,0.008242460465651913
1706.0,0.008153946355103248
1705.0,0.008065450281052211
1704.0,0.008065450281052211
1703.0,0.008065450281052211
1702.0,0.008021209005416363
1701.0,0.008021209005416363
1700.0,0.008021209005416363
1699.0,0.008065450281052211
1698.0,0.008109696063975047
1697.0,0.008153946355103248
1696.0,0.008153946355103248
1695.0,0.008065450281052211
1694.0,0.008109696063975047
1693.0,0.008153946355103248
1692.0,0.008198201155356077
1691.0,0.008153946355103248
1690.0,0.008109696063975047
1689.0,0.008109696063975047
1688.0,0.008153946355103248
1687.0,0.008153946355103248
1686.0,0.008153946355103248
1685.0,0.008330992620051436
1684.0,0.008552401996197112
1683.0,0.008552401996197112
1682.0,0.00850811108984062
1681.0,0.008463824699968647
1680.0,0.008375265465994541
1679.0,0.008330992620051436
1678.0,0.008286724286910463
1677.0,0.008330992620051436
1676.0,0.008375265465994541
1675.0,0.008375265465994541
1674.0,0.008286724286910463
1673.0,0.008242460465651913
1672.0,0.008242460465651913
1671.0,0.008242460465651913
1670.0,0.008330992620051436
1669.0,0.008375265465994541
1668.0,0.008330992620051436
1667.0,0.008330992620051436
1666.0,0.008286724286910463
1665.0,0.008330992620051436
1664.0,0.008330992620051436
1663.0,0.008375265465994541
1662.0,0.008419542825660153
1661.0,0.008375265465994541
1660.0,0.008375265465994541
1659.0,0.008330992620051436
1658.0,0.008242460465651913
1657.0,0.008153946355103248
1656.0,0.008198201155356077
1655.0,0.008242460465651913
1654.0,0.008375265465994541
1653.0,0.008463824699968647
1652.0,0.008330992620051436
1651.0,0.008286724286910463
1650.0,0.008330992620051436
1649.0,0.008286724286910463
1648.0,0.008330992620051436
1647.0,0.008330992620051436
1646.0,0.008286724286910463
1645.0,0.008286724286910463
1644.0,0.008330992620051436
1643.0,0.008375265465994541
1642.0,0.008375265465994541
1641.0,0.008330992620051436
1640.0,0.008242460465651913
1639.0,0.008198201155356077
1638.0,0.008153946355103248
1637.0,0.008198201155356077
1636.0,0.008242460465651913
1635.0,0.008198201155356077
1634.0,0.008109696063975047
1633.0,0.008109696063975047
1632.0,0.008065450281052211
1631.0,0.007976972236149349
1630.0,0.007932739972333236
1629.0,0.007888512213050314
1628.0,0.007932739972333236
1627.0,0.007932739972333236
1626.0,0.007932739972333236
1625.0,0.007932739972333236
1624.0,0.007976972236149349
1623.0,0.007976972236149349
1622.0,0.008021209005416363
1621.0,0.008021209005416363
1620.0,0.008109696063975047
1619.0,0.008153946355103248
1618.0,0.008153946355103248
1617.0,0.008065450281052211
1616.0,0.007976972236149349
1615.0,0.007932739972333236
1614.0,0.007932739972333236
1613.0,0.007888512213050314
1612.0,0.007844288957383316
1611.0,0.007755855953228474
1610.0,0.007711646202907652
1609.0,0.007711646202907652
1608.0,0.007800070204414977
1607.0,0.007844288957383316
1606.0,0.007844288957383316
1605.0,0.007844288957383316
1604.0,0.007888512213050314
1603.0,0.007888512213050314
1602.0,0.007888512213050314
1601.0,0.007844288957383316
1600.0,0.007844288957383316
1599.0,0.007844288957383316
1598.0,0.007844288957383316
1597.0,0.007800070204414977
1596.0,0.007755855953228474
1595.0,0.007711646202907652
1594.0,0.00762324020119709
1593.0,0.007534852191956709
1592.0,0.007490664932224611
1591.0,0.0074464821678643656
1590.0,0.007402303897961815
1589.0,0.007402303897961815
1588.0,0.0074464821678643656
1587.0,0.007490664932224611
1586.0,0.007490664932224611
1585.0,0.007490664932224611
1584.0,0.007490664932224611
1583.0,0.007490664932224611
1582.0,0.0074464821678643656
1581.0,0.007402303897961815
1580.0,0.007358130121602358
1579.0,0.007358130121602358
1578.0,0.007313960837872058
1577.0,0.007313960837872058
1576.0,0.007269796045857202
1575.0,0.007225635744644521
1574.0,0.007225635744644521
1573.0,0.007269796045857202
1572.0,0.007313960837872058
1571.0,0.007313960837872058
1570.0,0.007313960837872058
1569.0,0.007313960837872058
1568.0,0.007358130121602358
1567.0,0.0074464821678643656
1566.0,0.007490664932224611
1565.0,0.007490664932224611
1564.0,0.007490664932224611
1563.0,0.007534852191956709
1562.0,0.007534852191956709
1561.0,0.007402303897961815
1560.0,0.007313960837872058
1559.0,0.007358130121602358
1558.0,0.007313960837872058
1557.0,0.007402303897961815
1556.0,0.007534852191956709
1555.0,0.007534852191956709
1554.0,0.007534852191956709
1553.0,0.007490664932224611
1552.0,0.007490664932224611
1551.0,0.0074464821678643656
1550.0,0.007402303897961815
1549.0,0.007402303897961815
1548.0,0.0074464821678643656
1547.0,0.007402303897961815
1546.0,0.007358130121602358
1545.0,0.007313960837872058
1544.0,0.007269796045857202
1543.0,0.007181479933320523
1542.0,0.007049039429553483
1541.0,0.007004901568658406
1540.0,0.007004901568658406
1539.0,0.006872514894289861
1538.0,0.006916639301937977
1537.0,0.007093181776687496
1536.0,0.007269796045857202
1535.0,0.007313960837872058
1534.0,0.007269796045857202
1533.0,0.007225635744644521
1532.0,0.007181479933320523
1531.0,0.007137328610972382
1530.0,0.007093181776687496
1529.0,0.007093181776687496
1528.0,0.007049039429553483
1527.0,0.007004901568658406
1526.0,0.00696076819309055
1525.0,0.007049039429553483
1524.0,0.007093181776687496
1523.0,0.007093181776687496
1522.0,0.007004901568658406
1521.0,0.007004901568658406
1520.0,0.007004901568658406
1519.0,0.007004901568658406
1518.0,0.00696076819309055
1517.0,0.007049039429553483
1516.0,0.007137328610972382
1515.0,0.007137328610972382
1514.0,0.007049039429553483
1513.0,0.00696076819309055
1512.0,0.00696076819309055
1511.0,0.006872514894289861
1510.0,0.006872514894289861
1509.0,0.006916639301937977
1508.0,0.007004901568658406
1507.0,0.006916639301937977
1506.0,0.006828394969235152
1505.0,0.007004901568658406
1504.0,0.007181479933320523
1503.0,0.007225635744644521
1502.0,0.007181479933320523
1501.0,0.007181479933320523
1500.0,0.007225635744644521
1499.0,0.007225635744644521
1498.0,0.007225635744644521
1497.0,0.007358130121602358
1496.0,0.0074464821678643656
1495.0,0.007402303897961815
1494.0,0.007358130121602358
1493.0,0.007358130121602358
1492.0,0.007358130121602358
1491.0,0.007269796045857202
1490.0,0.007093181776687496
1489.0,0.007137328610972382
1488.0,0.007225635744644521
1487.0,0.007225635744644521
1486.0,0.007313960837872058
1485.0,0.007534852191956709
1484.0,0.007844288957383316
1483.0,0.008109696063975047
1482.0,0.00850811108984062
1481.0,0.009306039320248427
1480.0,0.01037222925484893
1479.0,0.011887159731648111
1478.0,0.014798141635428141
1477.0,0.020497151212598652
1476.0,0.02960662792039992
1475.0,0.041436116778032606
1474.0,0.05502409158795207
1473.0,0.06671522765130522
1472.0,0.07145053299833615
1471.0,0.07032568205141221
1470.0,0.06828793294324442
1469.0,0.06727263269847072
1468.0,0.06742477650170953
1467.0,0.06894915322260897
1466.0,0.07319468988839395
1465.0,0.08013774644446192
1464.0,0.08608023504853413
1463.0,0.0872466963286771
1462.0,0.08354605145007499
1461.0,0.07675598136972361
1460.0,0.06864384953207203
1459.0,0.06093025007657582
1458.0,0.0549255115212699
1457.0,0.05100054597304693
1456.0,0.04817696468408794
1455.0,0.04570923829887308
1454.0,0.04320747962950522
1453.0,0.04057697805689475
1452.0,0.03800971255993524
1451.0,0.03592902944204468
1450.0,0.03423403581731388
1449.0,0.03282657704446046
1448.0,0.031563752288295444
1447.0,0.030537492025363155
1446.0,0.029792641193145286
1445.0,0.02904906565457588
1444.0,0.02839947976994095
1443.0,0.027843464140506313
1442.0,0.027334407733889066
1441.0,0.02677975314776626
1440.0,0.02617967564731627
1439.0,0.02558042614771394
1438.0,0.024936003904763915
1437.0,0.024246610963712723
1436.0,0.02355831062115543
1435.0,0.022871099419317753
1434.0,0.0221849739168134
1433.0,0.021363051615525652
1432.0,0.02045162529590483
1431.0,0.01958753839310856
1430.0,0.018725167293411005
1429.0,0.017909760704207134
1428.0,0.017186237868137555
1427.0,0.016554142658660398
1426.0,0.016013078034810446
1425.0,0.01547268665620738
1424.0,0.015022873584506602
1423.0,0.014708281407112
1422.0,0.014438812226654996
1421.0,0.014079779876432497
1420.0,0.01385553528947936
1419.0,0.01381070026317599
1418.0,0.01385553528947936
1417.0,0.01385553528947936
1416.0,0.01381070026317599
1415.0,0.013765869865004277
1414.0,0.013765869865004277
1413.0,0.013676222949234651
1412.0,0.013631406429727155
1411.0,0.013586594534531482
1410.0,0.013541787262693505
1409.0,0.013496984613259544
1408.0,0.013452186585275916
1407.0,0.013496984613259544
1406.0,0.013496984613259544
1405.0,0.013362604389846044
1404.0,0.01318349541446362
1403.0,0.013004460275618523
1402.0,0.012870232340102872
1401.0,0.012780770091995297
1400.0,0.012691326268817527
1399.0,0.01264661126420652
1398.0,0.01264661126420652
1397.0,0.012736045877764557
1396.0,0.012914970375878188
1395.0,0.01318349541446362
1394.0,0.013317820220494436
1393.0,0.013138729709955221
1392.0,0.012870232340102872
1391.0,0.01260190086298274
1390.0,0.012512493866907004
1389.0,0.012512493866907004
1388.0,0.01264661126420652
1387.0,0.013004460275618523
1386.0,0.013362604389846044
1385.0,0.01372104409400876
1384.0,0.014214382227394795
1383.0,0.014932966849499074
1382.0,0.015832872853011715
1381.0,0.01677978535189717
1380.0,0.017774008325325275
1379.0,0.01858915983411169
1378.0,0.019042683770379876
1377.0,0.0190880622231564
1376.0,0.018725167293411005
1375.0,0.018271974638383703
1374.0,0.01781925440359733
1373.0,0.017502630802287644
1372.0,0.017412209298337533
1371.0,0.017412209298337533
1370.0,0.017367005605150476
1369.0,0.01727661233145472
1368.0,0.017141057687924732
1367.0,0.016960383953898095
1366.0,0.016734647433454652
1365.0,0.01646391839700767
1364.0,0.016103208673694303
1363.0,0.015742798294583915
1362.0,0.01538268676325183
1361.0,0.015067833932588037
1360.0,0.014753209197138295
1359.0,0.014573525916998342
1358.0,0.0144837121472845
1357.0,0.014438812226654996
1356.0,0.014438812226654996
1355.0,0.0144837121472845
1354.0,0.01452861671041239
1353.0,0.0144837121472845
1352.0,0.014393916947563534
1351.0,0.014259258949925524
1350.0,0.014169510141607944
1349.0,0.013990068146738865
1348.0,0.01385553528947936
1347.0,0.01372104409400876
1346.0,0.013631406429727155
1345.0,0.013496984613259544
1344.0,0.013362604389846044
1343.0,0.01322826573375524
1342.0,0.013093968619278806
1341.0,0.012959713020733288
1340.0,0.012825498912458322
1339.0,0.012691326268817527
1338.0,0.012512493866907004
1337.0,0.012289056869694281
1336.0,0.012065734767841452
1335.0,0.011842527443247208
1334.0,0.011664044143949504
1333.0,0.011485634166333858
1332.0,0.011351874764248926
1331.0,0.011262724711199823
1330.0,0.011262724711199823
1329.0,0.011262724711199823
1328.0,0.011218156546359825
1327.0,0.011218156546359825
1326.0,0.011218156546359825
1325.0,0.011307297450183107
1324.0,0.011396456654336085
1323.0,0.011441043121384498
1322.0,0.011530229790124524
1321.0,0.011574829993696856
1320.0,0.011619434777991433
1319.0,0.011753276624621556
1318.0,0.011887159731648111
1317.0,0.011931796607364653
1316.0,0.0119764380713403
1315.0,0.012021084124518078
1314.0,0.012065734767841452
1313.0,0.01215504982870197
1312.0,0.012244383261476699
1311.0,0.012333735073725371
1310.0,0.012423105273012602
1309.0,0.012512493866907004
1308.0,0.012557195064198723
1307.0,0.01264661126420652
1306.0,0.012691326268817527
1305.0,0.012691326268817527
1304.0,0.012691326268817527
1303.0,0.01264661126420652
1302.0,0.01260190086298274
1301.0,0.012512493866907004
1300.0,0.012467797270160563
1299.0,0.012467797270160563
1298.0,0.012467797270160563
1297.0,0.012378417874516323
1296.0,0.012333735073725371
1295.0,0.012244383261476699
1294.0,0.01215504982870197
1293.0,0.012021084124518078
1292.0,0.011887159731648111
1291.0,0.011753276624621556
1290.0,0.011664044143949504
1289.0,0.011574829993696856
1288.0,0.011530229790124524
1287.0,0.011485634166333858
1286.0,0.011441043121384498
1285.0,0.011396456654336085
1284.0,0.011351874764248926
1283.0,0.011396456654336085
1282.0,0.011441043121384498
1281.0,0.011441043121384498
1280.0,0.011441043121384498
1279.0,0.011441043121384498
1278.0,0.011396456654336085
1277.0,0.011396456654336085
1276.0,0.011396456654336085
1275.0,0.011396456654336085
1274.0,0.011396456654336085
1273.0,0.011396456654336085
1272.0,0.011441043121384498
1271.0,0.011574829993696856
1270.0,0.011664044143949504
1269.0,0.011664044143949504
1268.0,0.011664044143949504
1267.0,0.011708658092512314
1266.0,0.011797899741219142
1265.0,0.011887159731648111
1264.0,0.012021084124518078
1263.0,0.012110390002254778
1262.0,0.01215504982870197
1261.0,0.01215504982870197
1260.0,0.01215504982870197
1259.0,0.012110390002254778
1258.0,0.012110390002254778
1257.0,0.012065734767841452
1256.0,0.0119764380713403
1255.0,0.011842527443247208
1254.0,0.011753276624621556
1253.0,0.011664044143949504
1252.0,0.011664044143949504
1251.0,0.011664044143949504
1250.0,0.011708658092512314
1249.0,0.011619434777991433
1248.0,0.011485634166333858
1247.0,0.011396456654336085
1246.0,0.011307297450183107
1245.0,0.011262724711199823
1244.0,0.011262724711199823
1243.0,0.011262724711199823
1242.0,0.011307297450183107
1241.0,0.01117359295472431
1240.0,0.010995384301463185
1239.0,0.01086177578421088
1238.0,0.01077272626946324
1237.0,0.010728208358306901
1236.0,0.010728208358306901
1235.0,0.010683695010048622
1234.0,0.010683695010048622
1233.0,0.010728208358306901
1232.0,0.01077272626946324
1231.0,0.010817248744452446
1230.0,0.010817248744452446
1229.0,0.01077272626946324
1228.0,0.010683695010048622
1227.0,0.010639186223752484
1226.0,0.010594681998483901
1225.0,0.010550182333308289
1224.0,0.010505687227290839
1223.0,0.01046119667949763
1222.0,0.010416710688994968
1221.0,0.010327752376126709
1220.0,0.010283280051895272
1219.0,0.010283280051895272
1218.0,0.01023881228122181
1217.0,0.010194349063173958
1216.0,0.010060986715464404
1215.0,0.009972101229705377
1214.0,0.009927665307847056
1213.0,0.009883233932095559
1212.0,0.009838807101520963
1211.0,0.00974996707218323
1210.0,0.009705553871561357
1209.0,0.009616741093766423
1208.0,0.009527946474380489
1207.0,0.009439170005980158
1206.0,0.009306039320248427
1205.0,0.009217308196862062
1204.0,0.009128595198514056
1203.0,0.009039900317800775
1202.0,0.008995559669244813
1201.0,0.008995559669244813
1200.0,0.009039900317800775
1199.0,0.008995559669244813
1198.0,0.008951223547323472
1197.0,0.008862564879688284
1196.0,0.008818242332126802
1195.0,0.008773924307505121
1194.0,0.008862564879688284
1193.0,0.008951223547323472
1192.0,0.008995559669244813
1191.0,0.008995559669244813
1190.0,0.008906891951112605
1189.0,0.008773924307505121
1188.0,0.0087296108049002
1187.0,0.008773924307505121
1186.0,0.008862564879688284
1185.0,0.008862564879688284
1184.0,0.008862564879688284
1183.0,0.008818242332126802
1182.0,0.008818242332126802
1181.0,0.008862564879688284
1180.0,0.008906891951112605
1179.0,0.008951223547323472
1178.0,0.008951223547323472
1177.0,0.008995559669244813
1176.0,0.00908424549391551
1175.0,0.009128595198514056
1174.0,0.009172949432521227
1173.0,0.009172949432521227
1172.0,0.009128595198514056
1171.0,0.00908424549391551
1170.0,0.009039900317800775
1169.0,0.008995559669244813
1168.0,0.008995559669244813
1167.0,0.008995559669244813
1166.0,0.009039900317800775
1165.0,0.008995559669244813
1164.0,0.009039900317800775
1163.0,0.00908424549391551
1162.0,0.009172949432521227
1161.0,0.009172949432521227
1160.0,0.009172949432521227
1159.0,0.009128595198514056
1158.0,0.009128595198514056
1157.0,0.009172949432521227
1156.0,0.009217308196862062
1155.0,0.009217308196862062
1154.0,0.009217308196862062
1153.0,0.009172949432521227
1152.0,0.009172949432521227
1151.0,0.009217308196862062
1150.0,0.009306039320248427
1149.0,0.009306039320248427
1148.0,0.009261671492462709
1147.0,0.009172949432521227
1146.0,0.00908424549391551
1145.0,0.008995559669244813
1144.0,0.008862564879688284
1143.0,0.008818242332126802
1142.0,0.008818242332126802
1141.0,0.008773924307505121
1140.0,0.008773924307505121
1139.0,0.0087296108049002
1138.0,0.008773924307505121
1137.0,0.008818242332126802
1136.0,0.008862564879688284
1135.0,0.008862564879688284
1134.0,0.008818242332126802
1133.0,0.008773924307505121
1132.0,0.008818242332126802
1131.0,0.008862564879688284
1130.0,0.008951223547323472
1129.0,0.008951223547323472
1128.0,0.008951223547323472
1127.0,0.008951223547323472
1126.0,0.008995559669244813
1125.0,0.009039900317800775
1124.0,0.00908424549391551
1123.0,0.009128595198514056
1122.0,0.009128595198514056
1121.0,0.009128595198514056
1120.0,0.009172949432521227
1119.0,0.009261671492462709
1118.0,0.00939478857608056
1117.0,0.009527946474380489
1116.0,0.009705553871561357
1115.0,0.009927665307847056
1114.0,0.010194349063173958
1113.0,0.01037222925484893
1112.0,0.01046119667949763
1111.0,0.010550182333308289
1110.0,0.010639186223752484
1109.0,0.010683695010048622
1108.0,0.010683695010048622
1107.0,0.010728208358306901
1106.0,0.010728208358306901
1105.0,0.010817248744452446
1104.0,0.010950843561779777
1103.0,0.011084479487313281
1102.0,0.01117359295472431
1101.0,0.011307297450183107
1100.0,0.011396456654336085
1099.0,0.011485634166333858
1098.0,0.011530229790124524
1097.0,0.011574829993696856
1096.0,0.011619434777991433
1095.0,0.011708658092512314
1094.0,0.011797899741219142
1093.0,0.011887159731648111
1092.0,0.012021084124518078
1091.0,0.012244383261476699
1090.0,0.012512493866907004
1089.0,0.012736045877764557
1088.0,0.012914970375878188
1087.0,0.013093968619278806
1086.0,0.013317820220494436
1085.0,0.013586594534531482
1084.0,0.01385553528947936
1083.0,0.014169510141607944
1082.0,0.014438812226654996
1081.0,0.014573525916998342
1080.0,0.014618439768003144
1079.0,0.014663358264387139
1078.0,0.014753209197138295
1077.0,0.014753209197138295
1076.0,0.014708281407112
1075.0,0.014618439768003144
1074.0,0.014438812226654996
1073.0,0.014304140310157809
1072.0,0.014214382227394795
1071.0,0.014214382227394795
1070.0,0.014349026309051105
1069.0,0.014573525916998342
1068.0,0.014888020460646079
1067.0,0.015157768594724175
1066.0,0.015247721884586563
1065.0,0.015067833932588037
1064.0,0.014753209197138295
1063.0,0.0144837121472845
1062.0,0.014349026309051105
1061.0,0.014349026309051105
1060.0,0.01452861671041239
1059.0,0.014753209197138295
1058.0,0.014888020460646079
1057.0,0.014888020460646079
1056.0,0.014798141635428141
1055.0,0.014753209197138295
1054.0,0.014708281407112
1053.0,0.014753209197138295
1052.0,0.014753209197138295
1051.0,0.014753209197138295
1050.0,0.014753209197138295
1049.0,0.014708281407112
1048.0,0.014663358264387139
1047.0,0.014618439768003144
1046.0,0.01452861671041239
1045.0,0.014259258949925524
1044.0,0.013900374944870508
1043.0,0.013541787262693505
1042.0,0.013273040668781544
1041.0,0.013093968619278806
1040.0,0.012914970375878188
1039.0,0.012736045877764557
1038.0,0.012512493866907004
1037.0,0.012199714248127602
1036.0,0.011887159731648111
1035.0,0.011619434777991433
1034.0,0.011396456654336085
1033.0,0.01117359295472431
1032.0,0.010906307389674463
1031.0,0.010728208358306901
1030.0,0.010683695010048622
1029.0,0.010728208358306901
1028.0,0.01077272626946324
1027.0,0.010728208358306901
1026.0,0.010594681998483901
1025.0,0.01046119667949763
1024.0,0.010327752376126709
1023.0,0.01023881228122181
1022.0,0.010149890396819572
1021.0,0.01001654169860089
1020.0,0.009838807101520963
1019.0,0.00966114521239847
1018.0,0.009527946474380489
1017.0,0.009350411681145587
1016.0,0.009217308196862062
1015.0,0.009128595198514056
1014.0,0.008995559669244813
1013.0,0.008862564879688284
1012.0,0.0087296108049002
1011.0,0.008685301823389224
1010.0,0.008640997362049818
1009.0,0.008596697419959609
1008.0,0.00850811108984062
1007.0,0.008463824699968647
1006.0,0.008330992620051436
1005.0,0.008153946355103248
1004.0,0.007932739972333236
1003.0,0.007711646202907652
1002.0,0.0075790439479759275
1001.0,0.007490664932224611
1000.0,0.007490664932224611
999.0,0.007490664932224611
998.0,0.0074464821678643656
997.0,0.007402303897961815
996.0,0.007313960837872058
995.0,0.007269796045857202
994.0,0.007181479933320523
993.0,0.007137328610972382
992.0,0.007049039429553483
991.0,0.00696076819309055
990.0,0.006784279525863024
989.0,0.006607862550997545
988.0,0.006519680930003435
987.0,0.00656376950238835
986.0,0.006607862550997545
985.0,0.006651960076740071
984.0,0.006607862550997545
983.0,0.006519680930003435
982.0,0.006387442061109638
981.0,0.00621118618129457
980.0,0.006079041198713275
979.0,0.005990966876386672
978.0,0.005990966876386672
977.0,0.005990966876386672
976.0,0.005990966876386672
975.0,0.005990966876386672
974.0,0.005990966876386672
973.0,0.005946936412324799
972.0,0.005858888873877532
971.0,0.005726851026829571
970.0,0.005594853310833647
969.0,0.005506877116487674
968.0,0.005462895701502157
967.0,0.00537494623139545
966.0,0.0052870145684298375
965.0,0.005111204635089406
964.0,0.005067263269958211
963.0,0.005111204635089406
962.0,0.005155150446602086
961.0,0.005067263269958211
960.0,0.004935465843858511
959.0,0.004759798137184523
958.0,0.004671990922590297
957.0,0.004671990922590297
956.0,0.004715892310740433
955.0,0.00484762310854614
954.0,0.004979393875242044
953.0,0.005067263269958211
952.0,0.005111204635089406
951.0,0.005067263269958211
950.0,0.005023326350308999
949.0,0.005023326350308999
948.0,0.005067263269958211
947.0,0.005199100705396198
946.0,0.0052870145684298375
945.0,0.005330978174470591
944.0,0.00537494623139545
943.0,0.00541891874010525
942.0,0.005550862985963967
941.0,0.005682847330363394
940.0,0.005682847330363394
939.0,0.005682847330363394
938.0,0.005726851026829571
937.0,0.005858888873877532
936.0,0.006035001804881146
935.0,0.006167133386013823
934.0,0.00621118618129457
933.0,0.00621118618129457
932.0,0.00621118618129457
931.0,0.00621118618129457
930.0,0.006299305179649828
929.0,0.006387442061109638
928.0,0.006431517210272464
927.0,0.006475596832934416
926.0,0.006519680930003435
925.0,0.006387442061109638
924.0,0.00625524344553785
923.0,0.00625524344553785
922.0,0.006343371384537999
921.0,0.006475596832934416
920.0,0.006519680930003435
919.0,0.006475596832934416
918.0,0.006387442061109638
917.0,0.006387442061109638
916.0,0.006475596832934416
915.0,0.00656376950238835
914.0,0.006607862550997545
913.0,0.00656376950238835
912.0,0.006431517210272464
911.0,0.006343371384537999
910.0,0.006299305179649828
909.0,0.006343371384537999
908.0,0.006343371384537999
907.0,0.006299305179649828
906.0,0.00625524344553785
905.0,0.00625524344553785
904.0,0.006299305179649828
903.0,0.006387442061109638
902.0,0.006387442061109638
901.0,0.006343371384537999
900.0,0.00625524344553785
899.0,0.006299305179649828
898.0,0.006387442061109638
897.0,0.006607862550997545
896.0,0.006872514894289861
895.0,0.007049039429553483
894.0,0.007137328610972382
893.0,0.007181479933320523
892.0,0.007093181776687496
891.0,0.006916639301937977
890.0,0.006740168563263094
889.0,0.00656376950238835
888.0,0.00656376950238835
887.0,0.006740168563263094
886.0,0.007004901568658406
885.0,0.007225635744644521
884.0,0.007313960837872058
883.0,0.007269796045857202
882.0,0.007093181776687496
881.0,0.006828394969235152
880.0,0.006651960076740071
879.0,0.006607862550997545
878.0,0.006740168563263094
877.0,0.006828394969235152
876.0,0.006916639301937977
875.0,0.00696076819309055
874.0,0.00696076819309055
873.0,0.00696076819309055
872.0,0.006916639301937977
871.0,0.007004901568658406
870.0,0.007093181776687496
869.0,0.007225635744644521
868.0,0.007358130121602358
867.0,0.007490664932224611
866.0,0.0075790439479759275
865.0,0.0074464821678643656
864.0,0.007269796045857202
863.0,0.007137328610972382
862.0,0.007093181776687496
861.0,0.007093181776687496
860.0,0.007093181776687496
859.0,0.007137328610972382
858.0,0.007225635744644521
857.0,0.007269796045857202
856.0,0.007137328610972382
855.0,0.006916639301937977
854.0,0.006696062080525422
853.0,0.006475596832934416
852.0,0.006299305179649828
851.0,0.006167133386013823
850.0,0.006035001804881146
849.0,0.00590291041179003
848.0,0.005814871797682919
847.0,0.005682847330363394
846.0,0.005550862985963967
845.0,0.00537494623139545
844.0,0.005243055412371911
843.0,0.005199100705396198
842.0,0.005330978174470591
841.0,0.005506877116487674
840.0,0.005594853310833647
839.0,0.005550862985963967
838.0,0.00541891874010525
837.0,0.005199100705396198
836.0,0.005023326350308999
835.0,0.00484762310854614
834.0,0.004715892310740433
833.0,0.004628093971837721
832.0,0.004671990922590297
831.0,0.004803708402820517
830.0,0.004935465843858511
829.0,0.005111204635089406
828.0,0.0052870145684298375
827.0,0.00537494623139545
826.0,0.0052870145684298375
825.0,0.005067263269958211
824.0,0.00484762310854614
823.0,0.004803708402820517
822.0,0.00484762310854614
821.0,0.00484762310854614
820.0,0.004803708402820517
819.0,0.004715892310740433
818.0,0.004671990922590297
817.0,0.004715892310740433
816.0,0.004803708402820517
815.0,0.005067263269958211
814.0,0.00541891874010525
813.0,0.005726851026829571
812.0,0.005946936412324799
811.0,0.006079041198713275
810.0,0.00621118618129457
809.0,0.006343371384537999
808.0,0.006431517210272464
807.0,0.006475596832934416
806.0,0.006519680930003435
805.0,0.006475596832934416
804.0,0.006343371384537999
803.0,0.006299305179649828
802.0,0.00625524344553785
801.0,0.00625524344553785
800.0,0.006299305179649828
799.0,0.006343371384537999
798.0,0.006431517210272464
797.0,0.006387442061109638
796.0,0.00621118618129457
795.0,0.005990966876386672
794.0,0.005814871797682919
793.0,0.005726851026829571
792.0,0.005726851026829571
791.0,0.005814871797682919
790.0,0.005858888873877532
789.0,0.00590291041179003
788.0,0.00590291041179003
787.0,0.005858888873877532
786.0,0.00577085918230158
785.0,0.005594853310833647
784.0,0.00541891874010525
783.0,0.005330978174470591
782.0,0.00537494623139545
781.0,0.00541891874010525
780.0,0.0052870145684298375
779.0,0.005023326350308999
778.0,0.004759798137184523
777.0,0.004540313378935901
776.0,0.0044964297349936455
775.0,0.004540313378935901
774.0,0.004803708402820517
773.0,0.005067263269958211
772.0,0.005243055412371911
771.0,0.005243055412371911
770.0,0.005155150446602086
769.0,0.005111204635089406
768.0,0.005243055412371911
767.0,0.00541891874010525
766.0,0.00541891874010525
765.0,0.005199100705396198
764.0,0.005023326350308999
763.0,0.005111204635089406
762.0,0.005330978174470591
761.0,0.00541891874010525
760.0,0.005243055412371911
759.0,0.005111204635089406
758.0,0.0052870145684298375
757.0,0.005682847330363394
756.0,0.005946936412324799
755.0,0.00590291041179003
754.0,0.005814871797682919
753.0,0.005858888873877532
752.0,0.005990966876386672
751.0,0.006079041198713275
750.0,0.00612308505878878
749.0,0.006167133386013823
748.0,0.006167133386013823
747.0,0.00612308505878878
746.0,0.005946936412324799
745.0,0.005858888873877532
744.0,0.00590291041179003
743.0,0.006079041198713275
742.0,0.006387442061109638
741.0,0.006740168563263094
740.0,0.007181479933320523
739.0,0.007844288957383316
738.0,0.008773924307505121
737.0,0.010194349063173958
736.0,0.012244383261476699
735.0,0.015517693597737248
734.0,0.020952673052035298
733.0,0.029141943003497595
732.0,0.039338992729018196
731.0,0.04885683989244738
730.0,0.05438372077326825
729.0,0.05453141486818014
728.0,0.051049389754451946
727.0,0.0469171560879138
726.0,0.044456557540257124
725.0,0.04450467081587295
724.0,0.04715914332429838
723.0,0.05305672930217464
722.0,0.06283329628496737
721.0,0.07546228222451012
720.0,0.08687520961044104
719.0,0.0919441259012328
718.0,0.08889568219596411
717.0,0.07998108397108505
716.0,0.06864384953207203
715.0,0.057396751157843484
714.0,0.04730440041308315
713.0,0.038958783046687984
712.0,0.03240522732811035
711.0,0.027565723042634938
710.0,0.024108863598207186
709.0,0.021545566634771474
708.0,0.01958753839310856
707.0,0.01800028587012159
706.0,0.016734647433454652
705.0,0.015517693597737248
704.0,0.014393916947563534
703.0,0.013273040668781544
702.0,0.012289056869694281
701.0,0.011619434777991433
700.0,0.011485634166333858
699.0,0.011797899741219142
698.0,0.012110390002254778
697.0,0.011842527443247208
696.0,0.010995384301463185
695.0,0.01023881228122181
694.0,0.009794384815193347
693.0,0.009439170005980158
692.0,0.008818242332126802
691.0,0.007888512213050314
690.0,0.007049039429553483
689.0,0.00656376950238835
688.0,0.006299305179649828
687.0,0.006079041198713275
686.0,0.005990966876386672
685.0,0.006343371384537999
684.0,0.007137328610972382
683.0,0.007844288957383316
682.0,0.007844288957383316
681.0,0.007269796045857202
680.0,0.006784279525863024
679.0,0.007004901568658406
678.0,0.007667440952535687
677.0,0.008065450281052211
676.0,0.007755855953228474
675.0,0.006872514894289861
674.0,0.005638848091999105
673.0,0.004277078004534696
672.0,0.0027447101798967477
671.0,0.0010435595295137379
670.0,-0.0007376737740329986
669.0,-0.002597980719908577
668.0,-0.003632837004408529
667.0,-0.0022956825549340643
666.0,0.0001303078917322953
665.0,0.0017842676290416026
664.0,0.002613615602686581
663.0,0.0027447101798967477
662.0,0.0022205691343961664
661.0,0.0015226969634936083
660.0,0.0013919706849057079
659.0,0.0020023635919956817
658.0,0.0027447101798967477
657.0,0.0025262411970197185
656.0,0.0012612837441823288
655.0,-0.0002604985473904087
654.0,-0.0008243766056055257
653.0,4.343161980746579e-05
652.0,0.0016970599014589638
651.0,0.0030944893043338695
650.0,0.0035321097382827737
649.0,0.003050751504618754
648.0,0.002351545103793873
647.0,0.0020459959305969555
646.0,0.0022205691343961664
645.0,0.0027447101798967477
644.0,0.003619686766589858
643.0,0.004715892310740433
642.0,0.005506877116487674
641.0,0.00541891874010525
640.0,0.004671990922590297
639.0,0.00401400208620073
638.0,0.004277078004534696
637.0,0.00577085918230158
636.0,0.008153946355103248
635.0,0.010505687227290839
634.0,0.011664044143949504
633.0,0.010594681998483901
632.0,0.007800070204414977
631.0,0.0052870145684298375
630.0,0.004628093971837721
629.0,0.005726851026829571
628.0,0.007313960837872058
627.0,0.008153946355103248
626.0,0.007932739972333236
625.0,0.00696076819309055
624.0,0.005858888873877532
623.0,0.004935465843858511
622.0,0.0043648054024501
621.0,0.004320939488377862
620.0,0.004715892310740433
619.0,0.004979393875242044
618.0,0.0044964297349936455
617.0,0.0034445503666347133
616.0,0.0024388843664115978
615.0,0.001915112063444413
614.0,0.0015226969634936083
613.0,0.0011306361176557367
612.0,0.0010870956412141197
611.0,0.0018278780605593958
610.0,0.0028758443407954637
609.0,0.0033570086445275926
608.0,0.003050751504618754
607.0,0.0022642234021015284
606.0,0.0013919706849057079
605.0,0.0005649501236701937
604.0,-8.685021164911433e-05
603.0,-0.00013026880522692963
602.0,0.0003910410285830057
601.0,0.0010870956412141197
600.0,0.0015226969634936083
