cm-1,A
4000.0,0.007269796045857202
3999.0,0.007269796045857202
3998.0,0.007269796045857202
3997.0,0.007225635744644521
3996.0,0.007225635744644521
3995.0,0.007225635744644521
3994.0,0.007225635744644521
3993.0,0.007225635744644521
3992.0,0.007269796045857202
3991.0,0.007269796045857202
3990.0,0.007313960837872058
3989.0,0.007358130121602358
3988.0,0.007358130121602358
3987.0,0.007313960837872058
3986.0,0.007269796045857202
3985.0,0.007225635744644521
3984.0,0.007225635744644521
3983.0,0.007313960837872058
3982.0,0.007358130121602358
3981.0,0.007402303897961815
3980.0,0.007402303897961815
3979.0,0.007402303897961815
3978.0,0.007402303897961815
3977.0,0.007358130121602358
3976.0,0.007358130121602358
3975.0,0.007313960837872058
3974.0,0.007313960837872058
3973.0,0.007225635744644521
3972.0,0.007181479933320523
3971.0,0.007181479933320523
3970.0,0.007225635744644521
3969.0,0.007269796045857202
3968.0,0.007358130121602358
3967.0,0.007402303897961815
3966.0,0.007402303897961815
3965.0,0.007402303897961815
3964.0,0.007402303897961815
3963.0,0.007402303897961815
3962.0,0.007358130121602358
3961.0,0.007358130121602358
3960.0,0.007313960837872058
3959.0,0.007313960837872058
3958.0,0.007313960837872058
3957.0,0.007313960837872058
3956.0,0.007269796045857202
3955.0,0.007225635744644521
3954.0,0.007137328610972382
3953.0,0.007093181776687496
3952.0,0.007049039429553483
3951.0,0.007049039429553483
3950.0,0.007049039429553483
3949.0,0.007093181776687496
3948.0,0.007049039429553483
3947.0,0.00696076819309055
3946.0,0.006872514894289861
3945.0,0.006828394969235152
3944.0,0.006872514894289861
3943.0,0.00696076819309055
3942.0,0.007049039429553483
3941.0,0.007049039429553483
3940.0,0.007137328610972382
3939.0,0.007225635744644521
3938.0,0.007225635744644521
3937.0,0.007137328610972382
3936.0,0.007004901568658406
3935.0,0.006916639301937977
3934.0,0.006872514894289861
3933.0,0.006872514894289861
3932.0,0.006916639301937977
3931.0,0.00696076819309055
3930.0,0.00696076819309055
3929.0,0.00696076819309055
3928.0,0.006916639301937977
3927.0,0.006916639301937977
3926.0,0.00696076819309055
3925.0,0.007004901568658406
3924.0,0.007004901568658406
3923.0,0.007004901568658406
3922.0,0.007004901568658406
3921.0,0.007049039429553483
3920.0,0.007049039429553483
3919.0,0.007093181776687496
3918.0,0.007181479933320523
3917.0,0.007269796045857202
3916.0,0.007313960837872058
3915.0,0.007358130121602358
3914.0,0.0074464821678643656
3913.0,0.007534852191956709
3912.0,0.0075790439479759275
3911.0,0.007490664932224611
3910.0,0.007269796045857202
3909.0,0.007004901568658406
3908.0,0.006740168563263094
3907.0,0.006519680930003435
3906.0,0.006387442061109638
3905.0,0.006387442061109638
3904.0,0.006431517210272464
3903.0,0.006475596832934416
3902.0,0.006607862550997545
3901.0,0.006872514894289861
3900.0,0.007181479933320523
3899.0,0.007358130121602358
3898.0,0.0074464821678643656
3897.0,0.0074464821678643656
3896.0,0.007358130121602358
3895.0,0.007225635744644521
3894.0,0.007093181776687496
3893.0,0.007049039429553483
3892.0,0.007137328610972382
3891.0,0.007093181776687496
3890.0,0.006872514894289861
3889.0,0.006740168563263094
3888.0,0.006828394969235152
3887.0,0.007004901568658406
3886.0,0.007093181776687496
3885.0,0.006916639301937977
3884.0,0.006607862550997545
3883.0,0.006519680930003435
3882.0,0.006828394969235152
3881.0,0.007181479933320523
3880.0,0.007358130121602358
3879.0,0.007181479933320523
3878.0,0.007049039429553483
3877.0,0.007049039429553483
3876.0,0.007137328610972382
3875.0,0.007137328610972382
3874.0,0.006872514894289861
3873.0,0.006387442061109638
3872.0,0.006079041198713275
3871.0,0.006079041198713275
3870.0,0.00612308505878878
3869.0,0.006035001804881146
3868.0,0.00590291041179003
3867.0,0.006035001804881146
3866.0,0.006343371384537999
3865.0,0.006651960076740071
3864.0,0.006784279525863024
3863.0,0.006828394969235152
3862.0,0.006872514894289861
3861.0,0.006872514894289861
3860.0,0.006828394969235152
3859.0,0.006651960076740071
3858.0,0.006343371384537999
3857.0,0.005858888873877532
3856.0,0.00541891874010525
3855.0,0.005330978174470591
3854.0,0.005682847330363394
3853.0,0.00577085918230158
3852.0,0.005550862985963967
3851.0,0.005814871797682919
3850.0,0.00656376950238835
3849.0,0.007093181776687496
3848.0,0.007269796045857202
3847.0,0.007181479933320523
3846.0,0.007004901568658406
3845.0,0.006784279525863024
3844.0,0.006475596832934416
3843.0,0.006079041198713275
3842.0,0.005682847330363394
3841.0,0.00541891874010525
3840.0,0.005462895701502157
3839.0,0.00577085918230158
3838.0,0.006079041198713275
3837.0,0.00625524344553785
3836.0,0.006387442061109638
3835.0,0.00656376950238835
3834.0,0.006784279525863024
3833.0,0.00696076819309055
3832.0,0.00696076819309055
3831.0,0.006872514894289861
3830.0,0.006784279525863024
3829.0,0.006828394969235152
3828.0,0.006916639301937977
3827.0,0.007004901568658406
3826.0,0.006872514894289861
3825.0,0.006519680930003435
3824.0,0.006167133386013823
3823.0,0.006079041198713275
3822.0,0.00621118618129457
3821.0,0.006299305179649828
3820.0,0.006035001804881146
3819.0,0.00590291041179003
3818.0,0.006167133386013823
3817.0,0.006696062080525422
3816.0,0.007004901568658406
3815.0,0.006916639301937977
3814.0,0.006872514894289861
3813.0,0.007049039429553483
3812.0,0.007269796045857202
3811.0,0.007269796045857202
3810.0,0.007004901568658406
3809.0,0.006828394969235152
3808.0,0.006784279525863024
3807.0,0.006607862550997545
3806.0,0.006167133386013823
3805.0,0.00577085918230158
3804.0,0.005682847330363394
3803.0,0.005946936412324799
3802.0,0.006343371384537999
3801.0,0.006387442061109638
3800.0,0.006079041198713275
3799.0,0.006035001804881146
3798.0,0.006387442061109638
3797.0,0.006740168563263094
3796.0,0.006916639301937977
3795.0,0.00696076819309055
3794.0,0.007049039429553483
3793.0,0.007181479933320523
3792.0,0.007358130121602358
3791.0,0.007358130121602358
3790.0,0.007313960837872058
3789.0,0.007225635744644521
3788.0,0.007181479933320523
3787.0,0.007181479933320523
3786.0,0.007269796045857202
3785.0,0.007313960837872058
3784.0,0.007225635744644521
3783.0,0.007137328610972382
3782.0,0.007093181776687496
3781.0,0.007181479933320523
3780.0,0.007402303897961815
3779.0,0.007490664932224611
3778.0,0.007402303897961815
3777.0,0.007358130121602358
3776.0,0.007313960837872058
3775.0,0.007269796045857202
3774.0,0.007137328610972382
3773.0,0.007004901568658406
3772.0,0.00696076819309055
3771.0,0.007004901568658406
3770.0,0.007004901568658406
3769.0,0.006828394969235152
3768.0,0.006651960076740071
3767.0,0.006740168563263094
3766.0,0.00696076819309055
3765.0,0.007049039429553483
3764.0,0.007004901568658406
3763.0,0.006872514894289861
3762.0,0.006872514894289861
3761.0,0.006916639301937977
3760.0,0.007004901568658406
3759.0,0.007004901568658406
3758.0,0.006872514894289861
3757.0,0.006696062080525422
3756.0,0.006475596832934416
3755.0,0.00621118618129457
3754.0,0.00590291041179003
3753.0,0.005550862985963967
3752.0,0.00541891874010525
3751.0,0.005462895701502157
3750.0,0.00537494623139545
3749.0,0.005199100705396198
3748.0,0.005155150446602086
3747.0,0.00541891874010525
3746.0,0.005990966876386672
3745.0,0.00656376950238835
3744.0,0.006651960076740071
3743.0,0.006343371384537999
3742.0,0.006343371384537999
3741.0,0.006607862550997545
3740.0,0.006607862550997545
3739.0,0.00625524344553785
3738.0,0.005858888873877532
3737.0,0.005814871797682919
3736.0,0.005946936412324799
3735.0,0.006035001804881146
3734.0,0.006035001804881146
3733.0,0.006167133386013823
3732.0,0.006387442061109638
3731.0,0.006651960076740071
3730.0,0.006828394969235152
3729.0,0.007004901568658406
3728.0,0.007093181776687496
3727.0,0.007137328610972382
3726.0,0.007049039429553483
3725.0,0.00696076819309055
3724.0,0.00696076819309055
3723.0,0.007049039429553483
3722.0,0.007093181776687496
3721.0,0.007093181776687496
3720.0,0.007093181776687496
3719.0,0.007181479933320523
3718.0,0.007225635744644521
3717.0,0.007093181776687496
3716.0,0.006784279525863024
3715.0,0.006431517210272464
3714.0,0.00612308505878878
3713.0,0.006079041198713275
3712.0,0.006431517210272464
3711.0,0.006784279525863024
3710.0,0.007004901568658406
3709.0,0.007137328610972382
3708.0,0.007269796045857202
3707.0,0.007313960837872058
3706.0,0.007313960837872058
3705.0,0.007225635744644521
3704.0,0.007137328610972382
3703.0,0.007137328610972382
3702.0,0.007181479933320523
3701.0,0.007269796045857202
3700.0,0.007358130121602358
3699.0,0.007534852191956709
3698.0,0.007711646202907652
3697.0,0.007755855953228474
3696.0,0.00762324020119709
3695.0,0.007313960837872058
3694.0,0.00696076819309055
3693.0,0.006607862550997545
3692.0,0.006343371384537999
3691.0,0.00621118618129457
3690.0,0.00621118618129457
3689.0,0.00621118618129457
3688.0,0.006079041198713275
3687.0,0.00612308505878878
3686.0,0.006519680930003435
3685.0,0.007004901568658406
3684.0,0.007402303897961815
3683.0,0.007490664932224611
3682.0,0.007402303897961815
3681.0,0.007225635744644521
3680.0,0.006872514894289861
3679.0,0.006431517210272464
3678.0,0.005990966876386672
3677.0,0.005946936412324799
3676.0,0.00621118618129457
3675.0,0.00612308505878878
3674.0,0.005726851026829571
3673.0,0.005682847330363394
3672.0,0.006035001804881146
3671.0,0.006475596832934416
3670.0,0.006872514894289861
3669.0,0.006916639301937977
3668.0,0.006916639301937977
3667.0,0.007093181776687496
3666.0,0.0074464821678643656
3665.0,0.007667440952535687
3664.0,0.007800070204414977
3663.0,0.007888512213050314
3662.0,0.007888512213050314
3661.0,0.007800070204414977
3660.0,0.0075790439479759275
3659.0,0.007402303897961815
3658.0,0.007402303897961815
3657.0,0.007534852191956709
3656.0,0.007534852191956709
3655.0,0.007269796045857202
3654.0,0.006872514894289861
3653.0,0.006475596832934416
3652.0,0.006079041198713275
3651.0,0.00590291041179003
3650.0,0.006079041198713275
3649.0,0.006299305179649828
3648.0,0.006343371384537999
3647.0,0.006475596832934416
3646.0,0.006872514894289861
3645.0,0.007313960837872058
3644.0,0.007667440952535687
3643.0,0.007888512213050314
3642.0,0.007932739972333236
3641.0,0.007932739972333236
3640.0,0.007932739972333236
3639.0,0.007976972236149349
3638.0,0.007976972236149349
3637.0,0.007932739972333236
3636.0,0.007844288957383316
3635.0,0.007711646202907652
3634.0,0.0074464821678643656
3633.0,0.007049039429553483
3632.0,0.006607862550997545
3631.0,0.006343371384537999
3630.0,0.006651960076740071
3629.0,0.007137328610972382
3628.0,0.007269796045857202
3627.0,0.007225635744644521
3626.0,0.007490664932224611
3625.0,0.007844288957383316
3624.0,0.007932739972333236
3623.0,0.007711646202907652
3622.0,0.0074464821678643656
3621.0,0.007269796045857202
3620.0,0.007269796045857202
3619.0,0.007313960837872058
3618.0,0.007269796045857202
3617.0,0.007225635744644521
3616.0,0.007358130121602358
3615.0,0.00762324020119709
3614.0,0.007844288957383316
3613.0,0.007932739972333236
3612.0,0.007844288957383316
3611.0,0.007800070204414977
3610.0,0.007888512213050314
3609.0,0.008109696063975047
3608.0,0.008330992620051436
3607.0,0.008463824699968647
3606.0,0.00850811108984062
3605.0,0.00850811108984062
3604.0,0.008463824699968647
3603.0,0.008375265465994541
3602.0,0.008286724286910463
3601.0,0.008242460465651913
3600.0,0.008153946355103248
3599.0,0.008021209005416363
3598.0,0.007888512213050314
3597.0,0.007888512213050314
3596.0,0.007976972236149349
3595.0,0.008065450281052211
3594.0,0.008109696063975047
3593.0,0.007976972236149349
3592.0,0.007800070204414977
3591.0,0.007667440952535687
3590.0,0.007534852191956709
3589.0,0.00762324020119709
3588.0,0.007800070204414977
3587.0,0.007888512213050314
3586.0,0.007888512213050314
3585.0,0.007932739972333236
3584.0,0.008109696063975047
3583.0,0.008330992620051436
3582.0,0.008419542825660153
3581.0,0.008419542825660153
3580.0,0.008375265465994541
3579.0,0.008419542825660153
3578.0,0.008419542825660153
3577.0,0.008419542825660153
3576.0,0.008375265465994541
3575.0,0.008286724286910463
3574.0,0.008286724286910463
3573.0,0.008286724286910463
3572.0,0.008242460465651913
3571.0,0.008153946355103248
3570.0,0.008021209005416363
3569.0,0.007932739972333236
3568.0,0.007888512213050314
3567.0,0.007888512213050314
3566.0,0.007755855953228474
3565.0,0.007667440952535687
3564.0,0.007755855953228474
3563.0,0.007976972236149349
3562.0,0.008242460465651913
3561.0,0.00850811108984062
3560.0,0.008685301823389224
3559.0,0.008773924307505121
3558.0,0.008773924307505121
3557.0,0.008685301823389224
3556.0,0.008552401996197112
3555.0,0.008419542825660153
3554.0,0.008330992620051436
3553.0,0.008330992620051436
3552.0,0.008286724286910463
3551.0,0.008242460465651913
3550.0,0.008242460465651913
3549.0,0.008286724286910463
3548.0,0.008419542825660153
3547.0,0.008552401996197112
3546.0,0.008640997362049818
3545.0,0.008596697419959609
3544.0,0.00850811108984062
3543.0,0.008419542825660153
3542.0,0.008375265465994541
3541.0,0.008330992620051436
3540.0,0.008375265465994541
3539.0,0.008463824699968647
3538.0,0.008596697419959609
3537.0,0.0087296108049002
3536.0,0.008818242332126802
3535.0,0.008862564879688284
3534.0,0.008906891951112605
3533.0,0.008951223547323472
3532.0,0.008995559669244813
3531.0,0.008951223547323472
3530.0,0.008906891951112605
3529.0,0.008773924307505121
3528.0,0.008640997362049818
3527.0,0.008552401996197112
3526.0,0.008552401996197112
3525.0,0.008640997362049818
3524.0,0.008773924307505121
3523.0,0.008906891951112605
3522.0,0.008906891951112605
3521.0,0.008862564879688284
3520.0,0.008818242332126802
3519.0,0.008773924307505121
3518.0,0.008773924307505121
3517.0,0.0087296108049002
3516.0,0.008685301823389224
3515.0,0.008640997362049818
3514.0,0.008596697419959609
3513.0,0.008640997362049818
3512.0,0.008685301823389224
3511.0,0.0087296108049002
3510.0,0.0087296108049002
3509.0,0.008685301823389224
3508.0,0.008596697419959609
3507.0,0.008552401996197112
3506.0,0.008552401996197112
3505.0,0.008596697419959609
3504.0,0.008596697419959609
3503.0,0.008596697419959609
3502.0,0.008552401996197112
3501.0,0.00850811108984062
3500.0,0.00850811108984062
3499.0,0.008552401996197112
3498.0,0.008640997362049818
3497.0,0.008773924307505121
3496.0,0.008862564879688284
3495.0,0.008906891951112605
3494.0,0.008862564879688284
3493.0,0.008818242332126802
3492.0,0.008818242332126802
3491.0,0.008951223547323472
3490.0,0.009128595198514056
3489.0,0.009261671492462709
3488.0,0.009350411681145587
3487.0,0.009261671492462709
3486.0,0.00908424549391551
3485.0,0.008818242332126802
3484.0,0.008640997362049818
3483.0,0.008596697419959609
3482.0,0.008640997362049818
3481.0,0.0087296108049002
3480.0,0.0087296108049002
3479.0,0.008773924307505121
3478.0,0.008773924307505121
3477.0,0.008818242332126802
3476.0,0.008906891951112605
3475.0,0.008951223547323472
3474.0,0.008995559669244813
3473.0,0.008995559669244813
3472.0,0.008951223547323472
3471.0,0.008906891951112605
3470.0,0.008818242332126802
3469.0,0.008818242332126802
3468.0,0.008862564879688284
3467.0,0.008995559669244813
3466.0,0.009039900317800775
3465.0,0.008995559669244813
3464.0,0.008951223547323472
3463.0,0.008951223547323472
3462.0,0.008995559669244813
3461.0,0.00908424549391551
3460.0,0.009039900317800775
3459.0,0.008951223547323472
3458.0,0.008906891951112605
3457.0,0.008862564879688284
3456.0,0.008906891951112605
3455.0,0.008995559669244813
3454.0,0.009039900317800775
3453.0,0.009039900317800775
3452.0,0.008995559669244813
3451.0,0.008995559669244813
3450.0,0.009039900317800775
3449.0,0.009039900317800775
3448.0,0.009039900317800775
3447.0,0.008906891951112605
3446.0,0.008773924307505121
3445.0,0.008640997362049818
3444.0,0.008640997362049818
3443.0,0.008640997362049818
3442.0,0.008685301823389224
3441.0,0.008685301823389224
3440.0,0.0087296108049002
3439.0,0.008773924307505121
3438.0,0.008862564879688284
3437.0,0.008906891951112605
3436.0,0.008951223547323472
3435.0,0.008995559669244813
3434.0,0.009039900317800775
3433.0,0.00908424549391551
3432.0,0.009128595198514056
3431.0,0.009217308196862062
3430.0,0.009306039320248427
3429.0,0.009350411681145587
3428.0,0.009350411681145587
3427.0,0.009306039320248427
3426.0,0.009217308196862062
3425.0,0.00908424549391551
3424.0,0.008951223547323472
3423.0,0.008906891951112605
3422.0,0.008906891951112605
3421.0,0.008906891951112605
3420.0,0.008906891951112605
3419.0,0.008862564879688284
3418.0,0.008906891951112605
3417.0,0.008951223547323472
3416.0,0.00908424549391551
3415.0,0.009128595198514056
3414.0,0.009128595198514056
3413.0,0.00908424549391551
3412.0,0.008995559669244813
3411.0,0.008951223547323472
3410.0,0.008951223547323472
3409.0,0.008906891951112605
3408.0,0.008906891951112605
3407.0,0.008862564879688284
3406.0,0.008773924307505121
3405.0,0.0087296108049002
3404.0,0.008685301823389224
3403.0,0.008773924307505121
3402.0,0.008862564879688284
3401.0,0.008906891951112605
3400.0,0.008862564879688284
3399.0,0.0087296108049002
3398.0,0.008596697419959609
3397.0,0.008552401996197112
3396.0,0.008552401996197112
3395.0,0.008640997362049818
3394.0,0.0087296108049002
3393.0,0.008773924307505121
3392.0,0.008773924307505121
3391.0,0.008818242332126802
3390.0,0.008773924307505121
3389.0,0.0087296108049002
3388.0,0.008685301823389224
3387.0,0.008685301823389224
3386.0,0.0087296108049002
3385.0,0.008773924307505121
3384.0,0.008818242332126802
3383.0,0.008773924307505121
3382.0,0.008773924307505121
3381.0,0.0087296108049002
3380.0,0.008685301823389224
3379.0,0.008596697419959609
3378.0,0.008596697419959609
3377.0,0.008596697419959609
3376.0,0.0087296108049002
3375.0,0.008818242332126802
3374.0,0.008818242332126802
3373.0,0.0087296108049002
3372.0,0.008596697419959609
3371.0,0.008463824699968647
3370.0,0.008463824699968647
3369.0,0.008596697419959609
3368.0,0.0087296108049002
3367.0,0.008818242332126802
3366.0,0.008906891951112605
3365.0,0.008951223547323472
3364.0,0.008995559669244813
3363.0,0.008995559669244813
3362.0,0.008951223547323472
3361.0,0.008818242332126802
3360.0,0.008685301823389224
3359.0,0.008596697419959609
3358.0,0.008596697419959609
3357.0,0.008640997362049818
3356.0,0.0087296108049002
3355.0,0.008773924307505121
3354.0,0.0087296108049002
3353.0,0.008685301823389224
3352.0,0.008596697419959609
3351.0,0.008552401996197112
3350.0,0.008552401996197112
3349.0,0.008552401996197112
3348.0,0.00850811108984062
3347.0,0.00850811108984062
3346.0,0.008463824699968647
3345.0,0.00850811108984062
3344.0,0.008552401996197112
3343.0,0.008596697419959609
3342.0,0.008685301823389224
3341.0,0.0087296108049002
3340.0,0.008685301823389224
3339.0,0.008640997362049818
3338.0,0.008552401996197112
3337.0,0.00850811108984062
3336.0,0.008463824699968647
3335.0,0.008419542825660153
3334.0,0.008375265465994541
3333.0,0.008375265465994541
3332.0,0.008375265465994541
3331.0,0.008330992620051436
3330.0,0.008375265465994541
3329.0,0.008375265465994541
3328.0,0.008419542825660153
3327.0,0.008375265465994541
3326.0,0.008330992620051436
3325.0,0.008242460465651913
3324.0,0.008242460465651913
3323.0,0.008198201155356077
3322.0,0.008153946355103248
3321.0,0.008109696063975047
3320.0,0.008065450281052211
3319.0,0.008109696063975047
3318.0,0.008198201155356077
3317.0,0.008286724286910463
3316.0,0.008286724286910463
3315.0,0.008330992620051436
3314.0,0.008330992620051436
3313.0,0.008330992620051436
3312.0,0.008286724286910463
3311.0,0.008198201155356077
3310.0,0.008153946355103248
3309.0,0.008109696063975047
3308.0,0.008021209005416363
3307.0,0.008021209005416363
3306.0,0.008065450281052211
3305.0,0.008198201155356077
3304.0,0.008242460465651913
3303.0,0.008286724286910463
3302.0,0.008198201155356077
3301.0,0.008153946355103248
3300.0,0.008065450281052211
3299.0,0.008065450281052211
3298.0,0.008065450281052211
3297.0,0.008065450281052211
3296.0,0.008021209005416363
3295.0,0.007976972236149349
3294.0,0.007888512213050314
3293.0,0.007755855953228474
3292.0,0.007711646202907652
3291.0,0.007755855953228474
3290.0,0.007844288957383316
3289.0,0.007888512213050314
3288.0,0.007932739972333236
3287.0,0.007976972236149349
3286.0,0.008065450281052211
3285.0,0.008153946355103248
3284.0,0.008286724286910463
3283.0,0.008242460465651913
3282.0,0.008109696063975047
3281.0,0.007932739972333236
3280.0,0.007800070204414977
3279.0,0.007711646202907652
3278.0,0.007711646202907652
3277.0,0.007711646202907652
3276.0,0.007755855953228474
3275.0,0.007755855953228474
3274.0,0.007755855953228474
3273.0,0.007711646202907652
3272.0,0.007667440952535687
3271.0,0.007667440952535687
3270.0,0.007711646202907652
3269.0,0.007800070204414977
3268.0,0.007844288957383316
3267.0,0.007755855953228474
3266.0,0.00762324020119709
3265.0,0.007490664932224611
3264.0,0.0074464821678643656
3263.0,0.007490664932224611
3262.0,0.007490664932224611
3261.0,0.007490664932224611
3260.0,0.0074464821678643656
3259.0,0.0074464821678643656
3258.0,0.007490664932224611
3257.0,0.0075790439479759275
3256.0,0.00762324020119709
3255.0,0.00762324020119709
3254.0,0.007490664932224611
3253.0,0.007313960837872058
3252.0,0.007181479933320523
3251.0,0.007181479933320523
3250.0,0.007225635744644521
3249.0,0.007313960837872058
3248.0,0.007402303897961815
3247.0,0.0074464821678643656
3246.0,0.007490664932224611
3245.0,0.0074464821678643656
3244.0,0.007313960837872058
3243.0,0.007137328610972382
3242.0,0.00696076819309055
3241.0,0.006916639301937977
3240.0,0.007004901568658406
3239.0,0.007093181776687496
3238.0,0.007137328610972382
3237.0,0.007137328610972382
3236.0,0.007093181776687496
3235.0,0.007049039429553483
3234.0,0.006916639301937977
3233.0,0.006828394969235152
3232.0,0.006784279525863024
3231.0,0.006872514894289861
3230.0,0.00696076819309055
3229.0,0.007049039429553483
3228.0,0.007049039429553483
3227.0,0.007049039429553483
3226.0,0.00696076819309055
3225.0,0.006916639301937977
3224.0,0.006916639301937977
3223.0,0.006916639301937977
3222.0,0.007004901568658406
3221.0,0.007049039429553483
3220.0,0.007049039429553483
3219.0,0.007049039429553483
3218.0,0.00696076819309055
3217.0,0.006828394969235152
3216.0,0.006696062080525422
3215.0,0.006651960076740071
3214.0,0.006696062080525422
3213.0,0.006740168563263094
3212.0,0.006828394969235152
3211.0,0.006872514894289861
3210.0,0.00696076819309055
3209.0,0.007004901568658406
3208.0,0.00696076819309055
3207.0,0.006872514894289861
3206.0,0.006740168563263094
3205.0,0.006651960076740071
3204.0,0.00656376950238835
3203.0,0.00656376950238835
3202.0,0.006607862550997545
3201.0,0.006696062080525422
3200.0,0.006740168563263094
3199.0,0.006740168563263094
3198.0,0.006784279525863024
3197.0,0.006740168563263094
3196.0,0.006696062080525422
3195.0,0.00656376950238835
3194.0,0.006475596832934416
3193.0,0.006431517210272464
3192.0,0.006387442061109638
3191.0,0.006343371384537999
3190.0,0.006299305179649828
3189.0,0.00625524344553785
3188.0,0.00625524344553785
3187.0,0.00621118618129457
3186.0,0.006167133386013823
3185.0,0.006167133386013823
3184.0,0.00621118618129457
3183.0,0.00625524344553785
3182.0,0.006299305179649828
3181.0,0.00625524344553785
3180.0,0.00621118618129457
3179.0,0.00621118618129457
3178.0,0.00621118618129457
3177.0,0.00621118618129457
3176.0,0.00621118618129457
3175.0,0.00621118618129457
3174.0,0.006167133386013823
3173.0,0.00621118618129457
3172.0,0.00621118618129457
3171.0,0.00621118618129457
3170.0,0.006167133386013823
3169.0,0.00612308505878878
3168.0,0.006079041198713275
3167.0,0.006079041198713275
3166.0,0.006079041198713275
3165.0,0.006035001804881146
3164.0,0.005990966876386672
3163.0,0.00590291041179003
3162.0,0.005858888873877532
3161.0,0.005858888873877532
3160.0,0.005814871797682919
3159.0,0.005814871797682919
3158.0,0.00577085918230158
3157.0,0.005682847330363394
3156.0,0.005594853310833647
3155.0,0.005594853310833647
3154.0,0.005594853310833647
3153.0,0.005594853310833647
3152.0,0.005594853310833647
3151.0,0.005594853310833647
3150.0,0.005594853310833647
3149.0,0.005682847330363394
3148.0,0.00577085918230158
3147.0,0.005726851026829571
3146.0,0.005682847330363394
3145.0,0.005594853310833647
3144.0,0.005550862985963967
3143.0,0.005506877116487674
3142.0,0.005506877116487674
3141.0,0.005462895701502157
3140.0,0.00541891874010525
3139.0,0.00537494623139545
3138.0,0.00541891874010525
3137.0,0.00541891874010525
3136.0,0.00541891874010525
3135.0,0.00537494623139545
3134.0,0.00537494623139545
3133.0,0.00537494623139545
3132.0,0.005330978174470591
3131.0,0.005330978174470591
3130.0,0.005330978174470591
3129.0,0.005330978174470591
3128.0,0.005330978174470591
3127.0,0.0052870145684298375
3126.0,0.005243055412371911
3125.0,0.005199100705396198
3124.0,0.005199100705396198
3123.0,0.005199100705396198
3122.0,0.005111204635089406
3121.0,0.004979393875242044
3120.0,0.004803708402820517
3119.0,0.004715892310740433
3118.0,0.004715892310740433
3117.0,0.004759798137184523
3116.0,0.004759798137184523
3115.0,0.004759798137184523
3114.0,0.004671990922590297
3113.0,0.004628093971837721
3112.0,0.00458420145758498
3111.0,0.004628093971837721
3110.0,0.004671990922590297
3109.0,0.004803708402820517
3108.0,0.004935465843858511
3107.0,0.005023326350308999
3106.0,0.005023326350308999
3105.0,0.005023326350308999
3104.0,0.004979393875242044
3103.0,0.004935465843858511
3102.0,0.00489154225525934
3101.0,0.00489154225525934
3100.0,0.004935465843858511
3099.0,0.005067263269958211
3098.0,0.005155150446602086
3097.0,0.005199100705396198
3096.0,0.005111204635089406
3095.0,0.004979393875242044
3094.0,0.00489154225525934
3093.0,0.00484762310854614
3092.0,0.00489154225525934
3091.0,0.004935465843858511
3090.0,0.004935465843858511
3089.0,0.00489154225525934
3088.0,0.00484762310854614
3087.0,0.00484762310854614
3086.0,0.00489154225525934
3085.0,0.004935465843858511
3084.0,0.004979393875242044
3083.0,0.004935465843858511
3082.0,0.004935465843858511
3081.0,0.004935465843858511
3080.0,0.004935465843858511
3079.0,0.004935465843858511
3078.0,0.00489154225525934
3077.0,0.004803708402820517
3076.0,0.004671990922590297
3075.0,0.004628093971837721
3074.0,0.004628093971837721
3073.0,0.004628093971837721
3072.0,0.004671990922590297
3071.0,0.004628093971837721
3070.0,0.004540313378935901
3069.0,0.004540313378935901
3068.0,0.004540313378935901
3067.0,0.00458420145758498
3066.0,0.00458420145758498
3065.0,0.004628093971837721
3064.0,0.004715892310740433
3063.0,0.004759798137184523
3062.0,0.004759798137184523
3061.0,0.004715892310740433
3060.0,0.00458420145758498
3059.0,0.004452550524862486
3058.0,0.004408675747646695
3057.0,0.004452550524862486
3056.0,0.004452550524862486
3055.0,0.004408675747646695
3054.0,0.0043648054024501
3053.0,0.004277078004534696
3052.0,0.004233220950025984
3051.0,0.004277078004534696
3050.0,0.004408675747646695
3049.0,0.004452550524862486
3048.0,0.004452550524862486
3047.0,0.004408675747646695
3046.0,0.0043648054024501
3045.0,0.0043648054024501
3044.0,0.0043648054024501
3043.0,0.004408675747646695
3042.0,0.0043648054024501
3041.0,0.0043648054024501
3040.0,0.004320939488377862
3039.0,0.004320939488377862
3038.0,0.004277078004534696
3037.0,0.004233220950025984
3036.0,0.004189368323957332
3035.0,0.004145520125434121
3034.0,0.004145520125434121
3033.0,0.004189368323957332
3032.0,0.004233220950025984
3031.0,0.004189368323957332
3030.0,0.004145520125434121
3029.0,0.0040578370074493275
3028.0,0.00401400208620073
3027.0,0.00401400208620073
3026.0,0.0040578370074493275
3025.0,0.0040578370074493275
3024.0,0.00401400208620073
3023.0,0.003970171588923321
3022.0,0.0038825238627120395
3021.0,0.0038387066319929275
3020.0,0.003794893821675638
3019.0,0.003794893821675638
3018.0,0.0037510854308679953
3017.0,0.0036634819042162814
3016.0,0.0035758960449088217
3015.0,0.003488327845821315
3014.0,0.003488327845821315
3013.0,0.0035321097382827737
3012.0,0.003488327845821315
3011.0,0.0034007772998332353
3010.0,0.0033132443998284966
3009.0,0.0032694845648473247
3008.0,0.0032694845648473247
3007.0,0.0032694845648473247
3006.0,0.0032694845648473247
3005.0,0.0032257291386954545
3004.0,0.0031819781204844855
3003.0,0.0030944893043338695
3002.0,0.003050751504618754
3001.0,0.003050751504618754
3000.0,0.0030944893043338695
2999.0,0.003050751504618754
2998.0,0.0030070181092942683
2997.0,0.0029632891174733444
2996.0,0.0029195645282691363
2995.0,0.0028758443407954637
2994.0,0.0029195645282691363
2993.0,0.0029195645282691363
2992.0,0.0029632891174733444
2991.0,0.0030070181092942683
2990.0,0.0030944893043338695
2989.0,0.0031819781204844855
2988.0,0.0032694845648473247
2987.0,0.0033132443998284966
2986.0,0.0033132443998284966
2985.0,0.0033132443998284966
2984.0,0.0032694845648473247
2983.0,0.0032694845648473247
2982.0,0.0033132443998284966
2981.0,0.0034007772998332353
2980.0,0.0035758960449088217
2979.0,0.0037510854308679953
2978.0,0.003926345514724705
2977.0,0.004101676353562844
2976.0,0.004233220950025984
2975.0,0.004408675747646695
2974.0,0.00458420145758498
2973.0,0.004759798137184523
2972.0,0.005023326350308999
2971.0,0.00537494623139545
2970.0,0.00577085918230158
2969.0,0.006167133386013823
2968.0,0.006475596832934416
2967.0,0.006828394969235152
2966.0,0.007181479933320523
2965.0,0.007534852191956709
2964.0,0.007888512213050314
2963.0,0.008286724286910463
2962.0,0.008685301823389224
2961.0,0.009172949432521227
2960.0,0.00966114521239847
2959.0,0.010105436281226954
2958.0,0.010550182333308289
2957.0,0.010950843561779777
2956.0,0.011351874764248926
2955.0,0.011753276624621556
2954.0,0.012244383261476699
2953.0,0.012780770091995297
2952.0,0.013362604389846044
2951.0,0.013990068146738865
2950.0,0.014708281407112
2949.0,0.015607721475734415
2948.0,0.016689514205884493
2947.0,0.018045555530026514
2946.0,0.019632973815224997
2945.0,0.021499930688540836
2944.0,0.02365002099672653
2943.0,0.026087429580295085
2942.0,0.02872415126189476
2941.0,0.031563752288295444
2940.0,0.03470420418834386
2939.0,0.03810452633214956
2938.0,0.04186632432376469
2937.0,0.046047116768076934
2936.0,0.0506099933550872
2935.0,0.055566682299785564
2934.0,0.06083032037482261
2933.0,0.06646209802829528
2932.0,0.07242434530888953
2931.0,0.07878187880504961
2930.0,0.08570974433405087
2929.0,0.09323411045927221
2928.0,0.10149421446564144
2927.0,0.11053021603049262
2926.0,0.12044539906102569
2925.0,0.13123804178794973
2924.0,0.14296920172737604
2923.0,0.15552282425431851
2922.0,0.1685141607513425
2921.0,0.18164212204164532
2920.0,0.19422736806433094
2919.0,0.2054422487452383
2918.0,0.21438547505317596
2917.0,0.22025924882325953
2916.0,0.22242819530859004
2915.0,0.22112552799726037
2914.0,0.21681130892474232
2913.0,0.2104897959097456
2912.0,0.20300960945431368
2911.0,0.19504320014250842
2910.0,0.18722029299103604
2909.0,0.17979854051435984
2908.0,0.17288931253398876
2907.0,0.16659787076814148
2906.0,0.16089921729284673
2905.0,0.15577141869837208
2904.0,0.15119529894819617
2903.0,0.1471541819850033
2902.0,0.14357322752975565
2901.0,0.14032142337155173
2900.0,0.13727247168202528
2899.0,0.13442229258007088
2898.0,0.13159069668503998
2897.0,0.12883586719705065
2896.0,0.1260984021355387
2895.0,0.12343578601615435
2894.0,0.1207893947082408
2893.0,0.11804502866039956
2892.0,0.11526126223036814
2891.0,0.11238269966426384
2890.0,0.10935546370475246
2889.0,0.1062937069352865
2888.0,0.10319830233507843
2887.0,0.10001543745060903
2886.0,0.09685572959046151
2885.0,0.09366495819490939
2884.0,0.09039048950983108
2883.0,0.08719360733870762
2882.0,0.0839147001562972
2881.0,0.08066036321258663
2880.0,0.07743023101428781
2879.0,0.07422394616325367
2878.0,0.0709900145060387
2877.0,0.06788152797087754
2876.0,0.06504729218214189
2875.0,0.06243196139961715
2874.0,0.060131455540490375
2873.0,0.05804158346918653
2872.0,0.05620880107069848
2871.0,0.05458065739693696
2870.0,0.053203972728539606
2869.0,0.05212534510230182
2868.0,0.05144033789103841
2867.0,0.051098239029786274
2866.0,0.05129369109514803
2865.0,0.052027420754219955
2864.0,0.053449489430144714
2863.0,0.05561604235915585
2862.0,0.05868737463933793
2861.0,0.06278310913729457
2860.0,0.06803388527182741
2859.0,0.07463633264589853
2858.0,0.08275714209253371
2857.0,0.09258863922541383
2856.0,0.10435649517592083
2855.0,0.1183871275216517
2854.0,0.13477754370982087
2853.0,0.15323004646278116
2852.0,0.17256610459922084
2851.0,0.19057497120296585
2850.0,0.2046066650687106
2849.0,0.21232703531250707
2848.0,0.21282300752944616
2847.0,0.20683847075444928
2846.0,0.1962698290254561
2845.0,0.1831623690979649
2844.0,0.16921892439363884
2843.0,0.15552282425431851
2842.0,0.14284849731250704
2841.0,0.13141433344123432
2840.0,0.12142076193778073
2839.0,0.11277666863747693
2838.0,0.10535169620648288
2837.0,0.09892328427374508
2836.0,0.09334178232840018
2835.0,0.08857603462370545
2834.0,0.08438913733853282
2833.0,0.08071265949561734
2832.0,0.07748213975538865
2831.0,0.07458476291575367
2830.0,0.0720140529005715
2829.0,0.06966236426227002
2828.0,0.06747550294945781
2827.0,0.06545105233385295
2826.0,0.06353652599525317
2825.0,0.061830653609679764
2824.0,0.06033101647767336
2823.0,0.058936011780097886
2822.0,0.05769424710410598
2821.0,0.056456022846545606
2820.0,0.055270639696704205
2819.0,0.054186873412661596
2818.0,0.053203972728539606
2817.0,0.05227227303668425
2816.0,0.05139145012356372
2815.0,0.05051241005349638
2814.0,0.04973253198641148
2813.0,0.048954051864180226
2812.0,0.04817696468408794
2811.0,0.04744970610179822
2810.0,0.04667530361081473
2809.0,0.04595055323640551
2808.0,0.04522701031028298
2807.0,0.04460091336073302
2806.0,0.04402377775167454
2805.0,0.0435434165901003
2804.0,0.043063586155803746
2803.0,0.04253638427006878
2802.0,0.042057664554595586
2801.0,0.04153168163305643
2800.0,0.04105406750606355
2799.0,0.04057697805689475
2798.0,0.04014804520039483
2797.0,0.039719535563357944
2796.0,0.03924390909822728
2795.0,0.038816290187564384
2794.0,0.038436537637930535
2793.0,0.038057116858612794
2792.0,0.03767802727041558
2791.0,0.037251946641359446
2790.0,0.03682628362474838
2789.0,0.036401037402758574
2788.0,0.03597620715996652
2787.0,0.03559892883726867
2786.0,0.03526907894637077
2785.0,0.03498654972775217
2784.0,0.03465716443937783
2783.0,0.03432802877989327
2782.0,0.033952178923546183
2781.0,0.03357665405630694
2780.0,0.0332483359486222
2779.0,0.0329671178412978
2778.0,0.032686081712916426
2777.0,0.03235843591698884
2776.0,0.03207779326948268
2775.0,0.03179733185715028
2774.0,0.03151705144606498
2773.0,0.031236951802751545
2772.0,0.030957032694186815
2771.0,0.0307239045110681
2770.0,0.030490901403433135
2769.0,0.030211462585061133
2768.0,0.029978734171634214
2767.0,0.029792641193145286
2766.0,0.029653123769906697
2765.0,0.029513651152349718
2764.0,0.02932775731028059
2763.0,0.029188389127482228
2762.0,0.02904906565457588
2761.0,0.028956208163971375
2760.0,0.028863370523193765
2759.0,0.02872415126189476
2758.0,0.02858497661500481
2757.0,0.02839947976994095
2756.0,0.028167720075074953
2755.0,0.02798240132598462
2754.0,0.027797161620935595
2753.0,0.0277045713888604
2752.0,0.027565723042634938
2751.0,0.02738066094037661
2750.0,0.02724191609646076
2749.0,0.02710321556345563
2748.0,0.027056991894431892
2747.0,0.027010773144651168
2746.0,0.02696455931306696
2745.0,0.02682594731702781
2744.0,0.02664120011360227
2743.0,0.026456531467510258
2742.0,0.026318081496016443
2741.0,0.02617967564731627
2740.0,0.02613355016462182
2739.0,0.026087429580295085
2738.0,0.026087429580295085
2737.0,0.025995203102585407
2736.0,0.025902996205869
2735.0,0.025810808881832736
2734.0,0.025764722556973707
2733.0,0.025718641122169483
2732.0,0.02562649291857677
2731.0,0.02553436426275746
2730.0,0.02539620791296726
2729.0,0.025258095499050004
2728.0,0.02516604495145991
2727.0,0.025028005701930978
2726.0,0.024890010313838973
2725.0,0.02475205875931885
2724.0,0.02461415101053266
2723.0,0.024522236834125355
2722.0,0.024430342106337877
2721.0,0.02438440203310499
2720.0,0.024338466818941473
2719.0,0.024246610963712723
2718.0,0.024108863598207186
2717.0,0.024017056287453542
2716.0,0.023925268380126097
2715.0,0.023787622882622816
2714.0,0.023695883447997224
2713.0,0.02365002099672653
2712.0,0.023604163388120325
2711.0,0.023604163388120325
2710.0,0.023604163388120325
2709.0,0.02355831062115543
2708.0,0.023466619608062178
2707.0,0.02342078135989012
2706.0,0.023374947949272418
2705.0,0.023329119375188556
2704.0,0.023237476732539397
2703.0,0.02314585342378117
2702.0,0.02300845469384938
2701.0,0.02282532397981263
2700.0,0.022733787572707387
2699.0,0.022642270454698687
2698.0,0.02259651912656535
2697.0,0.02255077261765881
2696.0,0.02245929405346514
2695.0,0.022367834754000393
2694.0,0.022322112326006227
2693.0,0.022230681908425698
2692.0,0.022139270735302752
2691.0,0.02200219004126036
2690.0,0.021910826943857264
2689.0,0.021819483062586187
2688.0,0.021773818325474092
2687.0,0.021819483062586187
2686.0,0.021819483062586187
2685.0,0.021865152601710403
2684.0,0.021865152601710403
2683.0,0.021819483062586187
2682.0,0.021773818325474092
2681.0,0.021773818325474092
2680.0,0.021773818325474092
2679.0,0.021819483062586187
2678.0,0.021819483062586187
2677.0,0.021819483062586187
2676.0,0.021819483062586187
2675.0,0.021819483062586187
2674.0,0.021865152601710403
2673.0,0.021910826943857264
2672.0,0.021956506090037076
2671.0,0.02200219004126036
2670.0,0.02200219004126036
2669.0,0.02200219004126036
2668.0,0.02200219004126036
2667.0,0.021956506090037076
2666.0,0.021910826943857264
2665.0,0.021910826943857264
2664.0,0.021865152601710403
2663.0,0.021819483062586187
2662.0,0.021773818325474092
2661.0,0.021728158389364705
2660.0,0.021773818325474092
2659.0,0.021819483062586187
2658.0,0.021910826943857264
2657.0,0.02200219004126036
2656.0,0.02200219004126036
2655.0,0.021956506090037076
2654.0,0.021910826943857264
2653.0,0.021865152601710403
2652.0,0.021773818325474092
2651.0,0.02168250325324883
2650.0,0.02159120737696063
2649.0,0.021499930688540836
2648.0,0.0214542995372613
2647.0,0.02140867317992523
2646.0,0.0214542995372613
2645.0,0.021499930688540836
2644.0,0.021545566634771474
2643.0,0.021545566634771474
2642.0,0.021545566634771474
2641.0,0.02159120737696063
2640.0,0.02159120737696063
2639.0,0.021636852916117055
2638.0,0.021636852916117055
2637.0,0.021636852916117055
2636.0,0.021636852916117055
2635.0,0.021636852916117055
2634.0,0.02159120737696063
2633.0,0.02159120737696063
2632.0,0.021545566634771474
2631.0,0.021499930688540836
2630.0,0.02140867317992523
2629.0,0.021317434843055594
2628.0,0.0211806132671577
2627.0,0.021043834782408455
2626.0,0.020907099361673565
2625.0,0.020724852408976924
2624.0,0.02058821736556471
2623.0,0.020542681902151694
2622.0,0.020542681902151694
2621.0,0.020497151212598652
2620.0,0.02045162529590483
2619.0,0.02036058777709271
2618.0,0.02026956933771462
2617.0,0.020178569969774962
2616.0,0.020087589665283012
2615.0,0.019996628416253603
2614.0,0.01990568621470623
2613.0,0.019814763052665052
2612.0,0.019769308608968306
2611.0,0.019723858922159776
2610.0,0.019723858922159776
2609.0,0.019678413991243593
2608.0,0.019632973815224997
2607.0,0.01954210772389997
2606.0,0.019451260640229506
2605.0,0.019360432556262852
2604.0,0.019269623464054586
2603.0,0.0192242260373785
2602.0,0.019133445417920836
2601.0,0.019133445417920836
2600.0,0.0190880622231564
2599.0,0.0190880622231564
2598.0,0.019042683770379876
2597.0,0.01899731005860028
2596.0,0.018951941086827073
2595.0,0.018861217359339655
2594.0,0.018770512579999288
2593.0,0.018725167293411005
2592.0,0.018634490921455527
2591.0,0.01858915983411169
2590.0,0.018543833477873584
2589.0,0.018498511851753108
2588.0,0.01845319495476394
2587.0,0.01840788278591865
2586.0,0.018362575344230914
2585.0,0.01831727262871463
2584.0,0.018226681372252695
2583.0,0.018136109008649592
2582.0,0.018045555530026514
2581.0,0.017909760704207134
2580.0,0.017864505196230507
2579.0,0.017774008325325275
2578.0,0.017728766960431575
2577.0,0.01768353030793479
2576.0,0.01768353030793479
2575.0,0.017638298366853045
2574.0,0.01759307113620534
2573.0,0.01759307113620534
2572.0,0.017547848615010242
2571.0,0.017502630802287644
2570.0,0.017457417697056554
2569.0,0.017367005605150476
2568.0,0.017367005605150476
2567.0,0.017321806616515723
2566.0,0.017367005605150476
2565.0,0.017412209298337533
2564.0,0.017412209298337533
2563.0,0.017367005605150476
2562.0,0.017321806616515723
2561.0,0.017321806616515723
2560.0,0.01727661233145472
2559.0,0.017186237868137555
2558.0,0.017095882207371904
2557.0,0.017095882207371904
2556.0,0.017095882207371904
2555.0,0.017050711425501408
2554.0,0.017005545341335804
2553.0,0.017005545341335804
2552.0,0.016960383953898095
2551.0,0.016960383953898095
2550.0,0.016915227262211507
2549.0,0.016870075265299933
2548.0,0.016734647433454652
2547.0,0.016644385668211692
2546.0,0.016644385668211692
2545.0,0.016644385668211692
2544.0,0.016644385668211692
2543.0,0.016599261819461697
2542.0,0.016554142658660398
2541.0,0.016509028184833463
2540.0,0.016554142658660398
2539.0,0.016554142658660398
2538.0,0.016509028184833463
2537.0,0.01646391839700767
2536.0,0.016418813294209356
2535.0,0.016373712875465518
2534.0,0.01632861713980338
2533.0,0.01632861713980338
2532.0,0.016373712875465518
2531.0,0.016373712875465518
2530.0,0.016373712875465518
2529.0,0.016373712875465518
2528.0,0.01628352608625061
2527.0,0.016238439713835096
2526.0,0.016148281008528276
2525.0,0.016103208673694303
2524.0,0.016058141016111804
2523.0,0.016058141016111804
2522.0,0.016013078034810446
2521.0,0.016013078034810446
2520.0,0.016013078034810446
2519.0,0.016013078034810446
2518.0,0.01596801972881945
2517.0,0.01596801972881945
2516.0,0.015877917138889863
2515.0,0.015832872853011715
2514.0,0.01578783323856614
2513.0,0.015742798294583915
2512.0,0.015652742414136167
2511.0,0.015562705203923999
2510.0,0.015517693597737248
2509.0,0.015562705203923999
2508.0,0.015607721475734415
2507.0,0.015697768020096703
2506.0,0.015697768020096703
2505.0,0.015697768020096703
2504.0,0.015652742414136167
2503.0,0.015607721475734415
2502.0,0.015562705203923999
2501.0,0.015517693597737248
2500.0,0.015517693597737248
2499.0,0.01547268665620738
2498.0,0.015427684378367834
2497.0,0.015427684378367834
2496.0,0.01538268676325183
2495.0,0.01538268676325183
2494.0,0.015337693809893471
2493.0,0.015337693809893471
2492.0,0.015337693809893471
2491.0,0.015337693809893471
2490.0,0.015337693809893471
2489.0,0.015337693809893471
2488.0,0.015337693809893471
2487.0,0.015292705517326866
2486.0,0.015202742910707112
2485.0,0.015157768594724175
2484.0,0.015112798935672522
2483.0,0.015067833932588037
2482.0,0.015067833932588037
2481.0,0.015112798935672522
2480.0,0.015112798935672522
2479.0,0.015157768594724175
2478.0,0.015157768594724175
2477.0,0.015202742910707112
2476.0,0.015247721884586563
2475.0,0.015292705517326866
2474.0,0.015337693809893471
2473.0,0.015337693809893471
2472.0,0.015292705517326866
2471.0,0.015202742910707112
2470.0,0.015067833932588037
2469.0,0.014977917890464765
2468.0,0.014932966849499074
2467.0,0.014932966849499074
2466.0,0.014932966849499074
2465.0,0.014888020460646079
2464.0,0.014843078722943437
2463.0,0.014798141635428141
2462.0,0.014753209197138295
2461.0,0.014753209197138295
2460.0,0.014798141635428141
2459.0,0.014843078722943437
2458.0,0.014888020460646079
2457.0,0.014843078722943437
2456.0,0.014798141635428141
2455.0,0.014753209197138295
2454.0,0.014798141635428141
2453.0,0.014798141635428141
2452.0,0.014843078722943437
2451.0,0.014798141635428141
2450.0,0.014753209197138295
2449.0,0.014708281407112
2448.0,0.014663358264387139
2447.0,0.014618439768003144
2446.0,0.014663358264387139
2445.0,0.014708281407112
2444.0,0.014708281407112
2443.0,0.014663358264387139
2442.0,0.014573525916998342
2441.0,0.0144837121472845
2440.0,0.014393916947563534
2439.0,0.014393916947563534
2438.0,0.014349026309051105
2437.0,0.014393916947563534
2436.0,0.014393916947563534
2435.0,0.014438812226654996
2434.0,0.014438812226654996
2433.0,0.014438812226654996
2432.0,0.014393916947563534
2431.0,0.014349026309051105
2430.0,0.014349026309051105
2429.0,0.014349026309051105
2428.0,0.014393916947563534
2427.0,0.014438812226654996
2426.0,0.014438812226654996
2425.0,0.014438812226654996
2424.0,0.014438812226654996
2423.0,0.014393916947563534
2422.0,0.014349026309051105
2421.0,0.014349026309051105
2420.0,0.014393916947563534
2419.0,0.014438812226654996
2418.0,0.014438812226654996
2417.0,0.014438812226654996
2416.0,0.014393916947563534
2415.0,0.014304140310157809
2414.0,0.014304140310157809
2413.0,0.014304140310157809
2412.0,0.014304140310157809
2411.0,0.014349026309051105
2410.0,0.014349026309051105
2409.0,0.014349026309051105
2408.0,0.014349026309051105
2407.0,0.014304140310157809
2406.0,0.014304140310157809
2405.0,0.014304140310157809
2404.0,0.014304140310157809
2403.0,0.014349026309051105
2402.0,0.014393916947563534
2401.0,0.014393916947563534
2400.0,0.014393916947563534
2399.0,0.014349026309051105
2398.0,0.014304140310157809
2397.0,0.014349026309051105
2396.0,0.014349026309051105
2395.0,0.014349026309051105
2394.0,0.014259258949925524
2393.0,0.014124642691606404
2392.0,0.013990068146738865
2391.0,0.013900374944870508
2390.0,0.01385553528947936
2389.0,0.013900374944870508
2388.0,0.013990068146738865
2387.0,0.01403492169512921
2386.0,0.014079779876432497
2385.0,0.01403492169512921
2384.0,0.013945219230304673
2383.0,0.01381070026317599
2382.0,0.01372104409400876
2381.0,0.013496984613259544
2380.0,0.01322826573375524
2379.0,0.012825498912458322
2378.0,0.012467797270160563
2377.0,0.012289056869694281
2376.0,0.012244383261476699
2375.0,0.012378417874516323
2374.0,0.012557195064198723
2373.0,0.012780770091995297
2372.0,0.013004460275618523
2371.0,0.01318349541446362
2370.0,0.013407393177789162
2369.0,0.013631406429727155
2368.0,0.013765869865004277
2367.0,0.013541787262693505
2366.0,0.01318349541446362
2365.0,0.013093968619278806
2364.0,0.013452186585275916
2363.0,0.01385553528947936
2362.0,0.01381070026317599
2361.0,0.01322826573375524
2360.0,0.012467797270160563
2359.0,0.011842527443247208
2358.0,0.011619434777991433
2357.0,0.011664044143949504
2356.0,0.011887159731648111
2355.0,0.01215504982870197
2354.0,0.012512493866907004
2353.0,0.012870232340102872
2352.0,0.013138729709955221
2351.0,0.013317820220494436
2350.0,0.013317820220494436
2349.0,0.013093968619278806
2348.0,0.012780770091995297
2347.0,0.012557195064198723
2346.0,0.01260190086298274
2345.0,0.013049212141483357
2344.0,0.013496984613259544
2343.0,0.013586594534531482
2342.0,0.013317820220494436
2341.0,0.012914970375878188
2340.0,0.012691326268817527
2339.0,0.012780770091995297
2338.0,0.012959713020733288
2337.0,0.013093968619278806
2336.0,0.013093968619278806
2335.0,0.013049212141483357
2334.0,0.012914970375878188
2333.0,0.012691326268817527
2332.0,0.012423105273012602
2331.0,0.012244383261476699
2330.0,0.012423105273012602
2329.0,0.012959713020733288
2328.0,0.013676222949234651
2327.0,0.014214382227394795
2326.0,0.014259258949925524
2325.0,0.013900374944870508
2324.0,0.013407393177789162
2323.0,0.013004460275618523
2322.0,0.012825498912458322
2321.0,0.012914970375878188
2320.0,0.01318349541446362
2319.0,0.013541787262693505
2318.0,0.013945219230304673
2317.0,0.014169510141607944
2316.0,0.014214382227394795
2315.0,0.014079779876432497
2314.0,0.013945219230304673
2313.0,0.01385553528947936
2312.0,0.01381070026317599
2311.0,0.01385553528947936
2310.0,0.013945219230304673
2309.0,0.01403492169512921
2308.0,0.014169510141607944
2307.0,0.014214382227394795
2306.0,0.014169510141607944
2305.0,0.014079779876432497
2304.0,0.014124642691606404
2303.0,0.014214382227394795
2302.0,0.014349026309051105
2301.0,0.0144837121472845
2300.0,0.014573525916998342
2299.0,0.014573525916998342
2298.0,0.01452861671041239
2297.0,0.0144837121472845
2296.0,0.014438812226654996
2295.0,0.014393916947563534
2294.0,0.014349026309051105
2293.0,0.014259258949925524
2292.0,0.014214382227394795
2291.0,0.014124642691606404
2290.0,0.01403492169512921
2289.0,0.013990068146738865
2288.0,0.013945219230304673
2287.0,0.013945219230304673
2286.0,0.013945219230304673
2285.0,0.013990068146738865
2284.0,0.013945219230304673
2283.0,0.013900374944870508
2282.0,0.01381070026317599
2281.0,0.013765869865004277
2280.0,0.013765869865004277
2279.0,0.013765869865004277
2278.0,0.01381070026317599
2277.0,0.01381070026317599
2276.0,0.013765869865004277
2275.0,0.013765869865004277
2274.0,0.013765869865004277
2273.0,0.01381070026317599
2272.0,0.01381070026317599
2271.0,0.01372104409400876
2270.0,0.013586594534531482
2269.0,0.013496984613259544
2268.0,0.013496984613259544
2267.0,0.013541787262693505
2266.0,0.013631406429727155
2265.0,0.013676222949234651
2264.0,0.013631406429727155
2263.0,0.013586594534531482
2262.0,0.013496984613259544
2261.0,0.013407393177789162
2260.0,0.013362604389846044
2259.0,0.013273040668781544
2258.0,0.01318349541446362
2257.0,0.01318349541446362
2256.0,0.01322826573375524
2255.0,0.013273040668781544
2254.0,0.013317820220494436
2253.0,0.013317820220494436
2252.0,0.013317820220494436
2251.0,0.013362604389846044
2250.0,0.013362604389846044
2249.0,0.013362604389846044
2248.0,0.013362604389846044
2247.0,0.013407393177789162
2246.0,0.013407393177789162
2245.0,0.013407393177789162
2244.0,0.013362604389846044
2243.0,0.013362604389846044
2242.0,0.013407393177789162
2241.0,0.013452186585275916
2240.0,0.013452186585275916
2239.0,0.013407393177789162
2238.0,0.013317820220494436
2237.0,0.01322826573375524
2236.0,0.013138729709955221
2235.0,0.013093968619278806
2234.0,0.013093968619278806
2233.0,0.013049212141483357
2232.0,0.013049212141483357
2231.0,0.013049212141483357
2230.0,0.013049212141483357
2229.0,0.013049212141483357
2228.0,0.013093968619278806
2227.0,0.013138729709955221
2226.0,0.01318349541446362
2225.0,0.01322826573375524
2224.0,0.013273040668781544
2223.0,0.013273040668781544
2222.0,0.013273040668781544
2221.0,0.013273040668781544
2220.0,0.01322826573375524
2219.0,0.01318349541446362
2218.0,0.01318349541446362
2217.0,0.01318349541446362
2216.0,0.01322826573375524
2215.0,0.01318349541446362
2214.0,0.013138729709955221
2213.0,0.013138729709955221
2212.0,0.013138729709955221
2211.0,0.01318349541446362
2210.0,0.01318349541446362
2209.0,0.013138729709955221
2208.0,0.013093968619278806
2207.0,0.013049212141483357
2206.0,0.012959713020733288
2205.0,0.012914970375878188
2204.0,0.012914970375878188
2203.0,0.012914970375878188
2202.0,0.012959713020733288
2201.0,0.013004460275618523
2200.0,0.013004460275618523
2199.0,0.013004460275618523
2198.0,0.012959713020733288
2197.0,0.013004460275618523
2196.0,0.013049212141483357
2195.0,0.013049212141483357
2194.0,0.013049212141483357
2193.0,0.013004460275618523
2192.0,0.012914970375878188
2191.0,0.012914970375878188
2190.0,0.012914970375878188
2189.0,0.012959713020733288
2188.0,0.013004460275618523
2187.0,0.013004460275618523
2186.0,0.012959713020733288
2185.0,0.012914970375878188
2184.0,0.012914970375878188
2183.0,0.012914970375878188
2182.0,0.012914970375878188
2181.0,0.012914970375878188
2180.0,0.012914970375878188
2179.0,0.012914970375878188
2178.0,0.012914970375878188
2177.0,0.012914970375878188
2176.0,0.012914970375878188
2175.0,0.012959713020733288
2174.0,0.013004460275618523
2173.0,0.013093968619278806
2172.0,0.013093968619278806
2171.0,0.013093968619278806
2170.0,0.013049212141483357
2169.0,0.012959713020733288
2168.0,0.012914970375878188
2167.0,0.012914970375878188
2166.0,0.012914970375878188
2165.0,0.012959713020733288
2164.0,0.013004460275618523
2163.0,0.013004460275618523
2162.0,0.013004460275618523
2161.0,0.013004460275618523
2160.0,0.012959713020733288
2159.0,0.012914970375878188
2158.0,0.012870232340102872
2157.0,0.012914970375878188
2156.0,0.012914970375878188
2155.0,0.012959713020733288
2154.0,0.013004460275618523
2153.0,0.013049212141483357
2152.0,0.013093968619278806
2151.0,0.013093968619278806
2150.0,0.013093968619278806
2149.0,0.013049212141483357
2148.0,0.013049212141483357
2147.0,0.013004460275618523
2146.0,0.013004460275618523
2145.0,0.013049212141483357
2144.0,0.013093968619278806
2143.0,0.013093968619278806
2142.0,0.013049212141483357
2141.0,0.013004460275618523
2140.0,0.012959713020733288
2139.0,0.012914970375878188
2138.0,0.012914970375878188
2137.0,0.012914970375878188
2136.0,0.012914970375878188
2135.0,0.012870232340102872
2134.0,0.012825498912458322
2133.0,0.012736045877764557
2132.0,0.012736045877764557
2131.0,0.012691326268817527
2130.0,0.012736045877764557
2129.0,0.012736045877764557
2128.0,0.012736045877764557
2127.0,0.012736045877764557
2126.0,0.012780770091995297
2125.0,0.012780770091995297
2124.0,0.012691326268817527
2123.0,0.01260190086298274
2122.0,0.012557195064198723
2121.0,0.012512493866907004
2120.0,0.012512493866907004
2119.0,0.012467797270160563
2118.0,0.012467797270160563
2117.0,0.012467797270160563
2116.0,0.012512493866907004
2115.0,0.012557195064198723
2114.0,0.01260190086298274
2113.0,0.012557195064198723
2112.0,0.012467797270160563
2111.0,0.012378417874516323
2110.0,0.012333735073725371
2109.0,0.012333735073725371
2108.0,0.012378417874516323
2107.0,0.012423105273012602
2106.0,0.012467797270160563
2105.0,0.012512493866907004
2104.0,0.012557195064198723
2103.0,0.01264661126420652
2102.0,0.012691326268817527
2101.0,0.012736045877764557
2100.0,0.012736045877764557
2099.0,0.01264661126420652
2098.0,0.012557195064198723
2097.0,0.012512493866907004
2096.0,0.012557195064198723
2095.0,0.01264661126420652
2094.0,0.012736045877764557
2093.0,0.012736045877764557
2092.0,0.01264661126420652
2091.0,0.01260190086298274
2090.0,0.01260190086298274
2089.0,0.01260190086298274
2088.0,0.012557195064198723
2087.0,0.012557195064198723
2086.0,0.01260190086298274
2085.0,0.01260190086298274
2084.0,0.01260190086298274
2083.0,0.012557195064198723
2082.0,0.012512493866907004
2081.0,0.012512493866907004
2080.0,0.012512493866907004
2079.0,0.012512493866907004
2078.0,0.012467797270160563
2077.0,0.012467797270160563
2076.0,0.012423105273012602
2075.0,0.012423105273012602
2074.0,0.012423105273012602
2073.0,0.012423105273012602
2072.0,0.012423105273012602
2071.0,0.012423105273012602
2070.0,0.012378417874516323
2069.0,0.012333735073725371
2068.0,0.012333735073725371
2067.0,0.012333735073725371
2066.0,0.012378417874516323
2065.0,0.012423105273012602
2064.0,0.012467797270160563
2063.0,0.012423105273012602
2062.0,0.012423105273012602
2061.0,0.012423105273012602
2060.0,0.012467797270160563
2059.0,0.012512493866907004
2058.0,0.01260190086298274
2057.0,0.01264661126420652
2056.0,0.01264661126420652
2055.0,0.01264661126420652
2054.0,0.01260190086298274
2053.0,0.012557195064198723
2052.0,0.012557195064198723
2051.0,0.012557195064198723
2050.0,0.01260190086298274
2049.0,0.01264661126420652
2048.0,0.01264661126420652
2047.0,0.01260190086298274
2046.0,0.012557195064198723
2045.0,0.012512493866907004
2044.0,0.012512493866907004
2043.0,0.012557195064198723
2042.0,0.01260190086298274
2041.0,0.01264661126420652
2040.0,0.01264661126420652
2039.0,0.01260190086298274
2038.0,0.01260190086298274
2037.0,0.01264661126420652
2036.0,0.012736045877764557
2035.0,0.012780770091995297
2034.0,0.012780770091995297
2033.0,0.012825498912458322
2032.0,0.012870232340102872
2031.0,0.012914970375878188
2030.0,0.012914970375878188
2029.0,0.012914970375878188
2028.0,0.012870232340102872
2027.0,0.012870232340102872
2026.0,0.012914970375878188
2025.0,0.012959713020733288
2024.0,0.013049212141483357
2023.0,0.013093968619278806
2022.0,0.013138729709955221
2021.0,0.013138729709955221
2020.0,0.013093968619278806
2019.0,0.013004460275618523
2018.0,0.012959713020733288
2017.0,0.012914970375878188
2016.0,0.012870232340102872
2015.0,0.012870232340102872
2014.0,0.012870232340102872
2013.0,0.012825498912458322
2012.0,0.012736045877764557
2011.0,0.01264661126420652
2010.0,0.012557195064198723
2009.0,0.012512493866907004
2008.0,0.012467797270160563
2007.0,0.012467797270160563
2006.0,0.012467797270160563
2005.0,0.012512493866907004
2004.0,0.012512493866907004
2003.0,0.012467797270160563
2002.0,0.012423105273012602
2001.0,0.012423105273012602
2000.0,0.012423105273012602
1999.0,0.012423105273012602
1998.0,0.012423105273012602
1997.0,0.012423105273012602
1996.0,0.012378417874516323
1995.0,0.012333735073725371
1994.0,0.012289056869694281
1993.0,0.012244383261476699
1992.0,0.012244383261476699
1991.0,0.012289056869694281
1990.0,0.012289056869694281
1989.0,0.012289056869694281
1988.0,0.012289056869694281
1987.0,0.012244383261476699
1986.0,0.012199714248127602
1985.0,0.012199714248127602
1984.0,0.012199714248127602
1983.0,0.012244383261476699
1982.0,0.012244383261476699
1981.0,0.012289056869694281
1980.0,0.012289056869694281
1979.0,0.012244383261476699
1978.0,0.012244383261476699
1977.0,0.012199714248127602
1976.0,0.01215504982870197
1975.0,0.012110390002254778
1974.0,0.012065734767841452
1973.0,0.012065734767841452
1972.0,0.012110390002254778
1971.0,0.012110390002254778
1970.0,0.012110390002254778
1969.0,0.012110390002254778
1968.0,0.012065734767841452
1967.0,0.012021084124518078
1966.0,0.0119764380713403
1965.0,0.0119764380713403
1964.0,0.0119764380713403
1963.0,0.012021084124518078
1962.0,0.012110390002254778
1961.0,0.012199714248127602
1960.0,0.012244383261476699
1959.0,0.012289056869694281
1958.0,0.012244383261476699
1957.0,0.012199714248127602
1956.0,0.01215504982870197
1955.0,0.01215504982870197
1954.0,0.01215504982870197
1953.0,0.012110390002254778
1952.0,0.012110390002254778
1951.0,0.01215504982870197
1950.0,0.012199714248127602
1949.0,0.012199714248127602
1948.0,0.012199714248127602
1947.0,0.01215504982870197
1946.0,0.012110390002254778
1945.0,0.012065734767841452
1944.0,0.012065734767841452
1943.0,0.012021084124518078
1942.0,0.011931796607364653
1941.0,0.011931796607364653
1940.0,0.011931796607364653
1939.0,0.011931796607364653
1938.0,0.0119764380713403
1937.0,0.011931796607364653
1936.0,0.011931796607364653
1935.0,0.011931796607364653
1934.0,0.012021084124518078
1933.0,0.012065734767841452
1932.0,0.012110390002254778
1931.0,0.012065734767841452
1930.0,0.012021084124518078
1929.0,0.0119764380713403
1928.0,0.0119764380713403
1927.0,0.0119764380713403
1926.0,0.0119764380713403
1925.0,0.011931796607364653
1924.0,0.011887159731648111
1923.0,0.011842527443247208
1922.0,0.011842527443247208
1921.0,0.011887159731648111
1920.0,0.0119764380713403
1919.0,0.0119764380713403
1918.0,0.012021084124518078
1917.0,0.012021084124518078
1916.0,0.012021084124518078
1915.0,0.012065734767841452
1914.0,0.012110390002254778
1913.0,0.01215504982870197
1912.0,0.012110390002254778
1911.0,0.012110390002254778
1910.0,0.012110390002254778
1909.0,0.01215504982870197
1908.0,0.012199714248127602
1907.0,0.012244383261476699
1906.0,0.012199714248127602
1905.0,0.01215504982870197
1904.0,0.012110390002254778
1903.0,0.012110390002254778
1902.0,0.012199714248127602
1901.0,0.012289056869694281
1900.0,0.012333735073725371
1899.0,0.012378417874516323
1898.0,0.012378417874516323
1897.0,0.012423105273012602
1896.0,0.012378417874516323
1895.0,0.012333735073725371
1894.0,0.012289056869694281
1893.0,0.012244383261476699
1892.0,0.012199714248127602
1891.0,0.01215504982870197
1890.0,0.012110390002254778
1889.0,0.012065734767841452
1888.0,0.012021084124518078
1887.0,0.0119764380713403
1886.0,0.0119764380713403
1885.0,0.011931796607364653
1884.0,0.011931796607364653
1883.0,0.011842527443247208
1882.0,0.011797899741219142
1881.0,0.011708658092512314
1880.0,0.011664044143949504
1879.0,0.011664044143949504
1878.0,0.011664044143949504
1877.0,0.011664044143949504
1876.0,0.011708658092512314
1875.0,0.011708658092512314
1874.0,0.011664044143949504
1873.0,0.011619434777991433
1872.0,0.011574829993696856
1871.0,0.011485634166333858
1870.0,0.011396456654336085
1869.0,0.011396456654336085
1868.0,0.011396456654336085
1867.0,0.011351874764248926
1866.0,0.011351874764248926
1865.0,0.011351874764248926
1864.0,0.011351874764248926
1863.0,0.011307297450183107
1862.0,0.011351874764248926
1861.0,0.011351874764248926
1860.0,0.011351874764248926
1859.0,0.011307297450183107
1858.0,0.011307297450183107
1857.0,0.011351874764248926
1856.0,0.011396456654336085
1855.0,0.011441043121384498
1854.0,0.011396456654336085
1853.0,0.011307297450183107
1852.0,0.011262724711199823
1851.0,0.011218156546359825
1850.0,0.011218156546359825
1849.0,0.01117359295472431
1848.0,0.01117359295472431
1847.0,0.01117359295472431
1846.0,0.011218156546359825
1845.0,0.011218156546359825
1844.0,0.011218156546359825
1843.0,0.01117359295472431
1842.0,0.011218156546359825
1841.0,0.011307297450183107
1840.0,0.011351874764248926
1839.0,0.011307297450183107
1838.0,0.011262724711199823
1837.0,0.011307297450183107
1836.0,0.011307297450183107
1835.0,0.011307297450183107
1834.0,0.011262724711199823
1833.0,0.011262724711199823
1832.0,0.011262724711199823
1831.0,0.011218156546359825
1830.0,0.01117359295472431
1829.0,0.011129033935354915
1828.0,0.011129033935354915
1827.0,0.011129033935354915
1826.0,0.011129033935354915
1825.0,0.011129033935354915
1824.0,0.01117359295472431
1823.0,0.011262724711199823
1822.0,0.011307297450183107
1821.0,0.011351874764248926
1820.0,0.011396456654336085
1819.0,0.011351874764248926
1818.0,0.011262724711199823
1817.0,0.011218156546359825
1816.0,0.01117359295472431
1815.0,0.01117359295472431
1814.0,0.011129033935354915
1813.0,0.01117359295472431
1812.0,0.01117359295472431
1811.0,0.011084479487313281
1810.0,0.011039929609661936
1809.0,0.011084479487313281
1808.0,0.011039929609661936
1807.0,0.010995384301463185
1806.0,0.010950843561779777
1805.0,0.010950843561779777
1804.0,0.010995384301463185
1803.0,0.010950843561779777
1802.0,0.010950843561779777
1801.0,0.010950843561779777
1800.0,0.010950843561779777
1799.0,0.010950843561779777
1798.0,0.010950843561779777
1797.0,0.010906307389674463
1796.0,0.010906307389674463
1795.0,0.010906307389674463
1794.0,0.010995384301463185
1793.0,0.011084479487313281
1792.0,0.011129033935354915
1791.0,0.011039929609661936
1790.0,0.010995384301463185
1789.0,0.010995384301463185
1788.0,0.010995384301463185
1787.0,0.010995384301463185
1786.0,0.010995384301463185
1785.0,0.011039929609661936
1784.0,0.011039929609661936
1783.0,0.011039929609661936
1782.0,0.010995384301463185
1781.0,0.010995384301463185
1780.0,0.010950843561779777
1779.0,0.010950843561779777
1778.0,0.010906307389674463
1777.0,0.010906307389674463
1776.0,0.01086177578421088
1775.0,0.010906307389674463
1774.0,0.010950843561779777
1773.0,0.010995384301463185
1772.0,0.011084479487313281
1771.0,0.011129033935354915
1770.0,0.011218156546359825
1769.0,0.011351874764248926
1768.0,0.011351874764248926
1767.0,0.011262724711199823
1766.0,0.011218156546359825
1765.0,0.011218156546359825
1764.0,0.011262724711199823
1763.0,0.011351874764248926
1762.0,0.011441043121384498
1761.0,0.011485634166333858
1760.0,0.011574829993696856
1759.0,0.011664044143949504
1758.0,0.011708658092512314
1757.0,0.011753276624621556
1756.0,0.011842527443247208
1755.0,0.0119764380713403
1754.0,0.012110390002254778
1753.0,0.012244383261476699
1752.0,0.012333735073725371
1751.0,0.012423105273012602
1750.0,0.012512493866907004
1749.0,0.01264661126420652
1748.0,0.012780770091995297
1747.0,0.012825498912458322
1746.0,0.012780770091995297
1745.0,0.012691326268817527
1744.0,0.012691326268817527
1743.0,0.01264661126420652
1742.0,0.01264661126420652
1741.0,0.012691326268817527
1740.0,0.012736045877764557
1739.0,0.012691326268817527
1738.0,0.01260190086298274
1737.0,0.01260190086298274
1736.0,0.012557195064198723
1735.0,0.012512493866907004
1734.0,0.012423105273012602
1733.0,0.012199714248127602
1732.0,0.012065734767841452
1731.0,0.012065734767841452
1730.0,0.012021084124518078
1729.0,0.0119764380713403
1728.0,0.011931796607364653
1727.0,0.011931796607364653
1726.0,0.011931796607364653
1725.0,0.011931796607364653
1724.0,0.011931796607364653
1723.0,0.011842527443247208
1722.0,0.011753276624621556
1721.0,0.011708658092512314
1720.0,0.011619434777991433
1719.0,0.011441043121384498
1718.0,0.011441043121384498
1717.0,0.011619434777991433
1716.0,0.011797899741219142
1715.0,0.0119764380713403
1714.0,0.012110390002254778
1713.0,0.012110390002254778
1712.0,0.012021084124518078
1711.0,0.011887159731648111
1710.0,0.011753276624621556
1709.0,0.011753276624621556
1708.0,0.011708658092512314
1707.0,0.011664044143949504
1706.0,0.011619434777991433
1705.0,0.011619434777991433
1704.0,0.011708658092512314
1703.0,0.011887159731648111
1702.0,0.0119764380713403
1701.0,0.0119764380713403
1700.0,0.011931796607364653
1699.0,0.011753276624621556
1698.0,0.011887159731648111
1697.0,0.012065734767841452
1696.0,0.0119764380713403
1695.0,0.011619434777991433
1694.0,0.011485634166333858
1693.0,0.011574829993696856
1692.0,0.011664044143949504
1691.0,0.011619434777991433
1690.0,0.011530229790124524
1689.0,0.011441043121384498
1688.0,0.011441043121384498
1687.0,0.011441043121384498
1686.0,0.011307297450183107
1685.0,0.011307297450183107
1684.0,0.011396456654336085
1683.0,0.011351874764248926
1682.0,0.011441043121384498
1681.0,0.011530229790124524
1680.0,0.011485634166333858
1679.0,0.011441043121384498
1678.0,0.011441043121384498
1677.0,0.011530229790124524
1676.0,0.011574829993696856
1675.0,0.011530229790124524
1674.0,0.011441043121384498
1673.0,0.011485634166333858
1672.0,0.011530229790124524
1671.0,0.011574829993696856
1670.0,0.011574829993696856
1669.0,0.011530229790124524
1668.0,0.011441043121384498
1667.0,0.011441043121384498
1666.0,0.011485634166333858
1665.0,0.011530229790124524
1664.0,0.011574829993696856
1663.0,0.011619434777991433
1662.0,0.011664044143949504
1661.0,0.011664044143949504
1660.0,0.011708658092512314
1659.0,0.011753276624621556
1658.0,0.011708658092512314
1657.0,0.011708658092512314
1656.0,0.011797899741219142
1655.0,0.011931796607364653
1654.0,0.012289056869694281
1653.0,0.012378417874516323
1652.0,0.011753276624621556
1651.0,0.011485634166333858
1650.0,0.011485634166333858
1649.0,0.011441043121384498
1648.0,0.011441043121384498
1647.0,0.011664044143949504
1646.0,0.011842527443247208
1645.0,0.011931796607364653
1644.0,0.0119764380713403
1643.0,0.011931796607364653
1642.0,0.011887159731648111
1641.0,0.011753276624621556
1640.0,0.011664044143949504
1639.0,0.011664044143949504
1638.0,0.011664044143949504
1637.0,0.011753276624621556
1636.0,0.011842527443247208
1635.0,0.011753276624621556
1634.0,0.011664044143949504
1633.0,0.011753276624621556
1632.0,0.011797899741219142
1631.0,0.011753276624621556
1630.0,0.011619434777991433
1629.0,0.011574829993696856
1628.0,0.011485634166333858
1627.0,0.011485634166333858
1626.0,0.011441043121384498
1625.0,0.011396456654336085
1624.0,0.011396456654336085
1623.0,0.011351874764248926
1622.0,0.011262724711199823
1621.0,0.01117359295472431
1620.0,0.01117359295472431
1619.0,0.01117359295472431
1618.0,0.011262724711199823
1617.0,0.011307297450183107
1616.0,0.011218156546359825
1615.0,0.011129033935354915
1614.0,0.01117359295472431
1613.0,0.011218156546359825
1612.0,0.01117359295472431
1611.0,0.011084479487313281
1610.0,0.011039929609661936
1609.0,0.010995384301463185
1608.0,0.011039929609661936
1607.0,0.011084479487313281
1606.0,0.011129033935354915
1605.0,0.011129033935354915
1604.0,0.011084479487313281
1603.0,0.011039929609661936
1602.0,0.010995384301463185
1601.0,0.010995384301463185
1600.0,0.011039929609661936
1599.0,0.011084479487313281
1598.0,0.011084479487313281
1597.0,0.011039929609661936
1596.0,0.011039929609661936
1595.0,0.011039929609661936
1594.0,0.011039929609661936
1593.0,0.011039929609661936
1592.0,0.010995384301463185
1591.0,0.010950843561779777
1590.0,0.010906307389674463
1589.0,0.010906307389674463
1588.0,0.010950843561779777
1587.0,0.010995384301463185
1586.0,0.010995384301463185
1585.0,0.011039929609661936
1584.0,0.011039929609661936
1583.0,0.011039929609661936
1582.0,0.010995384301463185
1581.0,0.010906307389674463
1580.0,0.01086177578421088
1579.0,0.01086177578421088
1578.0,0.01086177578421088
1577.0,0.01086177578421088
1576.0,0.010817248744452446
1575.0,0.010639186223752484
1574.0,0.010594681998483901
1573.0,0.010594681998483901
1572.0,0.010550182333308289
1571.0,0.01046119667949763
1570.0,0.010416710688994968
1569.0,0.010416710688994968
1568.0,0.010416710688994968
1567.0,0.010416710688994968
1566.0,0.01037222925484893
1565.0,0.010194349063173958
1564.0,0.010105436281226954
1563.0,0.010060986715464404
1562.0,0.01001654169860089
1561.0,0.009838807101520963
1560.0,0.009794384815193347
1559.0,0.010194349063173958
1558.0,0.010105436281226954
1557.0,0.010105436281226954
1556.0,0.01037222925484893
1555.0,0.01046119667949763
1554.0,0.01046119667949763
1553.0,0.01046119667949763
1552.0,0.010505687227290839
1551.0,0.01046119667949763
1550.0,0.010327752376126709
1549.0,0.010283280051895272
1548.0,0.010283280051895272
1547.0,0.010283280051895272
1546.0,0.01023881228122181
1545.0,0.010194349063173958
1544.0,0.010194349063173958
1543.0,0.010194349063173958
1542.0,0.010194349063173958
1541.0,0.01037222925484893
1540.0,0.01046119667949763
1539.0,0.010194349063173958
1538.0,0.009972101229705377
1537.0,0.010060986715464404
1536.0,0.010105436281226954
1535.0,0.009972101229705377
1534.0,0.009838807101520963
1533.0,0.009838807101520963
1532.0,0.009883233932095559
1531.0,0.009838807101520963
1530.0,0.00974996707218323
1529.0,0.009705553871561357
1528.0,0.009616741093766423
1527.0,0.009483555971770974
1526.0,0.009306039320248427
1525.0,0.009261671492462709
1524.0,0.009261671492462709
1523.0,0.009217308196862062
1522.0,0.009217308196862062
1521.0,0.009306039320248427
1520.0,0.009306039320248427
1519.0,0.009261671492462709
1518.0,0.009172949432521227
1517.0,0.009128595198514056
1516.0,0.009128595198514056
1515.0,0.00908424549391551
1514.0,0.00908424549391551
1513.0,0.00908424549391551
1512.0,0.009128595198514056
1511.0,0.009039900317800775
1510.0,0.008995559669244813
1509.0,0.008995559669244813
1508.0,0.009217308196862062
1507.0,0.009261671492462709
1506.0,0.009039900317800775
1505.0,0.008951223547323472
1504.0,0.009128595198514056
1503.0,0.009172949432521227
1502.0,0.009172949432521227
1501.0,0.009217308196862062
1500.0,0.009306039320248427
1499.0,0.009261671492462709
1498.0,0.009128595198514056
1497.0,0.009128595198514056
1496.0,0.009172949432521227
1495.0,0.00908424549391551
1494.0,0.009039900317800775
1493.0,0.009128595198514056
1492.0,0.009172949432521227
1491.0,0.009039900317800775
1490.0,0.008906891951112605
1489.0,0.00908424549391551
1488.0,0.009261671492462709
1487.0,0.009261671492462709
1486.0,0.009306039320248427
1485.0,0.009527946474380489
1484.0,0.009883233932095559
1483.0,0.010194349063173958
1482.0,0.010728208358306901
1481.0,0.011753276624621556
1480.0,0.013273040668781544
1479.0,0.01547268665620738
1478.0,0.019860222254245663
1477.0,0.028167720075074953
1476.0,0.041006334969674096
1475.0,0.05734718830678798
1474.0,0.0759792995259323
1473.0,0.09210516458371698
1472.0,0.09772507952549825
1471.0,0.09388054245443844
1470.0,0.08767164203958999
1469.0,0.0823369756726251
1468.0,0.07841755960658348
1467.0,0.07649693305789551
1466.0,0.07857365898473456
1465.0,0.08533956941077814
1464.0,0.09291125492570451
1463.0,0.09587978652380036
1462.0,0.09280368972839836
1461.0,0.08502252755566908
1460.0,0.07453319930846214
1459.0,0.06373765809652254
1458.0,0.054679159207724926
1457.0,0.048565334467987054
1456.0,0.04474531717982
1455.0,0.04215336629184985
1454.0,0.03986232513620536
1453.0,0.03744126420403626
1452.0,0.03517488211661135
1451.0,0.033295223342125535
1450.0,0.031984286006358165
1449.0,0.030863766403287585
1448.0,0.029839156962686353
1447.0,0.029095501846216454
1446.0,0.02858497661500481
1445.0,0.028028723600243666
1444.0,0.02747318213414429
1443.0,0.027056991894431892
1442.0,0.026687379547098322
1441.0,0.026225806029419818
1440.0,0.025810808881832736
1439.0,0.025488307262671706
1438.0,0.025258095499050004
1437.0,0.024936003904763915
1436.0,0.024476287039668643
1435.0,0.023971159908874107
1434.0,0.02342078135989012
1433.0,0.02277955336461468
1432.0,0.02204787879853809
1431.0,0.021317434843055594
1430.0,0.02058821736556471
1429.0,0.019860222254245663
1428.0,0.0192242260373785
1427.0,0.018679826740892747
1426.0,0.018181392829336396
1425.0,0.017638298366853045
1424.0,0.017186237868137555
1423.0,0.016960383953898095
1422.0,0.016824927962187042
1421.0,0.016554142658660398
1420.0,0.016193358021584725
1419.0,0.01596801972881945
1418.0,0.015742798294583915
1417.0,0.015562705203923999
1416.0,0.01538268676325183
1415.0,0.015247721884586563
1414.0,0.015022873584506602
1413.0,0.014753209197138295
1412.0,0.014573525916998342
1411.0,0.0144837121472845
1410.0,0.014349026309051105
1409.0,0.014214382227394795
1408.0,0.01403492169512921
1407.0,0.013900374944870508
1406.0,0.01385553528947936
1405.0,0.01372104409400876
1404.0,0.013586594534531482
1403.0,0.013541787262693505
1402.0,0.013452186585275916
1401.0,0.013317820220494436
1400.0,0.013093968619278806
1399.0,0.013049212141483357
1398.0,0.013049212141483357
1397.0,0.013049212141483357
1396.0,0.013093968619278806
1395.0,0.013138729709955221
1394.0,0.013049212141483357
1393.0,0.012914970375878188
1392.0,0.012780770091995297
1391.0,0.012825498912458322
1390.0,0.012914970375878188
1389.0,0.013004460275618523
1388.0,0.013004460275618523
1387.0,0.013093968619278806
1386.0,0.01322826573375524
1385.0,0.013362604389846044
1384.0,0.013496984613259544
1383.0,0.013765869865004277
1382.0,0.014124642691606404
1381.0,0.01452861671041239
1380.0,0.014977917890464765
1379.0,0.015337693809893471
1378.0,0.015562705203923999
1377.0,0.015562705203923999
1376.0,0.015517693597737248
1375.0,0.015562705203923999
1374.0,0.01578783323856614
1373.0,0.016013078034810446
1372.0,0.01628352608625061
1371.0,0.016599261819461697
1370.0,0.016915227262211507
1369.0,0.017050711425501408
1368.0,0.017141057687924732
1367.0,0.017095882207371904
1366.0,0.016960383953898095
1365.0,0.016734647433454652
1364.0,0.016418813294209356
1363.0,0.016193358021584725
1362.0,0.016013078034810446
1361.0,0.01578783323856614
1360.0,0.015652742414136167
1359.0,0.01547268665620738
1358.0,0.01538268676325183
1357.0,0.015247721884586563
1356.0,0.015202742910707112
1355.0,0.015247721884586563
1354.0,0.015337693809893471
1353.0,0.01538268676325183
1352.0,0.015337693809893471
1351.0,0.015247721884586563
1350.0,0.015157768594724175
1349.0,0.014977917890464765
1348.0,0.014798141635428141
1347.0,0.014618439768003144
1346.0,0.014393916947563534
1345.0,0.014169510141607944
1344.0,0.013990068146738865
1343.0,0.01381070026317599
1342.0,0.013586594534531482
1341.0,0.013317820220494436
1340.0,0.013093968619278806
1339.0,0.012959713020733288
1338.0,0.012914970375878188
1337.0,0.012825498912458322
1336.0,0.012736045877764557
1335.0,0.01264661126420652
1334.0,0.01260190086298274
1333.0,0.012512493866907004
1332.0,0.012467797270160563
1331.0,0.012423105273012602
1330.0,0.012467797270160563
1329.0,0.012467797270160563
1328.0,0.012512493866907004
1327.0,0.012557195064198723
1326.0,0.01264661126420652
1325.0,0.012691326268817527
1324.0,0.012736045877764557
1323.0,0.012825498912458322
1322.0,0.012914970375878188
1321.0,0.013049212141483357
1320.0,0.01318349541446362
1319.0,0.013317820220494436
1318.0,0.013496984613259544
1317.0,0.013586594534531482
1316.0,0.013676222949234651
1315.0,0.013765869865004277
1314.0,0.013900374944870508
1313.0,0.01403492169512921
1312.0,0.014124642691606404
1311.0,0.014214382227394795
1310.0,0.014304140310157809
1309.0,0.014349026309051105
1308.0,0.014438812226654996
1307.0,0.0144837121472845
1306.0,0.0144837121472845
1305.0,0.014438812226654996
1304.0,0.014393916947563534
1303.0,0.014393916947563534
1302.0,0.014393916947563534
1301.0,0.014393916947563534
1300.0,0.014304140310157809
1299.0,0.014304140310157809
1298.0,0.014259258949925524
1297.0,0.014169510141607944
1296.0,0.014079779876432497
1295.0,0.013990068146738865
1294.0,0.01385553528947936
1293.0,0.013676222949234651
1292.0,0.013496984613259544
1291.0,0.013317820220494436
1290.0,0.01322826573375524
1289.0,0.013138729709955221
1288.0,0.013049212141483357
1287.0,0.013004460275618523
1286.0,0.012959713020733288
1285.0,0.012870232340102872
1284.0,0.012780770091995297
1283.0,0.01264661126420652
1282.0,0.012557195064198723
1281.0,0.012467797270160563
1280.0,0.012423105273012602
1279.0,0.012423105273012602
1278.0,0.012423105273012602
1277.0,0.012467797270160563
1276.0,0.012467797270160563
1275.0,0.012467797270160563
1274.0,0.012467797270160563
1273.0,0.012423105273012602
1272.0,0.012378417874516323
1271.0,0.012333735073725371
1270.0,0.012333735073725371
1269.0,0.012333735073725371
1268.0,0.012333735073725371
1267.0,0.012378417874516323
1266.0,0.012467797270160563
1265.0,0.012512493866907004
1264.0,0.012512493866907004
1263.0,0.012467797270160563
1262.0,0.012423105273012602
1261.0,0.012378417874516323
1260.0,0.012423105273012602
1259.0,0.012423105273012602
1258.0,0.012467797270160563
1257.0,0.012423105273012602
1256.0,0.012378417874516323
1255.0,0.012333735073725371
1254.0,0.012244383261476699
1253.0,0.012110390002254778
1252.0,0.0119764380713403
1251.0,0.011931796607364653
1250.0,0.011931796607364653
1249.0,0.011931796607364653
1248.0,0.0119764380713403
1247.0,0.0119764380713403
1246.0,0.012021084124518078
1245.0,0.0119764380713403
1244.0,0.011887159731648111
1243.0,0.011842527443247208
1242.0,0.011842527443247208
1241.0,0.011842527443247208
1240.0,0.011842527443247208
1239.0,0.011887159731648111
1238.0,0.011931796607364653
1237.0,0.011842527443247208
1236.0,0.011753276624621556
1235.0,0.011664044143949504
1234.0,0.011574829993696856
1233.0,0.011530229790124524
1232.0,0.011485634166333858
1231.0,0.011485634166333858
1230.0,0.011485634166333858
1229.0,0.011441043121384498
1228.0,0.011396456654336085
1227.0,0.011396456654336085
1226.0,0.011441043121384498
1225.0,0.011485634166333858
1224.0,0.011441043121384498
1223.0,0.011396456654336085
1222.0,0.011396456654336085
1221.0,0.011351874764248926
1220.0,0.011307297450183107
1219.0,0.011307297450183107
1218.0,0.011307297450183107
1217.0,0.011307297450183107
1216.0,0.011307297450183107
1215.0,0.011396456654336085
1214.0,0.011485634166333858
1213.0,0.011530229790124524
1212.0,0.011530229790124524
1211.0,0.011485634166333858
1210.0,0.011485634166333858
1209.0,0.011530229790124524
1208.0,0.011574829993696856
1207.0,0.011664044143949504
1206.0,0.011753276624621556
1205.0,0.011753276624621556
1204.0,0.011753276624621556
1203.0,0.011753276624621556
1202.0,0.011708658092512314
1201.0,0.011664044143949504
1200.0,0.011619434777991433
1199.0,0.011530229790124524
1198.0,0.011485634166333858
1197.0,0.011351874764248926
1196.0,0.011262724711199823
1195.0,0.011218156546359825
1194.0,0.011218156546359825
1193.0,0.011218156546359825
1192.0,0.011218156546359825
1191.0,0.011262724711199823
1190.0,0.011262724711199823
1189.0,0.011262724711199823
1188.0,0.011262724711199823
1187.0,0.011218156546359825
1186.0,0.011218156546359825
1185.0,0.011218156546359825
1184.0,0.011218156546359825
1183.0,0.011307297450183107
1182.0,0.011396456654336085
1181.0,0.011530229790124524
1180.0,0.011664044143949504
1179.0,0.011753276624621556
1178.0,0.011931796607364653
1177.0,0.012021084124518078
1176.0,0.012110390002254778
1175.0,0.012199714248127602
1174.0,0.012289056869694281
1173.0,0.012333735073725371
1172.0,0.012333735073725371
1171.0,0.012423105273012602
1170.0,0.012467797270160563
1169.0,0.012423105273012602
1168.0,0.012378417874516323
1167.0,0.012333735073725371
1166.0,0.012333735073725371
1165.0,0.012333735073725371
1164.0,0.012378417874516323
1163.0,0.012423105273012602
1162.0,0.012423105273012602
1161.0,0.012378417874516323
1160.0,0.012289056869694281
1159.0,0.012199714248127602
1158.0,0.01215504982870197
1157.0,0.012110390002254778
1156.0,0.012065734767841452
1155.0,0.012065734767841452
1154.0,0.012065734767841452
1153.0,0.012065734767841452
1152.0,0.012065734767841452
1151.0,0.012065734767841452
1150.0,0.012110390002254778
1149.0,0.01215504982870197
1148.0,0.012065734767841452
1147.0,0.012021084124518078
1146.0,0.011887159731648111
1145.0,0.011797899741219142
1144.0,0.011664044143949504
1143.0,0.011530229790124524
1142.0,0.011396456654336085
1141.0,0.011307297450183107
1140.0,0.011218156546359825
1139.0,0.01117359295472431
1138.0,0.011129033935354915
1137.0,0.011084479487313281
1136.0,0.011084479487313281
1135.0,0.011039929609661936
1134.0,0.010995384301463185
1133.0,0.010906307389674463
1132.0,0.01077272626946324
1131.0,0.010683695010048622
1130.0,0.010728208358306901
1129.0,0.010728208358306901
1128.0,0.01077272626946324
1127.0,0.01077272626946324
1126.0,0.01077272626946324
1125.0,0.01077272626946324
1124.0,0.01077272626946324
1123.0,0.01077272626946324
1122.0,0.010817248744452446
1121.0,0.01086177578421088
1120.0,0.010906307389674463
1119.0,0.010906307389674463
1118.0,0.010950843561779777
1117.0,0.010950843561779777
1116.0,0.010950843561779777
1115.0,0.010950843561779777
1114.0,0.010995384301463185
1113.0,0.010995384301463185
1112.0,0.011039929609661936
1111.0,0.011084479487313281
1110.0,0.01117359295472431
1109.0,0.011262724711199823
1108.0,0.011307297450183107
1107.0,0.011351874764248926
1106.0,0.011396456654336085
1105.0,0.011396456654336085
1104.0,0.011396456654336085
1103.0,0.011441043121384498
1102.0,0.011485634166333858
1101.0,0.011530229790124524
1100.0,0.011574829993696856
1099.0,0.011664044143949504
1098.0,0.011708658092512314
1097.0,0.011708658092512314
1096.0,0.011708658092512314
1095.0,0.011708658092512314
1094.0,0.011708658092512314
1093.0,0.011753276624621556
1092.0,0.011797899741219142
1091.0,0.011887159731648111
1090.0,0.011931796607364653
1089.0,0.011931796607364653
1088.0,0.011931796607364653
1087.0,0.0119764380713403
1086.0,0.0119764380713403
1085.0,0.011931796607364653
1084.0,0.011887159731648111
1083.0,0.011887159731648111
1082.0,0.011931796607364653
1081.0,0.011931796607364653
1080.0,0.0119764380713403
1079.0,0.0119764380713403
1078.0,0.011931796607364653
1077.0,0.011797899741219142
1076.0,0.011664044143949504
1075.0,0.011530229790124524
1074.0,0.011485634166333858
1073.0,0.011441043121384498
1072.0,0.011396456654336085
1071.0,0.011351874764248926
1070.0,0.011307297450183107
1069.0,0.011218156546359825
1068.0,0.011129033935354915
1067.0,0.011129033935354915
1066.0,0.011129033935354915
1065.0,0.011129033935354915
1064.0,0.011129033935354915
1063.0,0.011129033935354915
1062.0,0.011084479487313281
1061.0,0.010995384301463185
1060.0,0.010906307389674463
1059.0,0.01086177578421088
1058.0,0.01086177578421088
1057.0,0.01086177578421088
1056.0,0.010817248744452446
1055.0,0.01086177578421088
1054.0,0.010906307389674463
1053.0,0.010950843561779777
1052.0,0.011039929609661936
1051.0,0.011129033935354915
1050.0,0.011262724711199823
1049.0,0.011262724711199823
1048.0,0.011129033935354915
1047.0,0.010995384301463185
1046.0,0.010906307389674463
1045.0,0.010817248744452446
1044.0,0.01077272626946324
1043.0,0.01077272626946324
1042.0,0.010728208358306901
1041.0,0.010683695010048622
1040.0,0.010594681998483901
1039.0,0.010505687227290839
1038.0,0.01046119667949763
1037.0,0.010416710688994968
1036.0,0.010416710688994968
1035.0,0.01037222925484893
1034.0,0.010327752376126709
1033.0,0.010283280051895272
1032.0,0.010283280051895272
1031.0,0.010283280051895272
1030.0,0.010327752376126709
1029.0,0.01037222925484893
1028.0,0.01037222925484893
1027.0,0.010283280051895272
1026.0,0.010194349063173958
1025.0,0.010060986715464404
1024.0,0.009927665307847056
1023.0,0.009883233932095559
1022.0,0.009927665307847056
1021.0,0.01001654169860089
1020.0,0.010060986715464404
1019.0,0.010060986715464404
1018.0,0.010060986715464404
1017.0,0.01001654169860089
1016.0,0.009972101229705377
1015.0,0.009883233932095559
1014.0,0.009794384815193347
1013.0,0.009705553871561357
1012.0,0.00966114521239847
1011.0,0.009616741093766423
1010.0,0.009572341514736404
1009.0,0.009483555971770974
1008.0,0.00939478857608056
1007.0,0.009261671492462709
1006.0,0.009172949432521227
1005.0,0.009128595198514056
1004.0,0.009128595198514056
1003.0,0.00908424549391551
1002.0,0.00908424549391551
1001.0,0.00908424549391551
1000.0,0.009039900317800775
999.0,0.009039900317800775
998.0,0.00908424549391551
997.0,0.009128595198514056
996.0,0.009128595198514056
995.0,0.009172949432521227
994.0,0.009261671492462709
993.0,0.009306039320248427
992.0,0.009439170005980158
991.0,0.009483555971770974
990.0,0.009572341514736404
989.0,0.009572341514736404
988.0,0.009616741093766423
987.0,0.009705553871561357
986.0,0.009794384815193347
985.0,0.009794384815193347
984.0,0.009794384815193347
983.0,0.009794384815193347
982.0,0.009794384815193347
981.0,0.009838807101520963
980.0,0.009927665307847056
979.0,0.010060986715464404
978.0,0.010105436281226954
977.0,0.010060986715464404
976.0,0.01001654169860089
975.0,0.010060986715464404
974.0,0.010194349063173958
973.0,0.01023881228122181
972.0,0.01023881228122181
971.0,0.010194349063173958
970.0,0.010194349063173958
969.0,0.010194349063173958
968.0,0.01023881228122181
967.0,0.01023881228122181
966.0,0.010149890396819572
965.0,0.010060986715464404
964.0,0.009972101229705377
963.0,0.009927665307847056
962.0,0.009883233932095559
961.0,0.009794384815193347
960.0,0.00966114521239847
959.0,0.009527946474380489
958.0,0.009483555971770974
957.0,0.009483555971770974
956.0,0.009483555971770974
955.0,0.009439170005980158
954.0,0.00939478857608056
953.0,0.009350411681145587
952.0,0.009306039320248427
951.0,0.009261671492462709
950.0,0.009217308196862062
949.0,0.00908424549391551
948.0,0.008951223547323472
947.0,0.008818242332126802
946.0,0.008818242332126802
945.0,0.008862564879688284
944.0,0.008951223547323472
943.0,0.009039900317800775
942.0,0.009128595198514056
941.0,0.009128595198514056
940.0,0.009039900317800775
939.0,0.008995559669244813
938.0,0.008995559669244813
937.0,0.009039900317800775
936.0,0.009128595198514056
935.0,0.009217308196862062
934.0,0.009261671492462709
933.0,0.009306039320248427
932.0,0.009261671492462709
931.0,0.009261671492462709
930.0,0.009217308196862062
929.0,0.009217308196862062
928.0,0.009172949432521227
927.0,0.009128595198514056
926.0,0.009128595198514056
925.0,0.009217308196862062
924.0,0.009350411681145587
923.0,0.009527946474380489
922.0,0.009616741093766423
921.0,0.00966114521239847
920.0,0.009572341514736404
919.0,0.009527946474380489
918.0,0.009527946474380489
917.0,0.009572341514736404
916.0,0.00966114521239847
915.0,0.00974996707218323
914.0,0.00974996707218323
913.0,0.009705553871561357
912.0,0.00966114521239847
911.0,0.009705553871561357
910.0,0.00974996707218323
909.0,0.00974996707218323
908.0,0.00966114521239847
907.0,0.009527946474380489
906.0,0.00939478857608056
905.0,0.009306039320248427
904.0,0.009172949432521227
903.0,0.009039900317800775
902.0,0.008862564879688284
901.0,0.008685301823389224
900.0,0.008596697419959609
899.0,0.008640997362049818
898.0,0.008773924307505121
897.0,0.008818242332126802
896.0,0.008862564879688284
895.0,0.008906891951112605
894.0,0.008906891951112605
893.0,0.008906891951112605
892.0,0.008862564879688284
891.0,0.008818242332126802
890.0,0.008818242332126802
889.0,0.008862564879688284
888.0,0.008862564879688284
887.0,0.008818242332126802
886.0,0.0087296108049002
885.0,0.008685301823389224
884.0,0.008640997362049818
883.0,0.008685301823389224
882.0,0.008685301823389224
881.0,0.008685301823389224
880.0,0.008640997362049818
879.0,0.0087296108049002
878.0,0.008906891951112605
877.0,0.009039900317800775
876.0,0.009039900317800775
875.0,0.008951223547323472
874.0,0.008906891951112605
873.0,0.008951223547323472
872.0,0.008995559669244813
871.0,0.009039900317800775
870.0,0.009039900317800775
869.0,0.008951223547323472
868.0,0.008862564879688284
867.0,0.008862564879688284
866.0,0.008995559669244813
865.0,0.009172949432521227
864.0,0.009350411681145587
863.0,0.009483555971770974
862.0,0.009527946474380489
861.0,0.009483555971770974
860.0,0.009350411681145587
859.0,0.009217308196862062
858.0,0.00908424549391551
857.0,0.009039900317800775
856.0,0.00908424549391551
855.0,0.009217308196862062
854.0,0.00939478857608056
853.0,0.009572341514736404
852.0,0.009705553871561357
851.0,0.009838807101520963
850.0,0.009883233932095559
849.0,0.009794384815193347
848.0,0.009705553871561357
847.0,0.00966114521239847
846.0,0.009616741093766423
845.0,0.009439170005980158
844.0,0.009261671492462709
843.0,0.009217308196862062
842.0,0.009261671492462709
841.0,0.009306039320248427
840.0,0.009261671492462709
839.0,0.009172949432521227
838.0,0.009039900317800775
837.0,0.008995559669244813
836.0,0.008906891951112605
835.0,0.008818242332126802
834.0,0.0087296108049002
833.0,0.00850811108984062
832.0,0.008242460465651913
831.0,0.008065450281052211
830.0,0.008021209005416363
829.0,0.008065450281052211
828.0,0.008153946355103248
827.0,0.008286724286910463
826.0,0.008286724286910463
825.0,0.008286724286910463
824.0,0.008286724286910463
823.0,0.008242460465651913
822.0,0.008153946355103248
821.0,0.007888512213050314
820.0,0.007667440952535687
819.0,0.0075790439479759275
818.0,0.00762324020119709
817.0,0.007667440952535687
816.0,0.00762324020119709
815.0,0.007490664932224611
814.0,0.007358130121602358
813.0,0.007225635744644521
812.0,0.007181479933320523
811.0,0.007225635744644521
810.0,0.0074464821678643656
809.0,0.007667440952535687
808.0,0.007976972236149349
807.0,0.008242460465651913
806.0,0.00850811108984062
805.0,0.008640997362049818
804.0,0.008596697419959609
803.0,0.00850811108984062
802.0,0.008375265465994541
801.0,0.008286724286910463
800.0,0.008198201155356077
799.0,0.008198201155356077
798.0,0.008198201155356077
797.0,0.008242460465651913
796.0,0.008330992620051436
795.0,0.008463824699968647
794.0,0.008640997362049818
793.0,0.008862564879688284
792.0,0.009172949432521227
791.0,0.009483555971770974
790.0,0.00966114521239847
789.0,0.009616741093766423
788.0,0.009350411681145587
787.0,0.00908424549391551
786.0,0.008818242332126802
785.0,0.008640997362049818
784.0,0.008463824699968647
783.0,0.008375265465994541
782.0,0.008375265465994541
781.0,0.008375265465994541
780.0,0.008463824699968647
779.0,0.008552401996197112
778.0,0.008596697419959609
777.0,0.00850811108984062
776.0,0.008330992620051436
775.0,0.008109696063975047
774.0,0.007932739972333236
773.0,0.007800070204414977
772.0,0.007667440952535687
771.0,0.007490664932224611
770.0,0.007225635744644521
769.0,0.00696076819309055
768.0,0.006784279525863024
767.0,0.006872514894289861
766.0,0.007049039429553483
765.0,0.007137328610972382
764.0,0.007049039429553483
763.0,0.006828394969235152
762.0,0.00656376950238835
761.0,0.006343371384537999
760.0,0.00625524344553785
759.0,0.00625524344553785
758.0,0.006299305179649828
757.0,0.006299305179649828
756.0,0.00625524344553785
755.0,0.006167133386013823
754.0,0.00612308505878878
753.0,0.006079041198713275
752.0,0.006035001804881146
751.0,0.006167133386013823
750.0,0.006519680930003435
749.0,0.007093181776687496
748.0,0.007667440952535687
747.0,0.008065450281052211
746.0,0.008242460465651913
745.0,0.008153946355103248
744.0,0.008109696063975047
743.0,0.008198201155356077
742.0,0.00850811108984062
741.0,0.008906891951112605
740.0,0.009350411681145587
739.0,0.009972101229705377
738.0,0.011129033935354915
737.0,0.01322826573375524
736.0,0.017005545341335804
735.0,0.023466619608062178
734.0,0.0338113190438627
733.0,0.047982909952573705
732.0,0.06333548699992453
731.0,0.07510073598571654
730.0,0.07904229404455076
729.0,0.07504911108438939
728.0,0.0671712330991534
727.0,0.05978244440026481
726.0,0.05541863577307371
725.0,0.05443294655761144
724.0,0.057049929922901255
723.0,0.06383825908884244
722.0,0.07541061433058172
721.0,0.09065796163869155
720.0,0.1052410056281079
719.0,0.11350927482751816
718.0,0.11322735694556196
717.0,0.10573933555301185
716.0,0.09371884422784693
715.0,0.07951143534170213
714.0,0.06529959828457499
713.0,0.05295859474477971
712.0,0.0435434165901003
711.0,0.03692083935817303
710.0,0.03240522732811035
709.0,0.029234840219232394
708.0,0.02696455931306696
707.0,0.02521206778644225
706.0,0.023466619608062178
705.0,0.02159120737696063
704.0,0.02004210665933459
703.0,0.019133445417920836
702.0,0.01858915983411169
701.0,0.017909760704207134
700.0,0.017141057687924732
699.0,0.016644385668211692
698.0,0.01646391839700767
697.0,0.016373712875465518
696.0,0.016058141016111804
695.0,0.015607721475734415
694.0,0.014932966849499074
693.0,0.014169510141607944
692.0,0.013541787262693505
691.0,0.013362604389846044
690.0,0.013541787262693505
689.0,0.01372104409400876
688.0,0.01372104409400876
687.0,0.013586594534531482
686.0,0.013586594534531482
685.0,0.013631406429727155
684.0,0.013586594534531482
683.0,0.013362604389846044
682.0,0.012825498912458322
681.0,0.012333735073725371
680.0,0.012199714248127602
679.0,0.01260190086298274
678.0,0.01318349541446362
677.0,0.013452186585275916
676.0,0.013317820220494436
675.0,0.012914970375878188
674.0,0.01215504982870197
673.0,0.011039929609661936
672.0,0.009972101229705377
671.0,0.009306039320248427
670.0,0.009306039320248427
669.0,0.009705553871561357
668.0,0.00966114521239847
667.0,0.009927665307847056
666.0,0.010505687227290839
665.0,0.010550182333308289
664.0,0.010283280051895272
663.0,0.009794384815193347
662.0,0.009128595198514056
661.0,0.008286724286910463
660.0,0.007667440952535687
659.0,0.007490664932224611
658.0,0.007490664932224611
657.0,0.007313960837872058
656.0,0.00696076819309055
655.0,0.006784279525863024
654.0,0.006828394969235152
653.0,0.007049039429553483
652.0,0.007490664932224611
651.0,0.008109696063975047
650.0,0.008552401996197112
649.0,0.008286724286910463
648.0,0.00762324020119709
647.0,0.007181479933320523
646.0,0.007269796045857202
645.0,0.007534852191956709
644.0,0.0075790439479759275
643.0,0.0074464821678643656
642.0,0.0074464821678643656
641.0,0.007667440952535687
640.0,0.008198201155356077
639.0,0.008818242332126802
638.0,0.009261671492462709
637.0,0.009483555971770974
636.0,0.00974996707218323
635.0,0.01046119667949763
634.0,0.011262724711199823
633.0,0.011708658092512314
632.0,0.011797899741219142
631.0,0.011842527443247208
630.0,0.011887159731648111
629.0,0.011887159731648111
628.0,0.012065734767841452
627.0,0.012512493866907004
626.0,0.013004460275618523
625.0,0.013138729709955221
624.0,0.013004460275618523
623.0,0.012780770091995297
622.0,0.012691326268817527
621.0,0.012691326268817527
620.0,0.013004460275618523
619.0,0.013586594534531482
618.0,0.01403492169512921
617.0,0.013990068146738865
616.0,0.013676222949234651
615.0,0.013586594534531482
614.0,0.013765869865004277
613.0,0.01381070026317599
612.0,0.013317820220494436
611.0,0.012199714248127602
610.0,0.010639186223752484
609.0,0.009172949432521227
608.0,0.008640997362049818
607.0,0.009172949432521227
606.0,0.00974996707218323
605.0,0.009527946474380489
604.0,0.008951223547323472
603.0,0.008773924307505121
602.0,0.008596697419959609
601.0,0.0074464821678643656
600.0,0.005506877116487674
