cm-1,A
4000.0,0.009527946474380489
3999.0,0.009616741093766423
3998.0,0.00974996707218323
3997.0,0.009838807101520963
3996.0,0.009927665307847056
3995.0,0.01001654169860089
3994.0,0.01001654169860089
3993.0,0.009972101229705377
3992.0,0.009927665307847056
3991.0,0.009883233932095559
3990.0,0.009883233932095559
3989.0,0.009883233932095559
3988.0,0.009927665307847056
3987.0,0.009972101229705377
3986.0,0.010060986715464404
3985.0,0.010105436281226954
3984.0,0.010149890396819572
3983.0,0.010149890396819572
3982.0,0.010105436281226954
3981.0,0.01001654169860089
3980.0,0.009927665307847056
3979.0,0.009794384815193347
3978.0,0.009705553871561357
3977.0,0.009616741093766423
3976.0,0.009527946474380489
3975.0,0.009527946474380489
3974.0,0.009572341514736404
3973.0,0.00966114521239847
3972.0,0.00974996707218323
3971.0,0.009794384815193347
3970.0,0.00974996707218323
3969.0,0.009616741093766423
3968.0,0.009572341514736404
3967.0,0.009527946474380489
3966.0,0.009616741093766423
3965.0,0.009705553871561357
3964.0,0.009794384815193347
3963.0,0.009794384815193347
3962.0,0.009794384815193347
3961.0,0.00974996707218323
3960.0,0.00974996707218323
3959.0,0.009838807101520963
3958.0,0.009972101229705377
3957.0,0.010060986715464404
3956.0,0.01001654169860089
3955.0,0.009927665307847056
3954.0,0.009794384815193347
3953.0,0.009705553871561357
3952.0,0.00966114521239847
3951.0,0.00966114521239847
3950.0,0.00966114521239847
3949.0,0.009616741093766423
3948.0,0.009483555971770974
3947.0,0.00939478857608056
3946.0,0.00939478857608056
3945.0,0.009483555971770974
3944.0,0.009572341514736404
3943.0,0.009616741093766423
3942.0,0.009572341514736404
3941.0,0.009572341514736404
3940.0,0.009705553871561357
3939.0,0.009838807101520963
3938.0,0.009883233932095559
3937.0,0.009794384815193347
3936.0,0.00966114521239847
3935.0,0.009527946474380489
3934.0,0.009483555971770974
3933.0,0.009439170005980158
3932.0,0.00939478857608056
3931.0,0.009350411681145587
3930.0,0.009306039320248427
3929.0,0.009306039320248427
3928.0,0.009306039320248427
3927.0,0.009350411681145587
3926.0,0.00939478857608056
3925.0,0.00939478857608056
3924.0,0.009306039320248427
3923.0,0.009261671492462709
3922.0,0.009306039320248427
3921.0,0.009261671492462709
3920.0,0.009172949432521227
3919.0,0.00908424549391551
3918.0,0.009128595198514056
3917.0,0.009350411681145587
3916.0,0.009616741093766423
3915.0,0.009883233932095559
3914.0,0.010105436281226954
3913.0,0.010194349063173958
3912.0,0.010105436281226954
3911.0,0.009838807101520963
3910.0,0.009527946474380489
3909.0,0.009172949432521227
3908.0,0.008862564879688284
3907.0,0.008640997362049818
3906.0,0.008463824699968647
3905.0,0.008375265465994541
3904.0,0.008198201155356077
3903.0,0.008021209005416363
3902.0,0.008109696063975047
3901.0,0.008596697419959609
3900.0,0.009172949432521227
3899.0,0.009439170005980158
3898.0,0.009483555971770974
3897.0,0.009439170005980158
3896.0,0.00939478857608056
3895.0,0.009306039320248427
3894.0,0.009128595198514056
3893.0,0.009128595198514056
3892.0,0.009217308196862062
3891.0,0.008995559669244813
3890.0,0.008596697419959609
3889.0,0.00850811108984062
3888.0,0.008862564879688284
3887.0,0.009261671492462709
3886.0,0.009350411681145587
3885.0,0.008951223547323472
3884.0,0.00850811108984062
3883.0,0.00850811108984062
3882.0,0.008906891951112605
3881.0,0.009306039320248427
3880.0,0.009350411681145587
3879.0,0.00908424549391551
3878.0,0.008995559669244813
3877.0,0.009217308196862062
3876.0,0.009350411681145587
3875.0,0.009128595198514056
3874.0,0.008552401996197112
3873.0,0.008109696063975047
3872.0,0.008198201155356077
3871.0,0.0087296108049002
3870.0,0.008995559669244813
3869.0,0.008596697419959609
3868.0,0.008198201155356077
3867.0,0.008330992620051436
3866.0,0.008685301823389224
3865.0,0.008862564879688284
3864.0,0.008862564879688284
3863.0,0.008906891951112605
3862.0,0.00908424549391551
3861.0,0.009172949432521227
3860.0,0.00908424549391551
3859.0,0.008862564879688284
3858.0,0.00850811108984062
3857.0,0.008109696063975047
3856.0,0.007888512213050314
3855.0,0.008198201155356077
3854.0,0.008862564879688284
3853.0,0.008862564879688284
3852.0,0.008286724286910463
3851.0,0.008552401996197112
3850.0,0.009483555971770974
3849.0,0.010060986715464404
3848.0,0.010149890396819572
3847.0,0.009927665307847056
3846.0,0.009705553871561357
3845.0,0.009439170005980158
3844.0,0.008995559669244813
3843.0,0.008375265465994541
3842.0,0.007755855953228474
3841.0,0.007358130121602358
3840.0,0.007269796045857202
3839.0,0.007402303897961815
3838.0,0.007490664932224611
3837.0,0.007534852191956709
3836.0,0.007667440952535687
3835.0,0.008109696063975047
3834.0,0.008640997362049818
3833.0,0.009128595198514056
3832.0,0.009350411681145587
3831.0,0.009439170005980158
3830.0,0.009439170005980158
3829.0,0.009527946474380489
3828.0,0.009616741093766423
3827.0,0.009483555971770974
3826.0,0.008906891951112605
3825.0,0.008242460465651913
3824.0,0.007844288957383316
3823.0,0.007932739972333236
3822.0,0.008375265465994541
3821.0,0.00850811108984062
3820.0,0.008021209005416363
3819.0,0.007800070204414977
3818.0,0.008375265465994541
3817.0,0.009039900317800775
3816.0,0.009261671492462709
3815.0,0.00908424549391551
3814.0,0.00908424549391551
3813.0,0.009527946474380489
3812.0,0.009927665307847056
3811.0,0.009883233932095559
3810.0,0.00966114521239847
3809.0,0.00966114521239847
3808.0,0.009838807101520963
3807.0,0.009705553871561357
3806.0,0.008995559669244813
3805.0,0.008463824699968647
3804.0,0.008552401996197112
3803.0,0.00908424549391551
3802.0,0.009439170005980158
3801.0,0.00908424549391551
3800.0,0.008330992620051436
3799.0,0.008286724286910463
3798.0,0.008862564879688284
3797.0,0.009350411681145587
3796.0,0.009527946474380489
3795.0,0.009527946474380489
3794.0,0.00966114521239847
3793.0,0.009972101229705377
3792.0,0.01023881228122181
3791.0,0.01023881228122181
3790.0,0.010105436281226954
3789.0,0.009927665307847056
3788.0,0.009705553871561357
3787.0,0.009572341514736404
3786.0,0.009527946474380489
3785.0,0.009483555971770974
3784.0,0.009439170005980158
3783.0,0.009350411681145587
3782.0,0.009483555971770974
3781.0,0.009705553871561357
3780.0,0.009927665307847056
3779.0,0.009883233932095559
3778.0,0.00974996707218323
3777.0,0.009794384815193347
3776.0,0.01001654169860089
3775.0,0.010105436281226954
3774.0,0.009927665307847056
3773.0,0.009705553871561357
3772.0,0.009616741093766423
3771.0,0.009705553871561357
3770.0,0.009705553871561357
3769.0,0.009527946474380489
3768.0,0.009483555971770974
3767.0,0.00974996707218323
3766.0,0.01001654169860089
3765.0,0.01001654169860089
3764.0,0.00974996707218323
3763.0,0.009572341514736404
3762.0,0.009483555971770974
3761.0,0.009439170005980158
3760.0,0.009350411681145587
3759.0,0.009306039320248427
3758.0,0.009217308196862062
3757.0,0.009039900317800775
3756.0,0.008862564879688284
3755.0,0.008640997362049818
3754.0,0.008463824699968647
3753.0,0.008330992620051436
3752.0,0.008463824699968647
3751.0,0.008640997362049818
3750.0,0.00850811108984062
3749.0,0.008065450281052211
3748.0,0.007888512213050314
3747.0,0.008242460465651913
3746.0,0.008995559669244813
3745.0,0.009616741093766423
3744.0,0.009350411681145587
3743.0,0.008596697419959609
3742.0,0.00850811108984062
3741.0,0.008862564879688284
3740.0,0.0087296108049002
3739.0,0.008153946355103248
3738.0,0.007667440952535687
3737.0,0.0075790439479759275
3736.0,0.007711646202907652
3735.0,0.007844288957383316
3734.0,0.008109696063975047
3733.0,0.008552401996197112
3732.0,0.008951223547323472
3731.0,0.00908424549391551
3730.0,0.00908424549391551
3729.0,0.009172949432521227
3728.0,0.009217308196862062
3727.0,0.009128595198514056
3726.0,0.008906891951112605
3725.0,0.008685301823389224
3724.0,0.008773924307505121
3723.0,0.008951223547323472
3722.0,0.009172949432521227
3721.0,0.00939478857608056
3720.0,0.009616741093766423
3719.0,0.009883233932095559
3718.0,0.01001654169860089
3717.0,0.009927665307847056
3716.0,0.00966114521239847
3715.0,0.009306039320248427
3714.0,0.008951223547323472
3713.0,0.008685301823389224
3712.0,0.008640997362049818
3711.0,0.0087296108049002
3710.0,0.008862564879688284
3709.0,0.009217308196862062
3708.0,0.009705553871561357
3707.0,0.01001654169860089
3706.0,0.010105436281226954
3705.0,0.01001654169860089
3704.0,0.01001654169860089
3703.0,0.010194349063173958
3702.0,0.010327752376126709
3701.0,0.010327752376126709
3700.0,0.01023881228122181
3699.0,0.010283280051895272
3698.0,0.01046119667949763
3697.0,0.010550182333308289
3696.0,0.01046119667949763
3695.0,0.01023881228122181
3694.0,0.01001654169860089
3693.0,0.00974996707218323
3692.0,0.009572341514736404
3691.0,0.009705553871561357
3690.0,0.010149890396819572
3689.0,0.010505687227290839
3688.0,0.01046119667949763
3687.0,0.01046119667949763
3686.0,0.010728208358306901
3685.0,0.011129033935354915
3684.0,0.011218156546359825
3683.0,0.011084479487313281
3682.0,0.010817248744452446
3681.0,0.010505687227290839
3680.0,0.009972101229705377
3679.0,0.009261671492462709
3678.0,0.008818242332126802
3677.0,0.009039900317800775
3676.0,0.009572341514736404
3675.0,0.009439170005980158
3674.0,0.008818242332126802
3673.0,0.008906891951112605
3672.0,0.00966114521239847
3671.0,0.010416710688994968
3670.0,0.010817248744452446
3669.0,0.010817248744452446
3668.0,0.010817248744452446
3667.0,0.011307297450183107
3666.0,0.011842527443247208
3665.0,0.012065734767841452
3664.0,0.012110390002254778
3663.0,0.012065734767841452
3662.0,0.0119764380713403
3661.0,0.011842527443247208
3660.0,0.011708658092512314
3659.0,0.011619434777991433
3658.0,0.011664044143949504
3657.0,0.011708658092512314
3656.0,0.011485634166333858
3655.0,0.010950843561779777
3654.0,0.010639186223752484
3653.0,0.01046119667949763
3652.0,0.01023881228122181
3651.0,0.009972101229705377
3650.0,0.009838807101520963
3649.0,0.00974996707218323
3648.0,0.00966114521239847
3647.0,0.009883233932095559
3646.0,0.010416710688994968
3645.0,0.011039929609661936
3644.0,0.011574829993696856
3643.0,0.011842527443247208
3642.0,0.011931796607364653
3641.0,0.011887159731648111
3640.0,0.011887159731648111
3639.0,0.011931796607364653
3638.0,0.011931796607364653
3637.0,0.011887159731648111
3636.0,0.011842527443247208
3635.0,0.011664044143949504
3634.0,0.011262724711199823
3633.0,0.010683695010048622
3632.0,0.010283280051895272
3631.0,0.01023881228122181
3630.0,0.01077272626946324
3629.0,0.011351874764248926
3628.0,0.011307297450183107
3627.0,0.011218156546359825
3626.0,0.011708658092512314
3625.0,0.012199714248127602
3624.0,0.012199714248127602
3623.0,0.011797899741219142
3622.0,0.011396456654336085
3621.0,0.01117359295472431
3620.0,0.011129033935354915
3619.0,0.010995384301463185
3618.0,0.010728208358306901
3617.0,0.010550182333308289
3616.0,0.010594681998483901
3615.0,0.010817248744452446
3614.0,0.011039929609661936
3613.0,0.01117359295472431
3612.0,0.011129033935354915
3611.0,0.011218156546359825
3610.0,0.011485634166333858
3609.0,0.011842527443247208
3608.0,0.012110390002254778
3607.0,0.012289056869694281
3606.0,0.012378417874516323
3605.0,0.012512493866907004
3604.0,0.01260190086298274
3603.0,0.012512493866907004
3602.0,0.012378417874516323
3601.0,0.012110390002254778
3600.0,0.011708658092512314
3599.0,0.011396456654336085
3598.0,0.01117359295472431
3597.0,0.011129033935354915
3596.0,0.011307297450183107
3595.0,0.011485634166333858
3594.0,0.011619434777991433
3593.0,0.011664044143949504
3592.0,0.011619434777991433
3591.0,0.011664044143949504
3590.0,0.011708658092512314
3589.0,0.011842527443247208
3588.0,0.012021084124518078
3587.0,0.012110390002254778
3586.0,0.01215504982870197
3585.0,0.012378417874516323
3584.0,0.012736045877764557
3583.0,0.013004460275618523
3582.0,0.013093968619278806
3581.0,0.013049212141483357
3580.0,0.013004460275618523
3579.0,0.012959713020733288
3578.0,0.012959713020733288
3577.0,0.012914970375878188
3576.0,0.012959713020733288
3575.0,0.012959713020733288
3574.0,0.013004460275618523
3573.0,0.012914970375878188
3572.0,0.012691326268817527
3571.0,0.012378417874516323
3570.0,0.012065734767841452
3569.0,0.0119764380713403
3568.0,0.012110390002254778
3567.0,0.012244383261476699
3566.0,0.012199714248127602
3565.0,0.012199714248127602
3564.0,0.012467797270160563
3563.0,0.012870232340102872
3562.0,0.01318349541446362
3561.0,0.013407393177789162
3560.0,0.013586594534531482
3559.0,0.01372104409400876
3558.0,0.01385553528947936
3557.0,0.013945219230304673
3556.0,0.013990068146738865
3555.0,0.01403492169512921
3554.0,0.014124642691606404
3553.0,0.014214382227394795
3552.0,0.014214382227394795
3551.0,0.014124642691606404
3550.0,0.013990068146738865
3549.0,0.013900374944870508
3548.0,0.013900374944870508
3547.0,0.013945219230304673
3546.0,0.01403492169512921
3545.0,0.01403492169512921
3544.0,0.014079779876432497
3543.0,0.014169510141607944
3542.0,0.014259258949925524
3541.0,0.014304140310157809
3540.0,0.014349026309051105
3539.0,0.014438812226654996
3538.0,0.014438812226654996
3537.0,0.014438812226654996
3536.0,0.014349026309051105
3535.0,0.014169510141607944
3534.0,0.01403492169512921
3533.0,0.013990068146738865
3532.0,0.013990068146738865
3531.0,0.013990068146738865
3530.0,0.013990068146738865
3529.0,0.013990068146738865
3528.0,0.013900374944870508
3527.0,0.01381070026317599
3526.0,0.013765869865004277
3525.0,0.01381070026317599
3524.0,0.01385553528947936
3523.0,0.013945219230304673
3522.0,0.01403492169512921
3521.0,0.014214382227394795
3520.0,0.014438812226654996
3519.0,0.014618439768003144
3518.0,0.014753209197138295
3517.0,0.014753209197138295
3516.0,0.014708281407112
3515.0,0.014573525916998342
3514.0,0.014393916947563534
3513.0,0.014214382227394795
3512.0,0.013990068146738865
3511.0,0.013900374944870508
3510.0,0.01385553528947936
3509.0,0.013900374944870508
3508.0,0.013945219230304673
3507.0,0.013990068146738865
3506.0,0.013945219230304673
3505.0,0.013900374944870508
3504.0,0.01381070026317599
3503.0,0.01381070026317599
3502.0,0.01381070026317599
3501.0,0.01385553528947936
3500.0,0.013945219230304673
3499.0,0.013990068146738865
3498.0,0.013990068146738865
3497.0,0.01403492169512921
3496.0,0.014124642691606404
3495.0,0.014169510141607944
3494.0,0.014214382227394795
3493.0,0.014169510141607944
3492.0,0.014079779876432497
3491.0,0.013990068146738865
3490.0,0.013945219230304673
3489.0,0.013900374944870508
3488.0,0.01381070026317599
3487.0,0.013676222949234651
3486.0,0.013631406429727155
3485.0,0.013676222949234651
3484.0,0.01381070026317599
3483.0,0.013990068146738865
3482.0,0.01403492169512921
3481.0,0.01403492169512921
3480.0,0.01403492169512921
3479.0,0.01403492169512921
3478.0,0.014124642691606404
3477.0,0.014259258949925524
3476.0,0.014304140310157809
3475.0,0.014259258949925524
3474.0,0.014169510141607944
3473.0,0.01403492169512921
3472.0,0.013990068146738865
3471.0,0.01403492169512921
3470.0,0.014079779876432497
3469.0,0.014169510141607944
3468.0,0.014259258949925524
3467.0,0.014349026309051105
3466.0,0.0144837121472845
3465.0,0.014573525916998342
3464.0,0.014618439768003144
3463.0,0.014663358264387139
3462.0,0.014618439768003144
3461.0,0.014573525916998342
3460.0,0.01452861671041239
3459.0,0.0144837121472845
3458.0,0.01452861671041239
3457.0,0.014618439768003144
3456.0,0.014798141635428141
3455.0,0.015022873584506602
3454.0,0.015247721884586563
3453.0,0.01538268676325183
3452.0,0.01547268665620738
3451.0,0.015562705203923999
3450.0,0.015652742414136167
3449.0,0.015742798294583915
3448.0,0.015877917138889863
3447.0,0.015922966097169144
3446.0,0.015922966097169144
3445.0,0.016013078034810446
3444.0,0.016238439713835096
3443.0,0.016509028184833463
3442.0,0.016734647433454652
3441.0,0.016824927962187042
3440.0,0.016734647433454652
3439.0,0.016599261819461697
3438.0,0.016509028184833463
3437.0,0.016509028184833463
3436.0,0.016644385668211692
3435.0,0.016870075265299933
3434.0,0.017095882207371904
3433.0,0.01727661233145472
3432.0,0.017367005605150476
3431.0,0.017367005605150476
3430.0,0.017321806616515723
3429.0,0.017186237868137555
3428.0,0.017141057687924732
3427.0,0.017095882207371904
3426.0,0.017050711425501408
3425.0,0.017005545341335804
3424.0,0.016870075265299933
3423.0,0.01677978535189717
3422.0,0.016644385668211692
3421.0,0.016554142658660398
3420.0,0.01646391839700767
3419.0,0.016373712875465518
3418.0,0.01628352608625061
3417.0,0.016148281008528276
3416.0,0.016013078034810446
3415.0,0.015877917138889863
3414.0,0.01578783323856614
3413.0,0.015607721475734415
3412.0,0.015427684378367834
3411.0,0.015247721884586563
3410.0,0.015202742910707112
3409.0,0.015247721884586563
3408.0,0.015292705517326866
3407.0,0.015292705517326866
3406.0,0.015157768594724175
3405.0,0.014932966849499074
3404.0,0.014663358264387139
3403.0,0.014438812226654996
3402.0,0.014169510141607944
3401.0,0.013945219230304673
3400.0,0.01381070026317599
3399.0,0.013765869865004277
3398.0,0.01381070026317599
3397.0,0.01385553528947936
3396.0,0.01385553528947936
3395.0,0.013900374944870508
3394.0,0.013990068146738865
3393.0,0.014079779876432497
3392.0,0.014079779876432497
3391.0,0.014079779876432497
3390.0,0.01403492169512921
3389.0,0.013990068146738865
3388.0,0.013990068146738865
3387.0,0.013945219230304673
3386.0,0.013945219230304673
3385.0,0.013900374944870508
3384.0,0.01381070026317599
3383.0,0.01372104409400876
3382.0,0.013676222949234651
3381.0,0.01372104409400876
3380.0,0.013765869865004277
3379.0,0.01385553528947936
3378.0,0.01385553528947936
3377.0,0.01385553528947936
3376.0,0.01385553528947936
3375.0,0.013900374944870508
3374.0,0.013900374944870508
3373.0,0.01385553528947936
3372.0,0.013765869865004277
3371.0,0.01372104409400876
3370.0,0.013676222949234651
3369.0,0.013676222949234651
3368.0,0.013631406429727155
3367.0,0.013631406429727155
3366.0,0.013631406429727155
3365.0,0.01372104409400876
3364.0,0.01381070026317599
3363.0,0.01381070026317599
3362.0,0.01381070026317599
3361.0,0.01372104409400876
3360.0,0.013676222949234651
3359.0,0.013631406429727155
3358.0,0.013631406429727155
3357.0,0.013631406429727155
3356.0,0.013631406429727155
3355.0,0.013586594534531482
3354.0,0.013631406429727155
3353.0,0.01372104409400876
3352.0,0.01381070026317599
3351.0,0.013900374944870508
3350.0,0.013900374944870508
3349.0,0.013900374944870508
3348.0,0.013900374944870508
3347.0,0.013900374944870508
3346.0,0.01385553528947936
3345.0,0.01385553528947936
3344.0,0.01385553528947936
3343.0,0.01381070026317599
3342.0,0.01372104409400876
3341.0,0.013676222949234651
3340.0,0.013676222949234651
3339.0,0.013676222949234651
3338.0,0.01372104409400876
3337.0,0.01372104409400876
3336.0,0.013676222949234651
3335.0,0.013631406429727155
3334.0,0.013586594534531482
3333.0,0.013586594534531482
3332.0,0.013631406429727155
3331.0,0.013676222949234651
3330.0,0.01372104409400876
3329.0,0.013765869865004277
3328.0,0.013765869865004277
3327.0,0.013765869865004277
3326.0,0.013765869865004277
3325.0,0.013765869865004277
3324.0,0.013765869865004277
3323.0,0.013765869865004277
3322.0,0.01372104409400876
3321.0,0.013631406429727155
3320.0,0.013541787262693505
3319.0,0.013541787262693505
3318.0,0.013541787262693505
3317.0,0.013541787262693505
3316.0,0.013541787262693505
3315.0,0.013541787262693505
3314.0,0.013586594534531482
3313.0,0.013586594534531482
3312.0,0.013586594534531482
3311.0,0.013541787262693505
3310.0,0.013496984613259544
3309.0,0.013407393177789162
3308.0,0.013407393177789162
3307.0,0.013452186585275916
3306.0,0.013586594534531482
3305.0,0.013676222949234651
3304.0,0.013676222949234651
3303.0,0.013586594534531482
3302.0,0.013496984613259544
3301.0,0.013407393177789162
3300.0,0.013407393177789162
3299.0,0.013541787262693505
3298.0,0.013676222949234651
3297.0,0.01372104409400876
3296.0,0.01372104409400876
3295.0,0.013631406429727155
3294.0,0.013586594534531482
3293.0,0.013541787262693505
3292.0,0.013541787262693505
3291.0,0.013541787262693505
3290.0,0.013452186585275916
3289.0,0.013362604389846044
3288.0,0.01322826573375524
3287.0,0.01318349541446362
3286.0,0.01322826573375524
3285.0,0.013317820220494436
3284.0,0.013317820220494436
3283.0,0.01322826573375524
3282.0,0.01318349541446362
3281.0,0.013138729709955221
3280.0,0.01318349541446362
3279.0,0.013317820220494436
3278.0,0.013452186585275916
3277.0,0.013541787262693505
3276.0,0.013541787262693505
3275.0,0.013452186585275916
3274.0,0.013362604389846044
3273.0,0.01322826573375524
3272.0,0.01318349541446362
3271.0,0.01318349541446362
3270.0,0.01322826573375524
3269.0,0.013362604389846044
3268.0,0.013496984613259544
3267.0,0.013496984613259544
3266.0,0.013407393177789162
3265.0,0.01322826573375524
3264.0,0.013093968619278806
3263.0,0.013004460275618523
3262.0,0.012870232340102872
3261.0,0.012780770091995297
3260.0,0.012736045877764557
3259.0,0.012736045877764557
3258.0,0.012914970375878188
3257.0,0.013138729709955221
3256.0,0.013273040668781544
3255.0,0.013317820220494436
3254.0,0.013273040668781544
3253.0,0.01322826573375524
3252.0,0.01318349541446362
3251.0,0.013138729709955221
3250.0,0.013093968619278806
3249.0,0.013049212141483357
3248.0,0.013049212141483357
3247.0,0.013093968619278806
3246.0,0.013049212141483357
3245.0,0.013004460275618523
3244.0,0.012959713020733288
3243.0,0.012959713020733288
3242.0,0.013049212141483357
3241.0,0.013093968619278806
3240.0,0.013049212141483357
3239.0,0.013004460275618523
3238.0,0.013004460275618523
3237.0,0.013049212141483357
3236.0,0.013138729709955221
3235.0,0.01318349541446362
3234.0,0.01318349541446362
3233.0,0.01318349541446362
3232.0,0.013138729709955221
3231.0,0.01318349541446362
3230.0,0.01322826573375524
3229.0,0.013273040668781544
3228.0,0.013362604389846044
3227.0,0.013407393177789162
3226.0,0.013452186585275916
3225.0,0.013407393177789162
3224.0,0.013362604389846044
3223.0,0.013317820220494436
3222.0,0.013273040668781544
3221.0,0.01322826573375524
3220.0,0.01322826573375524
3219.0,0.013273040668781544
3218.0,0.013273040668781544
3217.0,0.013273040668781544
3216.0,0.013273040668781544
3215.0,0.01322826573375524
3214.0,0.01318349541446362
3213.0,0.013138729709955221
3212.0,0.01318349541446362
3211.0,0.01318349541446362
3210.0,0.01318349541446362
3209.0,0.013138729709955221
3208.0,0.013049212141483357
3207.0,0.012959713020733288
3206.0,0.012870232340102872
3205.0,0.012825498912458322
3204.0,0.012825498912458322
3203.0,0.012870232340102872
3202.0,0.012959713020733288
3201.0,0.013004460275618523
3200.0,0.013004460275618523
3199.0,0.012959713020733288
3198.0,0.012914970375878188
3197.0,0.012825498912458322
3196.0,0.012780770091995297
3195.0,0.012825498912458322
3194.0,0.012870232340102872
3193.0,0.012870232340102872
3192.0,0.012870232340102872
3191.0,0.012825498912458322
3190.0,0.012914970375878188
3189.0,0.013049212141483357
3188.0,0.01318349541446362
3187.0,0.01318349541446362
3186.0,0.013049212141483357
3185.0,0.012870232340102872
3184.0,0.012691326268817527
3183.0,0.01264661126420652
3182.0,0.01264661126420652
3181.0,0.012736045877764557
3180.0,0.012825498912458322
3179.0,0.012914970375878188
3178.0,0.012870232340102872
3177.0,0.012825498912458322
3176.0,0.012736045877764557
3175.0,0.012691326268817527
3174.0,0.01264661126420652
3173.0,0.01260190086298274
3172.0,0.01264661126420652
3171.0,0.012691326268817527
3170.0,0.012691326268817527
3169.0,0.01264661126420652
3168.0,0.012512493866907004
3167.0,0.012423105273012602
3166.0,0.012378417874516323
3165.0,0.012378417874516323
3164.0,0.012467797270160563
3163.0,0.01264661126420652
3162.0,0.012870232340102872
3161.0,0.013004460275618523
3160.0,0.013049212141483357
3159.0,0.012914970375878188
3158.0,0.012691326268817527
3157.0,0.012512493866907004
3156.0,0.012423105273012602
3155.0,0.012467797270160563
3154.0,0.012512493866907004
3153.0,0.012512493866907004
3152.0,0.012467797270160563
3151.0,0.012423105273012602
3150.0,0.012512493866907004
3149.0,0.012691326268817527
3148.0,0.012780770091995297
3147.0,0.012825498912458322
3146.0,0.012825498912458322
3145.0,0.012870232340102872
3144.0,0.013004460275618523
3143.0,0.013093968619278806
3142.0,0.013138729709955221
3141.0,0.013093968619278806
3140.0,0.013004460275618523
3139.0,0.012959713020733288
3138.0,0.012914970375878188
3137.0,0.012959713020733288
3136.0,0.013049212141483357
3135.0,0.013138729709955221
3134.0,0.01322826573375524
3133.0,0.013362604389846044
3132.0,0.013452186585275916
3131.0,0.013541787262693505
3130.0,0.013586594534531482
3129.0,0.013676222949234651
3128.0,0.01372104409400876
3127.0,0.013676222949234651
3126.0,0.013541787262693505
3125.0,0.013362604389846044
3124.0,0.01322826573375524
3123.0,0.01318349541446362
3122.0,0.01318349541446362
3121.0,0.01322826573375524
3120.0,0.013317820220494436
3119.0,0.013407393177789162
3118.0,0.013541787262693505
3117.0,0.013631406429727155
3116.0,0.01372104409400876
3115.0,0.013765869865004277
3114.0,0.01381070026317599
3113.0,0.013900374944870508
3112.0,0.014079779876432497
3111.0,0.014349026309051105
3110.0,0.014663358264387139
3109.0,0.014843078722943437
3108.0,0.014977917890464765
3107.0,0.015112798935672522
3106.0,0.015202742910707112
3105.0,0.015247721884586563
3104.0,0.015247721884586563
3103.0,0.015202742910707112
3102.0,0.015067833932588037
3101.0,0.014932966849499074
3100.0,0.014753209197138295
3099.0,0.014663358264387139
3098.0,0.014573525916998342
3097.0,0.014573525916998342
3096.0,0.014573525916998342
3095.0,0.014573525916998342
3094.0,0.01452861671041239
3093.0,0.01452861671041239
3092.0,0.014573525916998342
3091.0,0.014663358264387139
3090.0,0.014753209197138295
3089.0,0.014888020460646079
3088.0,0.015022873584506602
3087.0,0.015202742910707112
3086.0,0.01538268676325183
3085.0,0.015562705203923999
3084.0,0.015697768020096703
3083.0,0.015742798294583915
3082.0,0.015742798294583915
3081.0,0.01578783323856614
3080.0,0.015832872853011715
3079.0,0.015922966097169144
3078.0,0.016013078034810446
3077.0,0.016013078034810446
3076.0,0.016013078034810446
3075.0,0.01596801972881945
3074.0,0.015922966097169144
3073.0,0.015832872853011715
3072.0,0.015832872853011715
3071.0,0.015877917138889863
3070.0,0.01596801972881945
3069.0,0.016058141016111804
3068.0,0.016058141016111804
3067.0,0.016013078034810446
3066.0,0.015922966097169144
3065.0,0.01578783323856614
3064.0,0.015697768020096703
3063.0,0.015697768020096703
3062.0,0.015742798294583915
3061.0,0.015877917138889863
3060.0,0.016013078034810446
3059.0,0.016148281008528276
3058.0,0.016238439713835096
3057.0,0.01632861713980338
3056.0,0.016418813294209356
3055.0,0.01646391839700767
3054.0,0.016373712875465518
3053.0,0.016238439713835096
3052.0,0.016103208673694303
3051.0,0.015877917138889863
3050.0,0.015652742414136167
3049.0,0.015337693809893471
3048.0,0.015022873584506602
3047.0,0.014663358264387139
3046.0,0.014349026309051105
3045.0,0.014124642691606404
3044.0,0.013990068146738865
3043.0,0.01385553528947936
3042.0,0.01372104409400876
3041.0,0.013631406429727155
3040.0,0.013541787262693505
3039.0,0.013496984613259544
3038.0,0.013496984613259544
3037.0,0.013496984613259544
3036.0,0.013452186585275916
3035.0,0.013407393177789162
3034.0,0.013407393177789162
3033.0,0.013407393177789162
3032.0,0.013452186585275916
3031.0,0.013452186585275916
3030.0,0.013452186585275916
3029.0,0.013452186585275916
3028.0,0.013541787262693505
3027.0,0.013676222949234651
3026.0,0.01385553528947936
3025.0,0.013990068146738865
3024.0,0.014169510141607944
3023.0,0.014349026309051105
3022.0,0.0144837121472845
3021.0,0.014708281407112
3020.0,0.014888020460646079
3019.0,0.015067833932588037
3018.0,0.015247721884586563
3017.0,0.015427684378367834
3016.0,0.015652742414136167
3015.0,0.015832872853011715
3014.0,0.016058141016111804
3013.0,0.016238439713835096
3012.0,0.01646391839700767
3011.0,0.016689514205884493
3010.0,0.016915227262211507
3009.0,0.017141057687924732
3008.0,0.017321806616515723
3007.0,0.017547848615010242
3006.0,0.01781925440359733
3005.0,0.01809082990920774
3004.0,0.01840788278591865
3003.0,0.018634490921455527
3002.0,0.018815862601645694
3001.0,0.01899731005860028
3000.0,0.019133445417920836
2999.0,0.019360432556262852
2998.0,0.01958753839310856
2997.0,0.019814763052665052
2996.0,0.019996628416253603
2995.0,0.020178569969774962
2994.0,0.020406104151069693
2993.0,0.02067930261797568
2992.0,0.0209982515252789
2991.0,0.021363051615525652
2990.0,0.021728158389364705
2989.0,0.02204787879853809
2988.0,0.022367834754000393
2987.0,0.022688026603074007
2986.0,0.02300845469384938
2985.0,0.023329119375188556
2984.0,0.023604163388120325
2983.0,0.023879381700184332
2982.0,0.024200690320592466
2981.0,0.024522236834125355
2980.0,0.024890010313838973
2979.0,0.025350165561278004
2978.0,0.025856900097785074
2977.0,0.026410376572743033
2976.0,0.02691835039863255
2975.0,0.02738066094037661
2974.0,0.027750864037404455
2973.0,0.02812138297373412
2972.0,0.028538594975413334
2971.0,0.028956208163971375
2970.0,0.02942069428514915
2969.0,0.029932203450862893
2968.0,0.030444315779156517
2967.0,0.03105031901865729
2966.0,0.031657169041054534
2965.0,0.03217132066984485
2964.0,0.032592443402527316
2963.0,0.032873418923587305
2962.0,0.033154576345083564
2961.0,0.033295223342125535
2960.0,0.03334211579824231
2959.0,0.0332483359486222
2958.0,0.033060836978886954
2957.0,0.03282657704446046
2956.0,0.032592443402527316
2955.0,0.03235843591698884
2954.0,0.032031037121307726
2953.0,0.03161045815293173
2952.0,0.031143625385307683
2951.0,0.030537492025363155
2950.0,0.029839156962686353
2949.0,0.029141943003497595
2948.0,0.028445846553939003
2947.0,0.027750864037404455
2946.0,0.027056991894431892
2945.0,0.026318081496016443
2944.0,0.02553436426275746
2943.0,0.02475205875931885
2942.0,0.02406295751688936
2941.0,0.023466619608062178
2940.0,0.02291687968414724
2939.0,0.02245929405346514
2938.0,0.02200219004126036
2937.0,0.02159120737696063
2936.0,0.02122621566987748
2935.0,0.020952673052035298
2934.0,0.020724852408976924
2933.0,0.02045162529590483
2932.0,0.020178569969774962
2931.0,0.01995115493504329
2930.0,0.019769308608968306
2929.0,0.019678413991243593
2928.0,0.01958753839310856
2927.0,0.01954210772389997
2926.0,0.019451260640229506
2925.0,0.019360432556262852
2924.0,0.019269623464054586
2923.0,0.0192242260373785
2922.0,0.0192242260373785
2921.0,0.0192242260373785
2920.0,0.019269623464054586
2919.0,0.019315025636685412
2918.0,0.019315025636685412
2917.0,0.019269623464054586
2916.0,0.019269623464054586
2915.0,0.019315025636685412
2914.0,0.019360432556262852
2913.0,0.01940584422377989
2912.0,0.01954210772389997
2911.0,0.019678413991243593
2910.0,0.019769308608968306
2909.0,0.019814763052665052
2908.0,0.019814763052665052
2907.0,0.019814763052665052
2906.0,0.019860222254245663
2905.0,0.01990568621470623
2904.0,0.019996628416253603
2903.0,0.020087589665283012
2902.0,0.020178569969774962
2901.0,0.020315076172974234
2900.0,0.020406104151069693
2899.0,0.020497151212598652
2898.0,0.020497151212598652
2897.0,0.02045162529590483
2896.0,0.020406104151069693
2895.0,0.02045162529590483
2894.0,0.02058821736556471
2893.0,0.02067930261797568
2892.0,0.020770406977844713
2891.0,0.020861530453190058
2890.0,0.020952673052035298
2889.0,0.0209982515252789
2888.0,0.020952673052035298
2887.0,0.020861530453190058
2886.0,0.020770406977844713
2885.0,0.02067930261797568
2884.0,0.020542681902151694
2883.0,0.020406104151069693
2882.0,0.020178569969774962
2881.0,0.01990568621470623
2880.0,0.019632973815224997
2879.0,0.019451260640229506
2878.0,0.019269623464054586
2877.0,0.019133445417920836
2876.0,0.018951941086827073
2875.0,0.018861217359339655
2874.0,0.018770512579999288
2873.0,0.018725167293411005
2872.0,0.018679826740892747
2871.0,0.018634490921455527
2870.0,0.018543833477873584
2869.0,0.01840788278591865
2868.0,0.018271974638383703
2867.0,0.018136109008649592
2866.0,0.018045555530026514
2865.0,0.01800028587012159
2864.0,0.017909760704207134
2863.0,0.017774008325325275
2862.0,0.017638298366853045
2861.0,0.017502630802287644
2860.0,0.017457417697056554
2859.0,0.017412209298337533
2858.0,0.017321806616515723
2857.0,0.017186237868137555
2856.0,0.017005545341335804
2855.0,0.016870075265299933
2854.0,0.016824927962187042
2853.0,0.016824927962187042
2852.0,0.01677978535189717
2851.0,0.016734647433454652
2850.0,0.016599261819461697
2849.0,0.016373712875465518
2848.0,0.016103208673694303
2847.0,0.015877917138889863
2846.0,0.015652742414136167
2845.0,0.015517693597737248
2844.0,0.01538268676325183
2843.0,0.015202742910707112
2842.0,0.014977917890464765
2841.0,0.014798141635428141
2840.0,0.014618439768003144
2839.0,0.01452861671041239
2838.0,0.0144837121472845
2837.0,0.014438812226654996
2836.0,0.014304140310157809
2835.0,0.014169510141607944
2834.0,0.01403492169512921
2833.0,0.013945219230304673
2832.0,0.013900374944870508
2831.0,0.01385553528947936
2830.0,0.01381070026317599
2829.0,0.01372104409400876
2828.0,0.013631406429727155
2827.0,0.013586594534531482
2826.0,0.013541787262693505
2825.0,0.013586594534531482
2824.0,0.013631406429727155
2823.0,0.013586594534531482
2822.0,0.013541787262693505
2821.0,0.013452186585275916
2820.0,0.013362604389846044
2819.0,0.013317820220494436
2818.0,0.013273040668781544
2817.0,0.01322826573375524
2816.0,0.01318349541446362
2815.0,0.01318349541446362
2814.0,0.013138729709955221
2813.0,0.013093968619278806
2812.0,0.013138729709955221
2811.0,0.013138729709955221
2810.0,0.013138729709955221
2809.0,0.013138729709955221
2808.0,0.013138729709955221
2807.0,0.013138729709955221
2806.0,0.013138729709955221
2805.0,0.013093968619278806
2804.0,0.013049212141483357
2803.0,0.013004460275618523
2802.0,0.013004460275618523
2801.0,0.012959713020733288
2800.0,0.012914970375878188
2799.0,0.012825498912458322
2798.0,0.012780770091995297
2797.0,0.012736045877764557
2796.0,0.012691326268817527
2795.0,0.012691326268817527
2794.0,0.01260190086298274
2793.0,0.012557195064198723
2792.0,0.012557195064198723
2791.0,0.01260190086298274
2790.0,0.012691326268817527
2789.0,0.012780770091995297
2788.0,0.012825498912458322
2787.0,0.012736045877764557
2786.0,0.01260190086298274
2785.0,0.012467797270160563
2784.0,0.012423105273012602
2783.0,0.012423105273012602
2782.0,0.012423105273012602
2781.0,0.012423105273012602
2780.0,0.012378417874516323
2779.0,0.012333735073725371
2778.0,0.012333735073725371
2777.0,0.012289056869694281
2776.0,0.012289056869694281
2775.0,0.012199714248127602
2774.0,0.01215504982870197
2773.0,0.012110390002254778
2772.0,0.012110390002254778
2771.0,0.012110390002254778
2770.0,0.01215504982870197
2769.0,0.012199714248127602
2768.0,0.012244383261476699
2767.0,0.012199714248127602
2766.0,0.012110390002254778
2765.0,0.012021084124518078
2764.0,0.011931796607364653
2763.0,0.011931796607364653
2762.0,0.012021084124518078
2761.0,0.01215504982870197
2760.0,0.012333735073725371
2759.0,0.012378417874516323
2758.0,0.012378417874516323
2757.0,0.012333735073725371
2756.0,0.012244383261476699
2755.0,0.012199714248127602
2754.0,0.01215504982870197
2753.0,0.012110390002254778
2752.0,0.012065734767841452
2751.0,0.0119764380713403
2750.0,0.011887159731648111
2749.0,0.011842527443247208
2748.0,0.011797899741219142
2747.0,0.011842527443247208
2746.0,0.011887159731648111
2745.0,0.011887159731648111
2744.0,0.011887159731648111
2743.0,0.011887159731648111
2742.0,0.011887159731648111
2741.0,0.011842527443247208
2740.0,0.011797899741219142
2739.0,0.011753276624621556
2738.0,0.011708658092512314
2737.0,0.011664044143949504
2736.0,0.011619434777991433
2735.0,0.011619434777991433
2734.0,0.011619434777991433
2733.0,0.011619434777991433
2732.0,0.011530229790124524
2731.0,0.011396456654336085
2730.0,0.011262724711199823
2729.0,0.011218156546359825
2728.0,0.011218156546359825
2727.0,0.011307297450183107
2726.0,0.011307297450183107
2725.0,0.011218156546359825
2724.0,0.01117359295472431
2723.0,0.011129033935354915
2722.0,0.01117359295472431
2721.0,0.011218156546359825
2720.0,0.011218156546359825
2719.0,0.011218156546359825
2718.0,0.011218156546359825
2717.0,0.01117359295472431
2716.0,0.011218156546359825
2715.0,0.011218156546359825
2714.0,0.011218156546359825
2713.0,0.011129033935354915
2712.0,0.010950843561779777
2711.0,0.010817248744452446
2710.0,0.01077272626946324
2709.0,0.01077272626946324
2708.0,0.010817248744452446
2707.0,0.010817248744452446
2706.0,0.01086177578421088
2705.0,0.01086177578421088
2704.0,0.010950843561779777
2703.0,0.011039929609661936
2702.0,0.011129033935354915
2701.0,0.01117359295472431
2700.0,0.011218156546359825
2699.0,0.01117359295472431
2698.0,0.011084479487313281
2697.0,0.010995384301463185
2696.0,0.010906307389674463
2695.0,0.010906307389674463
2694.0,0.010906307389674463
2693.0,0.010906307389674463
2692.0,0.01086177578421088
2691.0,0.010817248744452446
2690.0,0.01077272626946324
2689.0,0.010728208358306901
2688.0,0.010683695010048622
2687.0,0.010639186223752484
2686.0,0.010639186223752484
2685.0,0.010683695010048622
2684.0,0.01077272626946324
2683.0,0.01086177578421088
2682.0,0.01086177578421088
2681.0,0.010817248744452446
2680.0,0.010817248744452446
2679.0,0.01077272626946324
2678.0,0.010683695010048622
2677.0,0.010550182333308289
2676.0,0.010416710688994968
2675.0,0.010327752376126709
2674.0,0.010327752376126709
2673.0,0.01037222925484893
2672.0,0.01037222925484893
2671.0,0.01037222925484893
2670.0,0.010283280051895272
2669.0,0.010194349063173958
2668.0,0.010149890396819572
2667.0,0.010194349063173958
2666.0,0.010283280051895272
2665.0,0.010327752376126709
2664.0,0.010327752376126709
2663.0,0.010327752376126709
2662.0,0.010283280051895272
2661.0,0.010327752376126709
2660.0,0.010416710688994968
2659.0,0.01046119667949763
2658.0,0.010505687227290839
2657.0,0.01046119667949763
2656.0,0.01037222925484893
2655.0,0.010283280051895272
2654.0,0.01023881228122181
2653.0,0.01023881228122181
2652.0,0.010283280051895272
2651.0,0.010327752376126709
2650.0,0.010327752376126709
2649.0,0.010327752376126709
2648.0,0.010194349063173958
2647.0,0.010060986715464404
2646.0,0.009883233932095559
2645.0,0.009838807101520963
2644.0,0.009883233932095559
2643.0,0.01001654169860089
2642.0,0.010105436281226954
2641.0,0.010149890396819572
2640.0,0.010149890396819572
2639.0,0.010149890396819572
2638.0,0.010149890396819572
2637.0,0.01023881228122181
2636.0,0.010327752376126709
2635.0,0.01037222925484893
2634.0,0.01037222925484893
2633.0,0.010327752376126709
2632.0,0.010327752376126709
2631.0,0.010327752376126709
2630.0,0.010327752376126709
2629.0,0.010283280051895272
2628.0,0.01023881228122181
2627.0,0.010194349063173958
2626.0,0.010194349063173958
2625.0,0.010194349063173958
2624.0,0.01023881228122181
2623.0,0.01023881228122181
2622.0,0.01023881228122181
2621.0,0.01023881228122181
2620.0,0.010283280051895272
2619.0,0.010283280051895272
2618.0,0.010283280051895272
2617.0,0.01023881228122181
2616.0,0.01023881228122181
2615.0,0.01023881228122181
2614.0,0.01023881228122181
2613.0,0.01023881228122181
2612.0,0.010283280051895272
2611.0,0.010283280051895272
2610.0,0.010283280051895272
2609.0,0.01023881228122181
2608.0,0.01023881228122181
2607.0,0.01023881228122181
2606.0,0.010283280051895272
2605.0,0.010283280051895272
2604.0,0.010327752376126709
2603.0,0.010283280051895272
2602.0,0.010283280051895272
2601.0,0.01023881228122181
2600.0,0.010194349063173958
2599.0,0.010149890396819572
2598.0,0.010149890396819572
2597.0,0.010149890396819572
2596.0,0.010149890396819572
2595.0,0.010194349063173958
2594.0,0.01023881228122181
2593.0,0.010194349063173958
2592.0,0.010149890396819572
2591.0,0.010105436281226954
2590.0,0.010105436281226954
2589.0,0.010105436281226954
2588.0,0.010149890396819572
2587.0,0.010194349063173958
2586.0,0.010194349063173958
2585.0,0.010149890396819572
2584.0,0.010149890396819572
2583.0,0.010194349063173958
2582.0,0.01023881228122181
2581.0,0.010283280051895272
2580.0,0.010327752376126709
2579.0,0.010327752376126709
2578.0,0.010283280051895272
2577.0,0.01023881228122181
2576.0,0.01023881228122181
2575.0,0.01023881228122181
2574.0,0.01023881228122181
2573.0,0.010194349063173958
2572.0,0.010149890396819572
2571.0,0.010149890396819572
2570.0,0.010194349063173958
2569.0,0.010283280051895272
2568.0,0.010327752376126709
2567.0,0.01037222925484893
2566.0,0.010327752376126709
2565.0,0.010327752376126709
2564.0,0.010327752376126709
2563.0,0.010327752376126709
2562.0,0.01037222925484893
2561.0,0.01037222925484893
2560.0,0.010327752376126709
2559.0,0.010327752376126709
2558.0,0.010327752376126709
2557.0,0.010327752376126709
2556.0,0.010327752376126709
2555.0,0.010327752376126709
2554.0,0.010327752376126709
2553.0,0.01023881228122181
2552.0,0.010149890396819572
2551.0,0.010105436281226954
2550.0,0.010105436281226954
2549.0,0.010149890396819572
2548.0,0.010149890396819572
2547.0,0.010105436281226954
2546.0,0.010060986715464404
2545.0,0.010060986715464404
2544.0,0.010060986715464404
2543.0,0.010105436281226954
2542.0,0.010149890396819572
2541.0,0.010149890396819572
2540.0,0.010149890396819572
2539.0,0.010105436281226954
2538.0,0.010060986715464404
2537.0,0.01001654169860089
2536.0,0.01001654169860089
2535.0,0.010060986715464404
2534.0,0.010105436281226954
2533.0,0.010149890396819572
2532.0,0.010194349063173958
2531.0,0.010194349063173958
2530.0,0.010194349063173958
2529.0,0.010105436281226954
2528.0,0.010060986715464404
2527.0,0.01001654169860089
2526.0,0.01001654169860089
2525.0,0.01001654169860089
2524.0,0.009972101229705377
2523.0,0.01001654169860089
2522.0,0.01001654169860089
2521.0,0.01001654169860089
2520.0,0.01001654169860089
2519.0,0.009972101229705377
2518.0,0.009972101229705377
2517.0,0.009972101229705377
2516.0,0.009972101229705377
2515.0,0.009972101229705377
2514.0,0.009927665307847056
2513.0,0.009838807101520963
2512.0,0.009838807101520963
2511.0,0.009883233932095559
2510.0,0.009883233932095559
2509.0,0.009838807101520963
2508.0,0.009794384815193347
2507.0,0.009705553871561357
2506.0,0.009616741093766423
2505.0,0.009572341514736404
2504.0,0.009527946474380489
2503.0,0.009483555971770974
2502.0,0.009439170005980158
2501.0,0.009439170005980158
2500.0,0.009439170005980158
2499.0,0.009483555971770974
2498.0,0.009572341514736404
2497.0,0.009616741093766423
2496.0,0.009616741093766423
2495.0,0.009527946474380489
2494.0,0.009439170005980158
2493.0,0.009350411681145587
2492.0,0.009306039320248427
2491.0,0.009350411681145587
2490.0,0.009350411681145587
2489.0,0.009350411681145587
2488.0,0.009306039320248427
2487.0,0.009261671492462709
2486.0,0.009172949432521227
2485.0,0.009128595198514056
2484.0,0.00908424549391551
2483.0,0.009039900317800775
2482.0,0.008995559669244813
2481.0,0.008995559669244813
2480.0,0.008995559669244813
2479.0,0.008995559669244813
2478.0,0.008995559669244813
2477.0,0.008995559669244813
2476.0,0.008995559669244813
2475.0,0.008951223547323472
2474.0,0.008906891951112605
2473.0,0.008773924307505121
2472.0,0.008685301823389224
2471.0,0.008596697419959609
2470.0,0.008552401996197112
2469.0,0.008552401996197112
2468.0,0.008596697419959609
2467.0,0.008596697419959609
2466.0,0.008640997362049818
2465.0,0.008596697419959609
2464.0,0.00850811108984062
2463.0,0.008375265465994541
2462.0,0.008242460465651913
2461.0,0.008153946355103248
2460.0,0.008109696063975047
2459.0,0.008153946355103248
2458.0,0.008242460465651913
2457.0,0.008375265465994541
2456.0,0.008463824699968647
2455.0,0.008552401996197112
2454.0,0.008552401996197112
2453.0,0.008463824699968647
2452.0,0.008375265465994541
2451.0,0.008330992620051436
2450.0,0.008330992620051436
2449.0,0.008375265465994541
2448.0,0.008375265465994541
2447.0,0.008375265465994541
2446.0,0.008330992620051436
2445.0,0.008330992620051436
2444.0,0.008330992620051436
2443.0,0.008330992620051436
2442.0,0.008330992620051436
2441.0,0.008286724286910463
2440.0,0.008242460465651913
2439.0,0.008198201155356077
2438.0,0.008153946355103248
2437.0,0.008109696063975047
2436.0,0.008065450281052211
2435.0,0.008109696063975047
2434.0,0.008198201155356077
2433.0,0.008286724286910463
2432.0,0.008375265465994541
2431.0,0.008375265465994541
2430.0,0.008330992620051436
2429.0,0.008242460465651913
2428.0,0.008286724286910463
2427.0,0.008375265465994541
2426.0,0.008419542825660153
2425.0,0.008463824699968647
2424.0,0.008463824699968647
2423.0,0.00850811108984062
2422.0,0.008552401996197112
2421.0,0.008596697419959609
2420.0,0.008640997362049818
2419.0,0.008596697419959609
2418.0,0.008596697419959609
2417.0,0.008640997362049818
2416.0,0.008685301823389224
2415.0,0.0087296108049002
2414.0,0.0087296108049002
2413.0,0.008685301823389224
2412.0,0.008685301823389224
2411.0,0.008685301823389224
2410.0,0.008685301823389224
2409.0,0.0087296108049002
2408.0,0.0087296108049002
2407.0,0.008773924307505121
2406.0,0.008773924307505121
2405.0,0.008773924307505121
2404.0,0.008862564879688284
2403.0,0.008995559669244813
2402.0,0.00908424549391551
2401.0,0.009128595198514056
2400.0,0.00908424549391551
2399.0,0.009039900317800775
2398.0,0.00908424549391551
2397.0,0.009128595198514056
2396.0,0.009172949432521227
2395.0,0.009217308196862062
2394.0,0.009172949432521227
2393.0,0.009128595198514056
2392.0,0.00908424549391551
2391.0,0.008995559669244813
2390.0,0.008951223547323472
2389.0,0.008951223547323472
2388.0,0.008951223547323472
2387.0,0.008906891951112605
2386.0,0.008818242332126802
2385.0,0.008685301823389224
2384.0,0.008419542825660153
2383.0,0.008242460465651913
2382.0,0.008065450281052211
2381.0,0.007976972236149349
2380.0,0.007932739972333236
2379.0,0.007932739972333236
2378.0,0.007844288957383316
2377.0,0.00762324020119709
2376.0,0.007358130121602358
2375.0,0.007137328610972382
2374.0,0.007093181776687496
2373.0,0.007181479933320523
2372.0,0.007269796045857202
2371.0,0.007358130121602358
2370.0,0.007313960837872058
2369.0,0.007137328610972382
2368.0,0.00696076819309055
2367.0,0.006872514894289861
2366.0,0.007004901568658406
2365.0,0.007313960837872058
2364.0,0.007711646202907652
2363.0,0.007844288957383316
2362.0,0.007534852191956709
2361.0,0.006784279525863024
2360.0,0.00625524344553785
2359.0,0.00625524344553785
2358.0,0.006431517210272464
2357.0,0.006299305179649828
2356.0,0.005726851026829571
2355.0,0.005199100705396198
2354.0,0.005023326350308999
2353.0,0.005155150446602086
2352.0,0.00537494623139545
2351.0,0.005682847330363394
2350.0,0.005990966876386672
2349.0,0.006079041198713275
2348.0,0.00577085918230158
2347.0,0.005199100705396198
2346.0,0.00489154225525934
2345.0,0.005155150446602086
2344.0,0.005726851026829571
2343.0,0.006299305179649828
2342.0,0.006696062080525422
2341.0,0.006740168563263094
2340.0,0.006431517210272464
2339.0,0.005946936412324799
2338.0,0.005594853310833647
2337.0,0.00537494623139545
2336.0,0.005199100705396198
2335.0,0.004979393875242044
2334.0,0.004671990922590297
2333.0,0.0044964297349936455
2332.0,0.0044964297349936455
2331.0,0.004628093971837721
2330.0,0.00489154225525934
2329.0,0.005155150446602086
2328.0,0.005330978174470591
2327.0,0.005506877116487674
2326.0,0.005682847330363394
2325.0,0.005858888873877532
2324.0,0.00590291041179003
2323.0,0.005858888873877532
2322.0,0.00590291041179003
2321.0,0.006035001804881146
2320.0,0.006299305179649828
2319.0,0.006519680930003435
2318.0,0.006696062080525422
2317.0,0.006784279525863024
2316.0,0.006828394969235152
2315.0,0.006784279525863024
2314.0,0.006651960076740071
2313.0,0.006475596832934416
2312.0,0.006343371384537999
2311.0,0.006299305179649828
2310.0,0.006299305179649828
2309.0,0.006343371384537999
2308.0,0.006431517210272464
2307.0,0.006519680930003435
2306.0,0.006519680930003435
2305.0,0.006519680930003435
2304.0,0.006519680930003435
2303.0,0.00656376950238835
2302.0,0.006651960076740071
2301.0,0.006740168563263094
2300.0,0.006784279525863024
2299.0,0.006740168563263094
2298.0,0.006651960076740071
2297.0,0.006607862550997545
2296.0,0.006696062080525422
2295.0,0.006828394969235152
2294.0,0.006916639301937977
2293.0,0.00696076819309055
2292.0,0.007049039429553483
2291.0,0.007137328610972382
2290.0,0.007181479933320523
2289.0,0.007181479933320523
2288.0,0.007137328610972382
2287.0,0.007093181776687496
2286.0,0.007137328610972382
2285.0,0.007225635744644521
2284.0,0.007358130121602358
2283.0,0.007358130121602358
2282.0,0.007269796045857202
2281.0,0.007181479933320523
2280.0,0.007093181776687496
2279.0,0.007049039429553483
2278.0,0.007049039429553483
2277.0,0.007049039429553483
2276.0,0.007049039429553483
2275.0,0.00696076819309055
2274.0,0.006872514894289861
2273.0,0.006784279525863024
2272.0,0.006784279525863024
2271.0,0.006784279525863024
2270.0,0.006740168563263094
2269.0,0.006740168563263094
2268.0,0.006696062080525422
2267.0,0.006696062080525422
2266.0,0.006696062080525422
2265.0,0.006651960076740071
2264.0,0.006607862550997545
2263.0,0.006519680930003435
2262.0,0.006475596832934416
2261.0,0.006475596832934416
2260.0,0.006475596832934416
2259.0,0.006519680930003435
2258.0,0.006519680930003435
2257.0,0.006475596832934416
2256.0,0.006431517210272464
2255.0,0.006387442061109638
2254.0,0.006387442061109638
2253.0,0.006431517210272464
2252.0,0.006475596832934416
2251.0,0.006519680930003435
2250.0,0.00656376950238835
2249.0,0.006607862550997545
2248.0,0.006607862550997545
2247.0,0.00656376950238835
2246.0,0.006519680930003435
2245.0,0.006519680930003435
2244.0,0.006519680930003435
2243.0,0.006519680930003435
2242.0,0.006431517210272464
2241.0,0.006343371384537999
2240.0,0.00625524344553785
2239.0,0.00625524344553785
2238.0,0.00625524344553785
2237.0,0.00621118618129457
2236.0,0.00625524344553785
2235.0,0.006299305179649828
2234.0,0.006343371384537999
2233.0,0.006343371384537999
2232.0,0.006343371384537999
2231.0,0.006343371384537999
2230.0,0.006299305179649828
2229.0,0.00625524344553785
2228.0,0.00621118618129457
2227.0,0.006167133386013823
2226.0,0.00612308505878878
2225.0,0.006035001804881146
2224.0,0.006035001804881146
2223.0,0.006035001804881146
2222.0,0.006035001804881146
2221.0,0.006035001804881146
2220.0,0.005990966876386672
2219.0,0.00590291041179003
2218.0,0.005858888873877532
2217.0,0.005814871797682919
2216.0,0.00577085918230158
2215.0,0.00577085918230158
2214.0,0.00577085918230158
2213.0,0.00577085918230158
2212.0,0.00577085918230158
2211.0,0.005814871797682919
2210.0,0.005858888873877532
2209.0,0.00590291041179003
2208.0,0.00590291041179003
2207.0,0.00590291041179003
2206.0,0.005858888873877532
2205.0,0.005814871797682919
2204.0,0.005726851026829571
2203.0,0.005638848091999105
2202.0,0.005594853310833647
2201.0,0.005506877116487674
2200.0,0.005462895701502157
2199.0,0.00541891874010525
2198.0,0.00537494623139545
2197.0,0.005330978174470591
2196.0,0.005243055412371911
2195.0,0.005243055412371911
2194.0,0.005199100705396198
2193.0,0.005243055412371911
2192.0,0.005243055412371911
2191.0,0.005199100705396198
2190.0,0.005111204635089406
2189.0,0.005067263269958211
2188.0,0.005023326350308999
2187.0,0.005067263269958211
2186.0,0.005155150446602086
2185.0,0.0052870145684298375
2184.0,0.00537494623139545
2183.0,0.00541891874010525
2182.0,0.00537494623139545
2181.0,0.005330978174470591
2180.0,0.0052870145684298375
2179.0,0.005243055412371911
2178.0,0.005243055412371911
2177.0,0.005243055412371911
2176.0,0.005243055412371911
2175.0,0.005243055412371911
2174.0,0.005243055412371911
2173.0,0.0052870145684298375
2172.0,0.005330978174470591
2171.0,0.00541891874010525
2170.0,0.005462895701502157
2169.0,0.005506877116487674
2168.0,0.005462895701502157
2167.0,0.00541891874010525
2166.0,0.00537494623139545
2165.0,0.005330978174470591
2164.0,0.005330978174470591
2163.0,0.00537494623139545
2162.0,0.00541891874010525
2161.0,0.00541891874010525
2160.0,0.00541891874010525
2159.0,0.00541891874010525
2158.0,0.005462895701502157
2157.0,0.005506877116487674
2156.0,0.005550862985963967
2155.0,0.005594853310833647
2154.0,0.005638848091999105
2153.0,0.005638848091999105
2152.0,0.005594853310833647
2151.0,0.005550862985963967
2150.0,0.005506877116487674
2149.0,0.005550862985963967
2148.0,0.005594853310833647
2147.0,0.005638848091999105
2146.0,0.005638848091999105
2145.0,0.005638848091999105
2144.0,0.005638848091999105
2143.0,0.005638848091999105
2142.0,0.005682847330363394
2141.0,0.005682847330363394
2140.0,0.005638848091999105
2139.0,0.005594853310833647
2138.0,0.005550862985963967
2137.0,0.005550862985963967
2136.0,0.005550862985963967
2135.0,0.005638848091999105
2134.0,0.005682847330363394
2133.0,0.005682847330363394
2132.0,0.005682847330363394
2131.0,0.005638848091999105
2130.0,0.005638848091999105
2129.0,0.005594853310833647
2128.0,0.005506877116487674
2127.0,0.005462895701502157
2126.0,0.00541891874010525
2125.0,0.00537494623139545
2124.0,0.00537494623139545
2123.0,0.00537494623139545
2122.0,0.00537494623139545
2121.0,0.00541891874010525
2120.0,0.00537494623139545
2119.0,0.00537494623139545
2118.0,0.005330978174470591
2117.0,0.005330978174470591
2116.0,0.005330978174470591
2115.0,0.0052870145684298375
2114.0,0.005243055412371911
2113.0,0.005243055412371911
2112.0,0.005243055412371911
2111.0,0.005330978174470591
2110.0,0.00537494623139545
2109.0,0.005330978174470591
2108.0,0.0052870145684298375
2107.0,0.005199100705396198
2106.0,0.005155150446602086
2105.0,0.005111204635089406
2104.0,0.005111204635089406
2103.0,0.005155150446602086
2102.0,0.005199100705396198
2101.0,0.005243055412371911
2100.0,0.005243055412371911
2099.0,0.005199100705396198
2098.0,0.005111204635089406
2097.0,0.005023326350308999
2096.0,0.004935465843858511
2095.0,0.00484762310854614
2094.0,0.00484762310854614
2093.0,0.00484762310854614
2092.0,0.00489154225525934
2091.0,0.00489154225525934
2090.0,0.00484762310854614
2089.0,0.004759798137184523
2088.0,0.004671990922590297
2087.0,0.004628093971837721
2086.0,0.00458420145758498
2085.0,0.004540313378935901
2084.0,0.0044964297349936455
2083.0,0.0044964297349936455
2082.0,0.0044964297349936455
2081.0,0.004452550524862486
2080.0,0.004408675747646695
2079.0,0.004408675747646695
2078.0,0.0043648054024501
2077.0,0.0043648054024501
2076.0,0.004320939488377862
2075.0,0.004233220950025984
2074.0,0.004145520125434121
2073.0,0.0040578370074493275
2072.0,0.003970171588923321
2071.0,0.003926345514724705
2070.0,0.0038825238627120395
2069.0,0.0038387066319929275
2068.0,0.003794893821675638
2067.0,0.0037510854308679953
2066.0,0.003707281458678491
2065.0,0.0036634819042162814
2064.0,0.003619686766589858
2063.0,0.0035321097382827737
2062.0,0.0034445503666347133
2061.0,0.0033570086445275926
2060.0,0.0033132443998284966
2059.0,0.0032257291386954545
2058.0,0.0031382315093266833
2057.0,0.003050751504618754
2056.0,0.0030070181092942683
2055.0,0.0029632891174733444
2054.0,0.0029195645282691363
2053.0,0.0029195645282691363
2052.0,0.0029195645282691363
2051.0,0.0029632891174733444
2050.0,0.0029632891174733444
2049.0,0.0029632891174733444
2048.0,0.0029195645282691363
2047.0,0.0027884171674950053
2046.0,0.002701007590486082
2045.0,0.002613615602686581
2044.0,0.002613615602686581
2043.0,0.0026573093983774942
2042.0,0.002701007590486082
2041.0,0.0027447101798967477
2040.0,0.0027447101798967477
2039.0,0.0026573093983774942
2038.0,0.002569926202528716
2037.0,0.002482560585275184
2036.0,0.002482560585275184
2035.0,0.0025262411970197185
2034.0,0.002482560585275184
2033.0,0.002395212539545666
2032.0,0.002351545103793873
2031.0,0.0023078820582733695
2030.0,0.0023078820582733695
2029.0,0.002351545103793873
2028.0,0.002395212539545666
2027.0,0.002395212539545666
2026.0,0.002395212539545666
2025.0,0.002395212539545666
2024.0,0.0023078820582733695
2023.0,0.0022205691343961664
2022.0,0.0021332737608552588
2021.0,0.0020459959305969555
2020.0,0.0020459959305969555
2019.0,0.0021332737608552588
2018.0,0.0022642234021015284
2017.0,0.002395212539545666
2016.0,0.002482560585275184
2015.0,0.002482560585275184
2014.0,0.002395212539545666
2013.0,0.0023078820582733695
2012.0,0.0022642234021015284
2011.0,0.0022642234021015284
2010.0,0.0022642234021015284
2009.0,0.0023078820582733695
2008.0,0.0023078820582733695
2007.0,0.002351545103793873
2006.0,0.002395212539545666
2005.0,0.0024388843664115978
2004.0,0.002482560585275184
2003.0,0.0025262411970197185
2002.0,0.0025262411970197185
2001.0,0.002613615602686581
2000.0,0.002701007590486082
1999.0,0.0027884171674950053
1998.0,0.0028758443407954637
1997.0,0.0028758443407954637
1996.0,0.0028321285541661467
1995.0,0.0028321285541661467
1994.0,0.0029195645282691363
1993.0,0.0030070181092942683
1992.0,0.0030944893043338695
1991.0,0.0031819781204844855
1990.0,0.0032257291386954545
1989.0,0.0032694845648473247
1988.0,0.0032694845648473247
1987.0,0.0032257291386954545
1986.0,0.0032257291386954545
1985.0,0.0032257291386954545
1984.0,0.0032694845648473247
1983.0,0.0033132443998284966
1982.0,0.0033570086445275926
1981.0,0.0033570086445275926
1980.0,0.0034007772998332353
1979.0,0.0034445503666347133
1978.0,0.0034445503666347133
1977.0,0.0034445503666347133
1976.0,0.0034445503666347133
1975.0,0.003488327845821315
1974.0,0.0035321097382827737
1973.0,0.0035758960449088217
1972.0,0.0036634819042162814
1971.0,0.0037510854308679953
1970.0,0.0038387066319929275
1969.0,0.0038825238627120395
1968.0,0.003926345514724705
1967.0,0.003970171588923321
1966.0,0.0040578370074493275
1965.0,0.004189368323957332
1964.0,0.004320939488377862
1963.0,0.004452550524862486
1962.0,0.004540313378935901
1961.0,0.004628093971837721
1960.0,0.004759798137184523
1959.0,0.004935465843858511
1958.0,0.005067263269958211
1957.0,0.005199100705396198
1956.0,0.005243055412371911
1955.0,0.0052870145684298375
1954.0,0.0052870145684298375
1953.0,0.0052870145684298375
1952.0,0.0052870145684298375
1951.0,0.0052870145684298375
1950.0,0.005243055412371911
1949.0,0.005199100705396198
1948.0,0.005199100705396198
1947.0,0.005199100705396198
1946.0,0.005155150446602086
1945.0,0.005155150446602086
1944.0,0.005111204635089406
1943.0,0.004979393875242044
1942.0,0.004759798137184523
1941.0,0.0044964297349936455
1940.0,0.004277078004534696
1939.0,0.004145520125434121
1938.0,0.0040578370074493275
1937.0,0.0038825238627120395
1936.0,0.003707281458678491
1935.0,0.003488327845821315
1934.0,0.0032694845648473247
1933.0,0.003050751504618754
1932.0,0.0028758443407954637
1931.0,0.002701007590486082
1930.0,0.002569926202528716
1929.0,0.0024388843664115978
1928.0,0.0022642234021015284
1927.0,0.002089632653256679
1926.0,0.0019587356365717845
1925.0,0.0018278780605593958
1924.0,0.0017842676290416026
1923.0,0.0016970599014589638
1922.0,0.001609869681952425
1921.0,0.0015662811355310335
1920.0,0.0015662811355310335
1919.0,0.0015662811355310335
1918.0,0.0014355417390583547
1917.0,0.0011741809597138886
1916.0,0.0009565003968372565
1915.0,0.0008259444115150671
1914.0,0.0007389288868995258
1913.0,0.0005649501236701937
1912.0,0.0003910410285830057
1911.0,0.00026065489343207737
1910.0,0.00017375254558760211
1909.0,0.0001303078917322953
1908.0,8.686758342868472e-05
1907.0,0.0
1906.0,-0.00013026880522692963
1905.0,-0.0002604985473904087
1904.0,-0.0003472966853634851
1903.0,-0.00043407747931878404
1902.0,-0.0004774613744551459
1901.0,-0.0005642161653756084
1900.0,-0.0006509536295951079
1899.0,-0.0006943158663546001
1898.0,-0.0007376737740329986
1897.0,-0.0008243766056055257
1896.0,-0.0008677215312267172
1895.0,-0.0009977303577937136
1894.0,-0.0011710149414008164
1893.0,-0.001257631312230778
1892.0,-0.0013009330204178937
1891.0,-0.0013009330204178937
1890.0,-0.001344230411601366
1889.0,-0.001474096691732818
1888.0,-0.0016471913460383014
1887.0,-0.001776967077439462
1886.0,-0.0018634626925240205
1885.0,-0.0020364022595291686
1884.0,-0.0022092729880145434
1883.0,-0.002338880892056583
1882.0,-0.0024252646779014952
1881.0,-0.0024684501283323
1880.0,-0.0025116312849080558
1879.0,-0.0025116312849080558
1878.0,-0.0024684501283323
1877.0,-0.0024684501283323
1876.0,-0.0025116312849080558
1875.0,-0.002597980719908577
1874.0,-0.0026411490000399773
1873.0,-0.0027274726898296464
1872.0,-0.002684312989729598
1871.0,-0.0026411490000399773
1870.0,-0.002684312989729598
1869.0,-0.0028137792246734072
1868.0,-0.0029432068763250996
1867.0,-0.003029470553618019
1866.0,-0.0029863408567849525
1865.0,-0.0029432068763250996
1864.0,-0.0029432068763250996
1863.0,-0.0029863408567849525
1862.0,-0.0029863408567849525
1861.0,-0.0029863408567849525
1860.0,-0.0029863408567849525
1859.0,-0.0029863408567849525
1858.0,-0.0029863408567849525
1857.0,-0.002900068611387585
1856.0,-0.0028137792246734072
1855.0,-0.002684312989729598
1854.0,-0.0026411490000399773
1853.0,-0.002597980719908577
1852.0,-0.0026411490000399773
1851.0,-0.002597980719908577
1850.0,-0.0025548081484823015
1849.0,-0.0025116312849080558
1848.0,-0.0024252646779014952
1847.0,-0.0022092729880145434
1846.0,-0.0019499410842680476
1845.0,-0.0018202170383281313
1844.0,-0.0018202170383281313
1843.0,-0.0018634626925240205
1842.0,-0.001776967077439462
1841.0,-0.0015606526425728795
1840.0,-0.001474096691732818
1839.0,-0.0014308122463981832
1838.0,-0.0014308122463981832
1837.0,-0.0014308122463981832
1836.0,-0.0014308122463981832
1835.0,-0.0013875234866409514
1834.0,-0.001344230411601366
1833.0,-0.00121432528617893
1832.0,-0.0009977303577937136
1831.0,-0.0008677215312267172
1830.0,-0.0009977303577937136
1829.0,-0.001257631312230778
1828.0,-0.001257631312230778
1827.0,-0.0009977303577937136
1826.0,-0.0007376737740329986
1825.0,-0.0007376737740329986
1824.0,-0.0009110621312231615
1823.0,-0.0009977303577937136
1822.0,-0.001041057986093552
1821.0,-0.0011277002770349043
1820.0,-0.0011710149414008164
1819.0,-0.00121432528617893
1818.0,-0.00121432528617893
1817.0,-0.001257631312230778
1816.0,-0.0013875234866409514
1815.0,-0.0015606526425728795
1814.0,-0.0016471913460383014
1813.0,-0.0016904542321527494
1812.0,-0.001733712809000476
1811.0,-0.0019067040408846658
1810.0,-0.0020796263931210923
1809.0,-0.0022092729880145434
1808.0,-0.0022092729880145434
1807.0,-0.0022092729880145434
1806.0,-0.0022092729880145434
1805.0,-0.0022956825549340643
1804.0,-0.0022956825549340643
1803.0,-0.0021660617565077978
1802.0,-0.0020364022595291686
1801.0,-0.0021228462251614566
1800.0,-0.0023820749327607693
1799.0,-0.0025548081484823015
1798.0,-0.002597980719908577
1797.0,-0.0025548081484823015
1796.0,-0.0024252646779014952
1795.0,-0.0022524799205383417
1794.0,-0.0020796263931210923
1793.0,-0.0021660617565077978
1792.0,-0.0024252646779014952
1791.0,-0.002597980719908577
1790.0,-0.002597980719908577
1789.0,-0.0025116312849080558
1788.0,-0.0024252646779014952
1787.0,-0.0022956825549340643
1786.0,-0.0021660617565077978
1785.0,-0.0021228462251614566
1784.0,-0.0021228462251614566
1783.0,-0.0020796263931210923
1782.0,-0.0020364022595291686
1781.0,-0.0021228462251614566
1780.0,-0.0022092729880145434
1779.0,-0.0021228462251614566
1778.0,-0.0019067040408846658
1777.0,-0.001776967077439462
1776.0,-0.0016039241497978196
1775.0,-0.001257631312230778
1774.0,-0.0009110621312231615
1773.0,-0.0008677215312267172
1772.0,-0.0010843812922201046
1771.0,-0.001041057986093552
1770.0,-0.0006509536295951079
1769.0,-0.00017368305846510168
1768.0,0.00017375254558760211
1767.0,0.00030411258916074324
1766.0,0.00043451177401765406
1765.0,0.0006954276616513155
1764.0,0.0011741809597138886
1763.0,0.001915112063444413
1762.0,0.0026573093983774942
1761.0,0.0031819781204844855
1760.0,0.003794893821675638
1759.0,0.004759798137184523
1758.0,0.00590291041179003
1757.0,0.007049039429553483
1756.0,0.008198201155356077
1755.0,0.009439170005980158
1754.0,0.01086177578421088
1753.0,0.012557195064198723
1752.0,0.014843078722943437
1751.0,0.017909760704207134
1750.0,0.0214542995372613
1749.0,0.025258095499050004
1748.0,0.029467170231675777
1747.0,0.03423403581731388
1746.0,0.039338992729018196
1745.0,0.0451788169482068
1744.0,0.05197846685889629
1743.0,0.05948351506743288
1742.0,0.06727263269847072
1741.0,0.07613452481449845
1740.0,0.08687520961044104
1739.0,0.09783387072894878
1738.0,0.10612732120491852
1737.0,0.1120452961911984
1736.0,0.1190150095132465
1735.0,0.13229686672990226
1734.0,0.1517492853229574
1733.0,0.1675549588258891
1732.0,0.17730898922394545
1731.0,0.18615224577114575
1730.0,0.196747788569543
1729.0,0.20823919598709506
1728.0,0.21881927906273835
1727.0,0.22841251911874472
1726.0,0.23814730553361696
1725.0,0.2490290155626811
1724.0,0.26114019792779986
1723.0,0.2725400791420911
1722.0,0.2808345059107866
1721.0,0.2852512392749402
1720.0,0.2884458317498304
1719.0,0.29610704636745555
1718.0,0.3118472444084337
1717.0,0.328179439816751
1716.0,0.3364875295848444
1715.0,0.33875539104066643
1714.0,0.33818731446273875
1713.0,0.3341376997968448
1712.0,0.326610421811695
1711.0,0.31758413832264143
1710.0,0.30803489723263966
1709.0,0.2970527538184442
1708.0,0.28408018256642054
1707.0,0.26994484762450033
1706.0,0.25594183412116456
1705.0,0.2423003749122612
1704.0,0.2287800980504664
1703.0,0.21552535623748348
1702.0,0.20259395032361804
1701.0,0.19010375339756092
1700.0,0.17887967622317635
1699.0,0.1693471862025755
1698.0,0.16121385505340546
1697.0,0.15360102696532518
1696.0,0.14630178822382556
1695.0,0.1394224487555844
1694.0,0.13335827943396006
1693.0,0.12790202572577325
1692.0,0.12257105921178035
1691.0,0.1175323851046286
1690.0,0.11328372588352176
1689.0,0.10974669484546551
1688.0,0.10646015643533868
1687.0,0.10297804393963661
1686.0,0.09968750301627338
1685.0,0.09772507952549825
1684.0,0.09707290398273716
1683.0,0.09539263618455207
1682.0,0.09285746899685954
1681.0,0.0900163050601559
1680.0,0.0870343792958963
1679.0,0.08407278830288423
1678.0,0.08118360963962057
1677.0,0.07852161962430992
1676.0,0.07608277688689435
1675.0,0.07386342893255127
1674.0,0.07150173187630915
1673.0,0.06905096883247697
1672.0,0.06671522765130522
1671.0,0.06464390705442691
1670.0,0.0630843190547461
1669.0,0.061580354206806964
1668.0,0.05988213325228142
1667.0,0.05804158346918653
1666.0,0.05610995175152733
1665.0,0.05413767551038262
1664.0,0.05227227303668425
1663.0,0.050707598587974356
1662.0,0.04939177521576932
1661.0,0.047982909952573705
1660.0,0.04657860031896477
1659.0,0.04513062893352182
1658.0,0.043735497301724546
1657.0,0.04244059810252043
1656.0,0.04129280891271536
1655.0,0.04038628892895613
1654.0,0.0402909757535701
1653.0,0.04038628892895613
1652.0,0.038958783046687984
1651.0,0.03763066432997886
1650.0,0.036731748473764814
1649.0,0.03578752703018084
1648.0,0.03512779136222477
1647.0,0.03498654972775217
1646.0,0.03475124903287918
1645.0,0.03409308450480819
1644.0,0.03334211579824231
1643.0,0.032592443402527316
1642.0,0.031984286006358165
1641.0,0.03137697904301118
1640.0,0.0307239045110681
1639.0,0.030071810571884017
1638.0,0.029560137048236124
1637.0,0.029281296279810798
1636.0,0.029234840219232394
1635.0,0.028863370523193765
1634.0,0.028306761050139073
1633.0,0.027889771597169544
1632.0,0.02747318213414429
1631.0,0.027010773144651168
1630.0,0.02664120011360227
1629.0,0.026318081496016443
1628.0,0.025995203102585407
1627.0,0.02562649291857677
1626.0,0.025304128090317013
1625.0,0.025074013910237447
1624.0,0.024936003904763915
1623.0,0.02484402159331056
1622.0,0.024890010313838973
1621.0,0.025028005701930978
1620.0,0.02544225514642018
1619.0,0.026087429580295085
1618.0,0.027334407733889066
1617.0,0.029002634427514717
1616.0,0.030211462585061133
1615.0,0.03058408764601861
1614.0,0.030444315779156517
1613.0,0.029978734171634214
1612.0,0.029141943003497595
1611.0,0.02812138297373412
1610.0,0.02710321556345563
1609.0,0.02613355016462182
1608.0,0.02516604495145991
1607.0,0.024154774532432866
1606.0,0.023191662661933732
1605.0,0.02227639471115217
1604.0,0.02140867317992523
1603.0,0.02058821736556471
1602.0,0.019860222254245663
1601.0,0.0192242260373785
1600.0,0.018634490921455527
1599.0,0.018045555530026514
1598.0,0.017547848615010242
1597.0,0.017141057687924732
1596.0,0.01677978535189717
1595.0,0.016554142658660398
1594.0,0.016509028184833463
1593.0,0.016599261819461697
1592.0,0.016734647433454652
1591.0,0.016870075265299933
1590.0,0.017141057687924732
1589.0,0.017502630802287644
1588.0,0.01809082990920774
1587.0,0.019042683770379876
1586.0,0.020497151212598652
1585.0,0.02255077261765881
1584.0,0.02512002699306959
1583.0,0.028214062120885508
1582.0,0.03142366482450232
1581.0,0.034187046963396917
1580.0,0.03621217265444465
1579.0,0.037346595106788616
1578.0,0.03739392707587297
1577.0,0.036117771071222604
1576.0,0.03352973627071565
1575.0,0.03063068826647264
1574.0,0.02826040911222183
1573.0,0.026456531467510258
1572.0,0.02475205875931885
1571.0,0.023054249440757957
1570.0,0.021363051615525652
1569.0,0.019814763052665052
1568.0,0.018634490921455527
1567.0,0.017909760704207134
1566.0,0.01727661233145472
1565.0,0.01646391839700767
1564.0,0.015697768020096703
1563.0,0.015202742910707112
1562.0,0.015022873584506602
1561.0,0.014843078722943437
1560.0,0.014753209197138295
1559.0,0.014753209197138295
1558.0,0.01381070026317599
1557.0,0.01318349541446362
1556.0,0.013138729709955221
1555.0,0.012914970375878188
1554.0,0.012512493866907004
1553.0,0.0119764380713403
1552.0,0.011664044143949504
1551.0,0.011530229790124524
1550.0,0.011396456654336085
1549.0,0.01117359295472431
1548.0,0.01086177578421088
1547.0,0.010594681998483901
1546.0,0.01046119667949763
1545.0,0.010327752376126709
1544.0,0.010194349063173958
1543.0,0.01001654169860089
1542.0,0.009883233932095559
1541.0,0.009838807101520963
1540.0,0.00974996707218323
1539.0,0.009261671492462709
1538.0,0.008951223547323472
1537.0,0.009128595198514056
1536.0,0.009350411681145587
1535.0,0.009527946474380489
1534.0,0.009794384815193347
1533.0,0.010060986715464404
1532.0,0.01023881228122181
1531.0,0.01037222925484893
1530.0,0.01046119667949763
1529.0,0.010505687227290839
1528.0,0.010594681998483901
1527.0,0.010728208358306901
1526.0,0.01077272626946324
1525.0,0.010728208358306901
1524.0,0.010594681998483901
1523.0,0.010550182333308289
1522.0,0.01046119667949763
1521.0,0.010283280051895272
1520.0,0.009927665307847056
1519.0,0.009794384815193347
1518.0,0.00974996707218323
1517.0,0.009705553871561357
1516.0,0.00974996707218323
1515.0,0.01001654169860089
1514.0,0.010639186223752484
1513.0,0.011574829993696856
1512.0,0.012914970375878188
1511.0,0.014573525916998342
1510.0,0.016824927962187042
1509.0,0.020087589665283012
1508.0,0.025995203102585407
1507.0,0.03470420418834386
1506.0,0.04019568349166214
1505.0,0.04019568349166214
1504.0,0.037488606492403154
1503.0,0.03343591590268957
1502.0,0.02872415126189476
1501.0,0.023925268380126097
1500.0,0.01954210772389997
1499.0,0.015832872853011715
1498.0,0.012870232340102872
1497.0,0.010550182333308289
1496.0,0.008773924307505121
1495.0,0.007358130121602358
1494.0,0.006431517210272464
1493.0,0.005946936412324799
1492.0,0.00577085918230158
1491.0,0.005638848091999105
1490.0,0.005638848091999105
1489.0,0.00577085918230158
1488.0,0.005946936412324799
1487.0,0.005946936412324799
1486.0,0.006035001804881146
1485.0,0.006299305179649828
1484.0,0.006651960076740071
1483.0,0.007049039429553483
1482.0,0.007402303897961815
1481.0,0.007844288957383316
1480.0,0.008375265465994541
1479.0,0.008906891951112605
1478.0,0.009483555971770974
1477.0,0.010149890396819572
1476.0,0.01086177578421088
1475.0,0.011441043121384498
1474.0,0.012110390002254778
1473.0,0.013049212141483357
1472.0,0.013900374944870508
1471.0,0.014393916947563534
1470.0,0.014932966849499074
1469.0,0.015742798294583915
1468.0,0.016824927962187042
1467.0,0.018181392829336396
1466.0,0.020178569969774962
1465.0,0.02282532397981263
1464.0,0.02553436426275746
1463.0,0.027750864037404455
1462.0,0.02960662792039992
1461.0,0.03147035562516054
1460.0,0.033482823553208085
1459.0,0.03597620715996652
1458.0,0.039719535563357944
1457.0,0.04402377775167454
1456.0,0.04653025674659861
1455.0,0.04715914332429838
1454.0,0.04715914332429838
1453.0,0.047062332249019345
1452.0,0.04686877481655505
1451.0,0.04657860031896477
1450.0,0.04624030826677128
1449.0,0.04609540658654021
1448.0,0.04595055323640551
1447.0,0.04570923829887308
1446.0,0.04541983725624266
1445.0,0.0451788169482068
1444.0,0.04488976902944808
1443.0,0.04455278942230456
1442.0,0.044071843103049346
1441.0,0.043495409683302455
1440.0,0.04272802000705722
1439.0,0.0417706858116178
1438.0,0.040481623027001756
1437.0,0.03857890593355173
1436.0,0.03602339000339416
1435.0,0.033201453616638954
1434.0,0.030397735151460825
1433.0,0.027612000892527133
1432.0,0.02475205875931885
1431.0,0.021956506090037076
1430.0,0.01949668180660491
1429.0,0.017412209298337533
1428.0,0.015877917138889863
1427.0,0.014798141635428141
1426.0,0.01403492169512921
1425.0,0.013586594534531482
1424.0,0.013586594534531482
1423.0,0.01403492169512921
1422.0,0.014977917890464765
1421.0,0.016509028184833463
1420.0,0.019451260640229506
1419.0,0.024154774532432866
1418.0,0.03002526987828502
1417.0,0.03663723389626394
1416.0,0.044456557540257124
1415.0,0.05389176956309405
1414.0,0.06509774167768612
1413.0,0.07794959783282618
1412.0,0.09135416109288674
1411.0,0.10303309806684524
1410.0,0.11086644403327606
1409.0,0.11407366019856902
1408.0,0.11288929687511629
1407.0,0.10779405402422748
1406.0,0.10012480397898926
1405.0,0.09146136782804049
1404.0,0.0833881548906541
1403.0,0.07654873036034848
1402.0,0.07078549626260622
1401.0,0.06575411897692884
1400.0,0.06118017497378969
1399.0,0.057049929922901255
1398.0,0.05369514500652506
1397.0,0.05095170768433621
1396.0,0.048565334467987054
1395.0,0.04609540658654021
1394.0,0.0435434165901003
1393.0,0.041149548320321694
1392.0,0.03886378261277468
1391.0,0.036873558918095295
1390.0,0.03517488211661135
1389.0,0.0338113190438627
1388.0,0.03273290844021437
1387.0,0.03193753992355086
1386.0,0.03142366482450232
1385.0,0.031143625385307683
1384.0,0.031236951802751545
1383.0,0.03170388495374454
1382.0,0.03263926003405038
1381.0,0.03399914237121604
1380.0,0.03578752703018084
1379.0,0.03782014709123227
1378.0,0.039909932095080425
1377.0,0.042057664554595586
1376.0,0.04440844959427559
1375.0,0.047062332249019345
1374.0,0.04982994019179987
1373.0,0.05197846685889629
1372.0,0.053203972728539606
1371.0,0.053596866100945384
1370.0,0.0531548860393769
1369.0,0.05178270644002936
1368.0,0.04934311749548925
1367.0,0.04599883231842972
1366.0,0.042057664554595586
1365.0,0.03777276864991497
1364.0,0.033201453616638954
1363.0,0.02863136320857662
1362.0,0.02461415101053266
1361.0,0.0214542995372613
1360.0,0.019042683770379876
1359.0,0.017141057687924732
1358.0,0.015742798294583915
1357.0,0.014798141635428141
1356.0,0.014259258949925524
1355.0,0.01403492169512921
1354.0,0.013990068146738865
1353.0,0.014259258949925524
1352.0,0.014798141635428141
1351.0,0.015607721475734415
1350.0,0.016824927962187042
1349.0,0.01840788278591865
1348.0,0.02026956933771462
1347.0,0.022413561996148967
1346.0,0.024798037742147727
1345.0,0.02724191609646076
1344.0,0.029653123769906697
1343.0,0.03175060589208267
1342.0,0.033482823553208085
1341.0,0.03475124903287918
1340.0,0.03526907894637077
1339.0,0.03479829897408804
1338.0,0.0332483359486222
1337.0,0.03081714076773867
1336.0,0.027889771597169544
1335.0,0.024936003904763915
1334.0,0.02227639471115217
1333.0,0.02013307743509718
1332.0,0.018679826740892747
1331.0,0.017864505196230507
1330.0,0.017728766960431575
1329.0,0.01809082990920774
1328.0,0.018861217359339655
1327.0,0.01995115493504329
1326.0,0.021317434843055594
1325.0,0.022871099419317753
1324.0,0.02461415101053266
1323.0,0.026502691267936695
1322.0,0.028445846553939003
1321.0,0.030444315779156517
1320.0,0.03249882527715853
1319.0,0.03456310022373987
1318.0,0.03658998431977123
1317.0,0.03862637240519895
1316.0,0.04057697805689475
1315.0,0.04263219156847242
1314.0,0.04484161307420642
1313.0,0.04725597598510167
1312.0,0.04982994019179987
1311.0,0.052468254304406825
1310.0,0.05522131887649295
1309.0,0.05804158346918653
1308.0,0.06098022355133348
1307.0,0.06378795567975115
1306.0,0.06656333217371957
1305.0,0.06935655895783555
1304.0,0.07242434530888953
1303.0,0.07582412969807906
1302.0,0.07977228854307139
1301.0,0.08433639649422697
1300.0,0.08953568400438638
1299.0,0.09533854208447545
1298.0,0.10154908080162528
1297.0,0.10812816955441629
1296.0,0.114865033936566
1295.0,0.12159311241900439
1294.0,0.1280769681176266
1293.0,0.13448148092522594
1292.0,0.1407415825326932
1291.0,0.14684956355215717
1290.0,0.15267416921457633
1289.0,0.15826522102525642
1288.0,0.1637391971415132
1287.0,0.16870625562299035
1286.0,0.1730833528150797
1285.0,0.17698247655395072
1284.0,0.180587688790675
1283.0,0.18369240056806024
1282.0,0.18641901143180806
1281.0,0.18889439298206967
1280.0,0.1910467008440888
1279.0,0.1928710444075783
1278.0,0.19436323369406505
1277.0,0.19599694527038736
1276.0,0.1980477651457182
1275.0,0.20065945054641832
1274.0,0.20398103065285067
1273.0,0.2083093509798819
1272.0,0.21388771628017356
1271.0,0.22047565667521019
1270.0,0.2277516600281464
1269.0,0.23574912456122687
1268.0,0.24427755509654192
1267.0,0.2528990686350139
1266.0,0.26145725907121475
1265.0,0.2698639960033222
1264.0,0.2780245984140466
1263.0,0.28541879116046887
1262.0,0.29191918953176854
1261.0,0.2975694635544748
1260.0,0.30233483735232536
1259.0,0.3059215379192406
1258.0,0.30829979170983846
1257.0,0.3102473038608433
1256.0,0.31202537996544444
1255.0,0.3137213219327988
1254.0,0.3156035215809796
1253.0,0.31803554100531684
1252.0,0.32093568187868726
1251.0,0.324221658325915
1250.0,0.32771737521107935
1249.0,0.33161408330999986
1248.0,0.3359224098149254
1247.0,0.34036898839299945
1246.0,0.3444774037465823
1245.0,0.3486250560869568
1244.0,0.3525192268263242
1243.0,0.3557584141562713
1242.0,0.3580304022979406
1241.0,0.3596179552904315
1240.0,0.36021478701317977
1239.0,0.3595185630295781
1238.0,0.35733766855796456
1237.0,0.35398859040876096
1236.0,0.3495953301319683
1235.0,0.34390179798716813
1234.0,0.3366760663717876
1233.0,0.32854944578750533
1232.0,0.3196644865854368
1231.0,0.31006989598178203
1230.0,0.2998156703778023
1229.0,0.2892904342756628
1228.0,0.278684119394101
1227.0,0.2678475819347863
1226.0,0.2568039185512987
1225.0,0.24580461181016156
1224.0,0.23515164280658918
1223.0,0.224608028303388
1222.0,0.21431433171909875
1221.0,0.20446755728984556
1220.0,0.19511125537760865
1219.0,0.18615224577114575
1218.0,0.17770112873763355
1217.0,0.16973219906635828
1216.0,0.16228533171508874
1215.0,0.15527437202677397
1214.0,0.14874165128092476
1213.0,0.1427278264359586
1212.0,0.13715334001706125
1211.0,0.13194363817695853
1210.0,0.12697018793895576
1209.0,0.12234075588839133
1208.0,0.11798803837334138
1207.0,0.1138478180292033
1206.0,0.10991447328367476
1205.0,0.1061827760325369
1204.0,0.10253786198693682
1203.0,0.09903237608087578
1202.0,0.09560907998763835
1201.0,0.09237369515673355
1200.0,0.08937559511079884
1199.0,0.08639805027084257
1198.0,0.08349341288484435
1197.0,0.08060807322614072
1196.0,0.07789763319239285
1195.0,0.07525564752005143
1194.0,0.07268097504034388
1193.0,0.07032568205141221
1192.0,0.0681862960408608
1191.0,0.06620911585658007
1190.0,0.06449273417528723
1189.0,0.06303410289212974
1188.0,0.061880730805688344
1187.0,0.0611301784870133
1186.0,0.060880282351513104
1185.0,0.06108018775522828
1184.0,0.061780582187257016
1183.0,0.06298389253518577
1182.0,0.06459351024765114
1181.0,0.0665127121512945
1180.0,0.0685421293109949
1179.0,0.07058107428570715
1178.0,0.07242434530888953
1177.0,0.07401789967289685
1176.0,0.07520400420208784
1175.0,0.07577241873988227
1174.0,0.07556563645676939
1173.0,0.07453319930846214
1172.0,0.0725783049495814
1171.0,0.06976434723371505
1170.0,0.0663102910421054
1169.0,0.06258241852286206
1168.0,0.0588862729628985
1167.0,0.05546797900801881
1166.0,0.0525172634430815
1165.0,0.05012229596312534
1164.0,0.048225491918274965
1163.0,0.04682039893436585
1162.0,0.04580574818413763
1161.0,0.04513062893352182
1160.0,0.04488976902944808
1159.0,0.044986096961949995
1158.0,0.045564513671517703
1157.0,0.04653025674659861
1156.0,0.047934409814949674
1155.0,0.04973253198641148
1154.0,0.052027420754219955
1153.0,0.05482695382609992
1152.0,0.05814087347462649
1151.0,0.06198090252378963
1150.0,0.0663102910421054
1149.0,0.0709900145060387
1148.0,0.0760310351245288
1147.0,0.08134070657817682
1146.0,0.08682216600953208
1145.0,0.09242742120144909
1144.0,0.09810596802617932
1143.0,0.1038045895457893
1142.0,0.10941133229451272
1141.0,0.114865033936566
1140.0,0.1199871616332282
1139.0,0.12470717462899183
1138.0,0.12895273869450063
1137.0,0.13288622016802298
1136.0,0.13655817138629134
1135.0,0.14002155835797914
1134.0,0.14333151638846497
1133.0,0.146788665496683
1132.0,0.1503963419175529
1131.0,0.15428198203334142
1130.0,0.15851539066460685
1129.0,0.16329620091026875
1128.0,0.16877030613293664
1127.0,0.1748985884019969
1126.0,0.18164212204164532
1125.0,0.18896149139578422
1124.0,0.19654288435158618
1123.0,0.20384212309308558
1122.0,0.21063084640851826
1121.0,0.21688286250953293
1120.0,0.22235572230351508
1119.0,0.22657927670938993
1118.0,0.22914798835785577
1117.0,0.2302535328205466
1116.0,0.23003219867055757
1115.0,0.22841251911874472
1114.0,0.22592119924748122
1113.0,0.22322619758789308
1112.0,0.22127007600388815
1111.0,0.2206199885083442
1110.0,0.22177637323390353
1109.0,0.22497239990115525
1108.0,0.2303273359445075
1107.0,0.23724643506662613
1106.0,0.24542234395526963
1105.0,0.2547690154718594
1104.0,0.26496029496627926
1103.0,0.2756421957735735
1102.0,0.28625752159091755
1101.0,0.29662263148765056
1100.0,0.3064489144040865
1099.0,0.31533413597413906
1098.0,0.3229408226078385
1097.0,0.32956859063939437
1096.0,0.33517005885690954
1095.0,0.33941908757270056
1094.0,0.34227504579489176
1093.0,0.3439976793170427
1092.0,0.3447654929657058
1091.0,0.34438141645877796
1090.0,0.34275287011628364
1089.0,0.3404640928457836
1088.0,0.3376199799837525
1087.0,0.3338565727084417
1086.0,0.32929040477620286
1085.0,0.32403845035783063
1084.0,0.3182162335321186
1083.0,0.3114022249188302
1082.0,0.30373100325446734
1081.0,0.29533481454547084
1080.0,0.2863414837916436
1079.0,0.2765443279648143
1078.0,0.26600071346161314
1077.0,0.2550814575586471
1076.0,0.2440489589958681
1075.0,0.23299263605019593
1074.0,0.221921138062545
1073.0,0.21140744407964052
1072.0,0.20155653964981246
1071.0,0.19239733008350535
1070.0,0.18402399902801458
1069.0,0.17633018673186363
1068.0,0.16947548590274142
1067.0,0.16298005145909156
1066.0,0.15682953548010214
1065.0,0.15107228677292173
1064.0,0.1459369881335788
1063.0,0.1415229581866595
1062.0,0.13780896894840278
1061.0,0.13483678049391368
1060.0,0.13276828548110586
1059.0,0.1314731132317961
1058.0,0.13094438129809216
1057.0,0.1311205537629121
1056.0,0.1318847946727828
1055.0,0.13329924395750092
1054.0,0.1352516643703412
1053.0,0.13780896894840278
1052.0,0.1409217752530305
1051.0,0.14429916916456276
1050.0,0.1477030341730745
1049.0,0.15107228677292173
1048.0,0.15434394001645568
1047.0,0.15732836623921154
1046.0,0.1600194423216572
1045.0,0.16228533171508874
1044.0,0.16411926818260536
1043.0,0.165261481096159
1042.0,0.165706487557304
1041.0,0.16551571466519466
1040.0,0.16481693015095633
1039.0,0.16367588429324842
1038.0,0.16209605540705763
1037.0,0.1603334431175667
1036.0,0.15851539066460685
1035.0,0.1565803347950816
1034.0,0.15452986701832638
1033.0,0.1524890347967518
1032.0,0.15045774799498335
1031.0,0.14855818532794496
1030.0,0.146788665496683
1029.0,0.14532966810466452
1028.0,0.1441175699639643
1027.0,0.14339193156306385
1026.0,0.14369413356670102
1025.0,0.14587621789883287
1024.0,0.15076490868527737
1023.0,0.15901616267962204
1022.0,0.17082492608291244
1021.0,0.1859522790044006
1020.0,0.2032175882986922
1019.0,0.22047565667521019
1018.0,0.23500240071511946
1017.0,0.24382048315619098
1016.0,0.24473510858775338
1015.0,0.23717144681090963
1014.0,0.2229358452575705
1013.0,0.20530287310800133
1012.0,0.1875545971272441
1011.0,0.1714689933548985
1010.0,0.15782777061438424
1009.0,0.1465451586319333
1008.0,0.1370342410222376
1007.0,0.1290696416513042
1006.0,0.12234075588839133
1005.0,0.11679296664760996
1004.0,0.11221396516162851
1003.0,0.1082953237608173
1002.0,0.10496440254767725
1001.0,0.10198826120249849
1000.0,0.09935981601739963
999.0,0.09691001300805646
998.0,0.09463593123310776
997.0,0.09269615116603047
996.0,0.09097914578884403
995.0,0.08948231448273347
994.0,0.08820340956274775
993.0,0.08714052483764512
992.0,0.08618614761628329
991.0,0.08533956941077814
990.0,0.08465293767580806
989.0,0.08423093401631587
988.0,0.08407278830288423
987.0,0.08407278830288423
986.0,0.08412549714230844
985.0,0.08417821237960132
984.0,0.08412549714230844
983.0,0.08407278830288423
982.0,0.08402008585977572
981.0,0.08412549714230844
980.0,0.08428366205400617
979.0,0.08444188458847957
978.0,0.08460016478773014
977.0,0.08475850269380558
976.0,0.08475850269380558
975.0,0.08465293767580806
974.0,0.08438913733853282
973.0,0.08396738981143059
972.0,0.0833881548906541
971.0,0.08259953204474924
970.0,0.08144546944972642
969.0,0.08008551934056851
968.0,0.07852161962430992
967.0,0.07685964397479927
966.0,0.07515236702446293
965.0,0.07350321072677968
964.0,0.07186029312488018
963.0,0.07022356719509815
962.0,0.06859298644342648
961.0,0.06712054217620067
960.0,0.06580465065211571
959.0,0.06464390705442691
958.0,0.06348625752110681
957.0,0.062331685600995
956.0,0.06123017721688262
955.0,0.0601813371786204
954.0,0.05933412752417122
953.0,0.05858795962645047
952.0,0.05789269101064454
951.0,0.05724807957018618
950.0,0.05665390164340933
949.0,0.05620880107069848
948.0,0.05581353871631256
947.0,0.05546797900801881
946.0,0.05502409158795207
945.0,0.05462990550969615
944.0,0.05428528594013993
943.0,0.05399011523423525
942.0,0.05379344615721715
941.0,0.053596866100945384
940.0,0.053449489430144714
939.0,0.05330216275425803
938.0,0.053203972728539606
937.0,0.05310580489767336
936.0,0.05305672930217464
935.0,0.05295859474477971
934.0,0.05286048235717078
933.0,0.05266432405126009
932.0,0.052419250695677544
931.0,0.05207638016827354
930.0,0.05178270644002936
929.0,0.05153812993871654
928.0,0.05139145012356372
927.0,0.05119595406718891
926.0,0.050902874887084115
925.0,0.05056119896349576
924.0,0.050171041064686284
923.0,0.04978123335813667
922.0,0.04944043838819989
921.0,0.04919717703534143
920.0,0.04900266601119507
919.0,0.048954051864180226
918.0,0.04909991063361274
917.0,0.04934311749548925
916.0,0.04978123335813667
915.0,0.050414848673348
914.0,0.051244819831730126
913.0,0.052468254304406825
912.0,0.054088483180726676
911.0,0.056159373598738904
910.0,0.05858795962645047
909.0,0.06123017721688262
908.0,0.06398920428479049
907.0,0.06686717627326577
906.0,0.0699173666076287
905.0,0.07304051161972436
904.0,0.07623803917129979
903.0,0.07925073872429178
902.0,0.08191721535781271
901.0,0.08417821237960132
900.0,0.08608023504853413
899.0,0.08751223866767632
898.0,0.0885227828938977
897.0,0.0892155652071629
896.0,0.08958906008531176
895.0,0.08985603893548699
894.0,0.08990945440593179
893.0,0.08985603893548699
892.0,0.08985603893548699
891.0,0.08996287644694911
890.0,0.09033701484598189
889.0,0.09108625997902897
888.0,0.09210516458371698
887.0,0.0935572061829677
886.0,0.09539263618455207
885.0,0.0975619438013351
884.0,0.10017949757290379
883.0,0.10319830233507843
882.0,0.10695988804288215
881.0,0.11159583226295333
880.0,0.11702034596270106
879.0,0.12297438413275108
878.0,0.12918657608440243
877.0,0.13566694496660703
876.0,0.14200450443907608
875.0,0.14764201633217278
874.0,0.1517492853229574
873.0,0.1538485234711846
872.0,0.15360102696532518
871.0,0.15088783381542248
870.0,0.14599776687301103
869.0,0.13960209487268727
868.0,0.13235576609690147
867.0,0.1249387366082999
866.0,0.11776015198117662
865.0,0.11137127461477392
864.0,0.10590557267730127
863.0,0.10132965703447017
862.0,0.0975619438013351
861.0,0.09463593123310776
860.0,0.09253489323414388
859.0,0.09097914578884403
858.0,0.08996287644694911
857.0,0.0892689019566193
856.0,0.08894897967187343
855.0,0.08884239126002336
854.0,0.08878910686244668
853.0,0.08878910686244668
852.0,0.08873582900163002
851.0,0.0884695376928375
850.0,0.0881502035005799
849.0,0.08793744441149753
848.0,0.0877779434675845
847.0,0.08756536662442538
846.0,0.0872997918091396
845.0,0.0870343792958963
844.0,0.08687520961044104
843.0,0.08666307406737683
842.0,0.08645104209348209
841.0,0.08618614761628329
840.0,0.08581556657675371
839.0,0.08528671302637614
838.0,0.08438913733853282
837.0,0.08317771540408803
836.0,0.08165507103772507
835.0,0.08008551934056851
834.0,0.07857365898473456
833.0,0.07711890879170658
832.0,0.07566901529132153
831.0,0.07406940213152868
830.0,0.07252697900472405
829.0,0.0710411591191702
828.0,0.06976434723371505
827.0,0.06879647454924775
826.0,0.0680846829187538
825.0,0.06752623532284674
824.0,0.06706985716921054
823.0,0.06656333217371957
822.0,0.06605739725873905
821.0,0.06565307326174441
820.0,0.06529959828457499
819.0,0.06504729218214189
818.0,0.06484555278383164
817.0,0.06489597884855036
816.0,0.06504729218214189
815.0,0.0653500770992892
814.0,0.06560255921901192
813.0,0.06580465065211571
812.0,0.06590573164451952
811.0,0.06605739725873905
810.0,0.06615853710127872
809.0,0.06625970050306473
808.0,0.06625970050306473
807.0,0.06610796423578891
806.0,0.06590573164451952
805.0,0.06575411897692884
804.0,0.0654005617819271
803.0,0.06484555278383164
802.0,0.06419054619006714
801.0,0.06383825908884244
800.0,0.06408986356949264
799.0,0.0653500770992892
798.0,0.06798309356579857
797.0,0.0720140529005715
796.0,0.07685964397479927
795.0,0.08144546944972642
794.0,0.08465293767580806
793.0,0.08576265223225898
792.0,0.08460016478773014
791.0,0.08160266115629988
790.0,0.07743023101428781
789.0,0.07283502570063005
788.0,0.06828793294324442
787.0,0.06388856832514578
786.0,0.05978244440026481
785.0,0.05610995175152733
784.0,0.05300765925162776
783.0,0.050317309204795935
782.0,0.0478374257855374
781.0,0.045564513671517703
780.0,0.043495409683302455
779.0,0.041579471947481794
778.0,0.03981472339538916
777.0,0.038199360808321536
776.0,0.03668448861388862
775.0,0.03526907894637077
774.0,0.03399914237121604
773.0,0.0329671178412978
772.0,0.032124554451966825
771.0,0.031190286087141805
770.0,0.030118356253500123
769.0,0.02904906565457588
768.0,0.02798240132598462
767.0,0.02691835039863255
766.0,0.025810808881832736
765.0,0.024706084643793647
764.0,0.023787622882622816
763.0,0.02296266477531872
762.0,0.022230681908425698
761.0,0.021636852916117055
760.0,0.021043834782408455
759.0,0.020497151212598652
758.0,0.01995115493504329
757.0,0.019360432556262852
756.0,0.018725167293411005
755.0,0.018136109008649592
754.0,0.01759307113620534
753.0,0.017095882207371904
752.0,0.016824927962187042
751.0,0.016824927962187042
750.0,0.017141057687924732
749.0,0.017955020928509757
748.0,0.019269623464054586
747.0,0.021135015652343103
746.0,0.02365002099672653
745.0,0.027195677663422346
744.0,0.031984286006358165
743.0,0.03838909190871931
742.0,0.04677202844014605
741.0,0.05754547365752294
740.0,0.07088774334533943
739.0,0.08661005636824437
738.0,0.10419084983086901
737.0,0.12314735239865637
736.0,0.1427881576831076
735.0,0.16228533171508874
734.0,0.1811804924524636
733.0,0.19976421067264605
732.0,0.2186036948032093
731.0,0.23829763245858726
730.0,0.2594794139463352
729.0,0.2824127031445396
728.0,0.30636097383845184
727.0,0.32956859063939437
726.0,0.3494011018273431
725.0,0.3632113109656252
724.0,0.36865771351606735
723.0,0.3644157336887699
722.0,0.35115229162710637
721.0,0.33096219911484415
720.0,0.30697693207630605
719.0,0.2818305946086932
718.0,0.2577463300934064
717.0,0.23589862352377122
716.0,0.216739767127051
715.0,0.200521601162019
714.0,0.18742084459095332
713.0,0.17743966305730785
712.0,0.1699248335702499
711.0,0.16424603248061653
710.0,0.15939212099070987
709.0,0.15496400648658493
708.0,0.15045774799498335
707.0,0.14581545616639335
706.0,0.1409818561111058
705.0,0.136142038116027
704.0,0.1316495003520317
703.0,0.12743585690934855
702.0,0.12297438413275108
701.0,0.11793105556385153
700.0,0.11238269966426384
699.0,0.10679324694015202
698.0,0.10165883427249067
697.0,0.09707290398273716
696.0,0.09296504751658308
695.0,0.0892689019566193
694.0,0.08618614761628329
693.0,0.08370400543686918
692.0,0.08160266115629988
691.0,0.07977228854307139
690.0,0.07852161962430992
689.0,0.07810552907089763
688.0,0.07836553894629472
687.0,0.07872981449018734
686.0,0.0788860261633193
685.0,0.0788860261633193
684.0,0.07862570458152551
683.0,0.0781575185941421
682.0,0.07779372256098371
681.0,0.07805354577058976
680.0,0.07862570458152551
679.0,0.07852161962430992
678.0,0.07691148455760066
677.0,0.07427547306393745
676.0,0.07150173187630915
675.0,0.0691018855898955
674.0,0.06696850489759454
673.0,0.06489597884855036
672.0,0.06258241852286206
671.0,0.05983228596592505
670.0,0.05650548409389744
669.0,0.05403929642243144
668.0,0.05531996611868961
667.0,0.05804158346918653
666.0,0.0583395216116076
665.0,0.05650548409389744
664.0,0.054186873412661596
663.0,0.05212534510230182
662.0,0.05051241005349638
661.0,0.04905128560059957
660.0,0.04774046340917959
659.0,0.04667530361081473
658.0,0.04609540658654021
657.0,0.04595055323640551
656.0,0.046192002334692894
655.0,0.04638525830935958
654.0,0.046143701775014145
653.0,0.04537162249272897
652.0,0.044456557540257124
651.0,0.0437835307566099
650.0,0.04325545471730896
649.0,0.04282386959515394
648.0,0.04253638427006878
647.0,0.04244059810252043
646.0,0.04210551278710151
645.0,0.04153168163305643
644.0,0.041006334969674096
643.0,0.041006334969674096
642.0,0.04124505013091051
641.0,0.04153168163305643
640.0,0.04200982159316968
639.0,0.043063586155803746
638.0,0.04450467081587295
637.0,0.046047116768076934
636.0,0.04803141550708934
635.0,0.05139145012356372
634.0,0.055961719945581745
633.0,0.05998184499233683
632.0,0.061380218497318895
631.0,0.05948351506743288
630.0,0.05561604235915585
629.0,0.0515870342213991
628.0,0.04885683989244738
627.0,0.047885915093007325
626.0,0.04807992647970649
625.0,0.04841965509660828
624.0,0.048225491918274965
623.0,0.04754660357696672
622.0,0.046481918555007384
621.0,0.04522701031028298
620.0,0.04402377775167454
619.0,0.043303435105349175
618.0,0.0431115453499229
617.0,0.043063586155803746
616.0,0.042967683653061695
615.0,0.04282386959515394
614.0,0.04253638427006878
613.0,0.04186632432376469
612.0,0.04086316882962593
611.0,0.03962436858984186
610.0,0.038057116858612794
609.0,0.0360705779734416
608.0,0.033952178923546183
607.0,0.032592443402527316
606.0,0.03226486821611996
605.0,0.03282657704446046
604.0,0.033952178923546183
603.0,0.03545753392086315
602.0,0.036731748473764814
601.0,0.03701541568300293
600.0,0.03635381351515665
