cm-1,A
4000.0,-0.0036
3999.0,-0.0036
3998.0,-0.0036
3997.0,-0.0036
3996.0,-0.0035
3995.0,-0.0035
3994.0,-0.0034
3993.0,-0.0033
3992.0,-0.0033
3991.0,-0.0034
3990.0,-0.0035
3989.0,-0.0035
3988.0,-0.0036
3987.0,-0.0036
3986.0,-0.0036
3985.0,-0.0036
3984.0,-0.0036
3983.0,-0.0036
3982.0,-0.0035
3981.0,-0.0035
3980.0,-0.0034
3979.0,-0.0035
3978.0,-0.0035
3977.0,-0.0036
3976.0,-0.0036
3975.0,-0.0035
3974.0,-0.0034
3973.0,-0.0034
3972.0,-0.0034
3971.0,-0.0035
3970.0,-0.0036
3969.0,-0.0036
3968.0,-0.0036
3967.0,-0.0036
3966.0,-0.0036
3965.0,-0.0035
3964.0,-0.0035
3963.0,-0.0035
3962.0,-0.0035
3961.0,-0.0035
3960.0,-0.0036
3959.0,-0.0035
3958.0,-0.0035
3957.0,-0.0035
3956.0,-0.0034
3955.0,-0.0034
3954.0,-0.0034
3953.0,-0.0034
3952.0,-0.0033
3951.0,-0.0033
3950.0,-0.0034
3949.0,-0.0034
3948.0,-0.0035
3947.0,-0.0036
3946.0,-0.0037
3945.0,-0.0037
3944.0,-0.0037
3943.0,-0.0037
3942.0,-0.0037
3941.0,-0.0036
3940.0,-0.0035
3939.0,-0.0035
3938.0,-0.0035
3937.0,-0.0035
3936.0,-0.0036
3935.0,-0.0036
3934.0,-0.0036
3933.0,-0.0036
3932.0,-0.0035
3931.0,-0.0034
3930.0,-0.0033
3929.0,-0.0033
3928.0,-0.0034
3927.0,-0.0034
3926.0,-0.0034
3925.0,-0.0035
3924.0,-0.0035
3923.0,-0.0036
3922.0,-0.0036
3921.0,-0.0035
3920.0,-0.0035
3919.0,-0.0034
3918.0,-0.0034
3917.0,-0.0033
3916.0,-0.0033
3915.0,-0.0033
3914.0,-0.0033
3913.0,-0.0033
3912.0,-0.0033
3911.0,-0.0034
3910.0,-0.0034
3909.0,-0.0035
3908.0,-0.0035
3907.0,-0.0035
3906.0,-0.0034
3905.0,-0.0033
3904.0,-0.0033
3903.0,-0.0033
3902.0,-0.0034
3901.0,-0.0034
3900.0,-0.0035
3899.0,-0.0035
3898.0,-0.0035
3897.0,-0.0034
3896.0,-0.0034
3895.0,-0.0034
3894.0,-0.0034
3893.0,-0.0033
3892.0,-0.0033
3891.0,-0.0033
3890.0,-0.0033
3889.0,-0.0033
3888.0,-0.0033
3887.0,-0.0033
3886.0,-0.0033
3885.0,-0.0034
3884.0,-0.0035
3883.0,-0.0035
3882.0,-0.0035
3881.0,-0.0035
3880.0,-0.0036
3879.0,-0.0036
3878.0,-0.0036
3877.0,-0.0036
3876.0,-0.0035
3875.0,-0.0035
3874.0,-0.0035
3873.0,-0.0035
3872.0,-0.0034
3871.0,-0.0033
3870.0,-0.0033
3869.0,-0.0033
3868.0,-0.0034
3867.0,-0.0033
3866.0,-0.0033
3865.0,-0.0034
3864.0,-0.0035
3863.0,-0.0035
3862.0,-0.0034
3861.0,-0.0034
3860.0,-0.0033
3859.0,-0.0032
3858.0,-0.0031
3857.0,-0.003
3856.0,-0.003
3855.0,-0.0029
3854.0,-0.0029
3853.0,-0.003
3852.0,-0.0031
3851.0,-0.0031
3850.0,-0.003
3849.0,-0.0031
3848.0,-0.0032
3847.0,-0.0033
3846.0,-0.0033
3845.0,-0.0033
3844.0,-0.0033
3843.0,-0.0033
3842.0,-0.0033
3841.0,-0.0033
3840.0,-0.0032
3839.0,-0.0032
3838.0,-0.0032
3837.0,-0.0031
3836.0,-0.0031
3835.0,-0.0031
3834.0,-0.0031
3833.0,-0.0031
3832.0,-0.0031
3831.0,-0.0031
3830.0,-0.0032
3829.0,-0.0032
3828.0,-0.0032
3827.0,-0.0032
3826.0,-0.0032
3825.0,-0.0032
3824.0,-0.0031
3823.0,-0.003
3822.0,-0.003
3821.0,-0.0032
3820.0,-0.0035
3819.0,-0.0035
3818.0,-0.0034
3817.0,-0.0032
3816.0,-0.003
3815.0,-0.003
3814.0,-0.0029
3813.0,-0.0029
3812.0,-0.003
3811.0,-0.0031
3810.0,-0.0033
3809.0,-0.0034
3808.0,-0.0034
3807.0,-0.0034
3806.0,-0.0034
3805.0,-0.0033
3804.0,-0.0031
3803.0,-0.0029
3802.0,-0.0027
3801.0,-0.0027
3800.0,-0.0028
3799.0,-0.0028
3798.0,-0.0028
3797.0,-0.0029
3796.0,-0.003
3795.0,-0.0031
3794.0,-0.0031
3793.0,-0.0031
3792.0,-0.0031
3791.0,-0.0031
3790.0,-0.0032
3789.0,-0.0032
3788.0,-0.0032
3787.0,-0.0031
3786.0,-0.0031
3785.0,-0.0032
3784.0,-0.0033
3783.0,-0.0033
3782.0,-0.0033
3781.0,-0.0033
3780.0,-0.0031
3779.0,-0.0031
3778.0,-0.003
3777.0,-0.003
3776.0,-0.003
3775.0,-0.003
3774.0,-0.003
3773.0,-0.003
3772.0,-0.003
3771.0,-0.003
3770.0,-0.003
3769.0,-0.0031
3768.0,-0.0031
3767.0,-0.0031
3766.0,-0.0031
3765.0,-0.0031
3764.0,-0.0031
3763.0,-0.0031
3762.0,-0.003
3761.0,-0.0028
3760.0,-0.0028
3759.0,-0.0028
3758.0,-0.0029
3757.0,-0.0029
3756.0,-0.003
3755.0,-0.0029
3754.0,-0.0027
3753.0,-0.0026
3752.0,-0.0025
3751.0,-0.0026
3750.0,-0.0029
3749.0,-0.0031
3748.0,-0.0031
3747.0,-0.0031
3746.0,-0.0031
3745.0,-0.0031
3744.0,-0.0032
3743.0,-0.0032
3742.0,-0.003
3741.0,-0.0028
3740.0,-0.0028
3739.0,-0.0029
3738.0,-0.0031
3737.0,-0.0032
3736.0,-0.0033
3735.0,-0.0032
3734.0,-0.0031
3733.0,-0.003
3732.0,-0.0031
3731.0,-0.0031
3730.0,-0.0032
3729.0,-0.0033
3728.0,-0.0033
3727.0,-0.0033
3726.0,-0.0033
3725.0,-0.0032
3724.0,-0.0032
3723.0,-0.0032
3722.0,-0.0032
3721.0,-0.0032
3720.0,-0.0032
3719.0,-0.0032
3718.0,-0.0033
3717.0,-0.0032
3716.0,-0.0032
3715.0,-0.0032
3714.0,-0.0032
3713.0,-0.0032
3712.0,-0.0032
3711.0,-0.0031
3710.0,-0.0031
3709.0,-0.0031
3708.0,-0.0031
3707.0,-0.0032
3706.0,-0.0032
3705.0,-0.0032
3704.0,-0.0032
3703.0,-0.0033
3702.0,-0.0033
3701.0,-0.0034
3700.0,-0.0034
3699.0,-0.0033
3698.0,-0.0032
3697.0,-0.0031
3696.0,-0.0031
3695.0,-0.0031
3694.0,-0.0031
3693.0,-0.0031
3692.0,-0.003
3691.0,-0.0029
3690.0,-0.0027
3689.0,-0.0026
3688.0,-0.0027
3687.0,-0.0027
3686.0,-0.0027
3685.0,-0.0028
3684.0,-0.0028
3683.0,-0.0029
3682.0,-0.003
3681.0,-0.0029
3680.0,-0.0029
3679.0,-0.0029
3678.0,-0.0028
3677.0,-0.0026
3676.0,-0.0024
3675.0,-0.0024
3674.0,-0.0026
3673.0,-0.0026
3672.0,-0.0024
3671.0,-0.0022
3670.0,-0.0021
3669.0,-0.0021
3668.0,-0.0021
3667.0,-0.0022
3666.0,-0.0022
3665.0,-0.0022
3664.0,-0.0022
3663.0,-0.0022
3662.0,-0.0021
3661.0,-0.0021
3660.0,-0.002
3659.0,-0.0019
3658.0,-0.0018
3657.0,-0.0018
3656.0,-0.0018
3655.0,-0.002
3654.0,-0.0021
3653.0,-0.0021
3652.0,-0.0021
3651.0,-0.002
3650.0,-0.0018
3649.0,-0.0015
3648.0,-0.0014
3647.0,-0.0015
3646.0,-0.0015
3645.0,-0.0016
3644.0,-0.0017
3643.0,-0.0017
3642.0,-0.0017
3641.0,-0.0018
3640.0,-0.0018
3639.0,-0.0019
3638.0,-0.0019
3637.0,-0.002
3636.0,-0.002
3635.0,-0.002
3634.0,-0.002
3633.0,-0.0021
3632.0,-0.0022
3631.0,-0.0022
3630.0,-0.0023
3629.0,-0.0023
3628.0,-0.0024
3627.0,-0.0024
3626.0,-0.0023
3625.0,-0.0022
3624.0,-0.0023
3623.0,-0.0024
3622.0,-0.0025
3621.0,-0.0025
3620.0,-0.0024
3619.0,-0.0024
3618.0,-0.0024
3617.0,-0.0024
3616.0,-0.0024
3615.0,-0.0023
3614.0,-0.0021
3613.0,-0.002
3612.0,-0.0019
3611.0,-0.0019
3610.0,-0.0019
3609.0,-0.0019
3608.0,-0.0019
3607.0,-0.0019
3606.0,-0.002
3605.0,-0.002
3604.0,-0.002
3603.0,-0.002
3602.0,-0.002
3601.0,-0.002
3600.0,-0.002
3599.0,-0.002
3598.0,-0.002
3597.0,-0.002
3596.0,-0.002
3595.0,-0.0019
3594.0,-0.0018
3593.0,-0.0018
3592.0,-0.0017
3591.0,-0.0018
3590.0,-0.0018
3589.0,-0.0018
3588.0,-0.0018
3587.0,-0.0017
3586.0,-0.0016
3585.0,-0.0014
3584.0,-0.0014
3583.0,-0.0014
3582.0,-0.0014
3581.0,-0.0014
3580.0,-0.0014
3579.0,-0.0013
3578.0,-0.0012
3577.0,-0.0012
3576.0,-0.0011
3575.0,-0.0011
3574.0,-0.0011
3573.0,-0.0011
3572.0,-0.0011
3571.0,-0.001
3570.0,-0.001
3569.0,-0.001
3568.0,-0.0009
3567.0,-0.0009
3566.0,-0.0009
3565.0,-0.001
3564.0,-0.001
3563.0,-0.001
3562.0,-0.001
3561.0,-0.001
3560.0,-0.001
3559.0,-0.0009
3558.0,-0.0009
3557.0,-0.0008
3556.0,-0.0007
3555.0,-0.0006
3554.0,-0.0005
3553.0,-0.0005
3552.0,-0.0006
3551.0,-0.0007
3550.0,-0.0008
3549.0,-0.0008
3548.0,-0.0008
3547.0,-0.0008
3546.0,-0.0008
3545.0,-0.0008
3544.0,-0.0007
3543.0,-0.0007
3542.0,-0.0006
3541.0,-0.0006
3540.0,-0.0007
3539.0,-0.0007
3538.0,-0.0007
3537.0,-0.0007
3536.0,-0.0006
3535.0,-0.0005
3534.0,-0.0004
3533.0,-0.0003
3532.0,-0.0002
3531.0,-0.0001
3530.0,-0.0
3529.0,0.0001
3528.0,0.0001
3527.0,0.0001
3526.0,0.0
3525.0,-0.0001
3524.0,-0.0001
3523.0,-0.0
3522.0,0.0
3521.0,0.0001
3520.0,0.0002
3519.0,0.0002
3518.0,0.0002
3517.0,0.0001
3516.0,0.0001
3515.0,0.0001
3514.0,0.0001
3513.0,0.0002
3512.0,0.0004
3511.0,0.0006
3510.0,0.0007
3509.0,0.0007
3508.0,0.0007
3507.0,0.0007
3506.0,0.0007
3505.0,0.0007
3504.0,0.0008
3503.0,0.0008
3502.0,0.0008
3501.0,0.0008
3500.0,0.0008
3499.0,0.0007
3498.0,0.0007
3497.0,0.0007
3496.0,0.0007
3495.0,0.0007
3494.0,0.0007
3493.0,0.0006
3492.0,0.0005
3491.0,0.0005
3490.0,0.0006
3489.0,0.0006
3488.0,0.0006
3487.0,0.0005
3486.0,0.0004
3485.0,0.0003
3484.0,0.0003
3483.0,0.0003
3482.0,0.0003
3481.0,0.0004
3480.0,0.0004
3479.0,0.0004
3478.0,0.0004
3477.0,0.0003
3476.0,0.0003
3475.0,0.0003
3474.0,0.0003
3473.0,0.0002
3472.0,0.0002
3471.0,0.0001
3470.0,0.0
3469.0,0.0
3468.0,0.0
3467.0,0.0
3466.0,0.0001
3465.0,0.0002
3464.0,0.0002
3463.0,0.0002
3462.0,0.0002
3461.0,0.0001
3460.0,0.0001
3459.0,0.0001
3458.0,0.0001
3457.0,0.0001
3456.0,0.0
3455.0,0.0
3454.0,0.0
3453.0,0.0001
3452.0,0.0001
3451.0,0.0
3450.0,0.0
3449.0,0.0
3448.0,0.0
3447.0,-0.0
3446.0,-0.0001
3445.0,-0.0001
3444.0,-0.0
3443.0,0.0001
3442.0,0.0001
3441.0,0.0002
3440.0,0.0002
3439.0,0.0001
3438.0,0.0001
3437.0,0.0001
3436.0,0.0001
3435.0,0.0001
3434.0,0.0001
3433.0,0.0001
3432.0,0.0001
3431.0,0.0002
3430.0,0.0003
3429.0,0.0003
3428.0,0.0003
3427.0,0.0002
3426.0,0.0003
3425.0,0.0003
3424.0,0.0003
3423.0,0.0004
3422.0,0.0004
3421.0,0.0003
3420.0,0.0003
3419.0,0.0004
3418.0,0.0004
3417.0,0.0004
3416.0,0.0004
3415.0,0.0004
3414.0,0.0004
3413.0,0.0004
3412.0,0.0005
3411.0,0.0005
3410.0,0.0005
3409.0,0.0005
3408.0,0.0005
3407.0,0.0005
3406.0,0.0005
3405.0,0.0004
3404.0,0.0003
3403.0,0.0002
3402.0,0.0002
3401.0,0.0001
3400.0,0.0002
3399.0,0.0003
3398.0,0.0004
3397.0,0.0005
3396.0,0.0005
3395.0,0.0005
3394.0,0.0005
3393.0,0.0004
3392.0,0.0004
3391.0,0.0004
3390.0,0.0005
3389.0,0.0005
3388.0,0.0006
3387.0,0.0006
3386.0,0.0006
3385.0,0.0005
3384.0,0.0005
3383.0,0.0004
3382.0,0.0003
3381.0,0.0003
3380.0,0.0003
3379.0,0.0003
3378.0,0.0003
3377.0,0.0003
3376.0,0.0002
3375.0,0.0002
3374.0,0.0003
3373.0,0.0003
3372.0,0.0003
3371.0,0.0004
3370.0,0.0004
3369.0,0.0005
3368.0,0.0005
3367.0,0.0006
3366.0,0.0006
3365.0,0.0006
3364.0,0.0006
3363.0,0.0005
3362.0,0.0005
3361.0,0.0004
3360.0,0.0004
3359.0,0.0004
3358.0,0.0004
3357.0,0.0004
3356.0,0.0004
3355.0,0.0003
3354.0,0.0003
3353.0,0.0003
3352.0,0.0003
3351.0,0.0003
3350.0,0.0003
3349.0,0.0003
3348.0,0.0003
3347.0,0.0003
3346.0,0.0003
3345.0,0.0004
3344.0,0.0004
3343.0,0.0005
3342.0,0.0004
3341.0,0.0004
3340.0,0.0004
3339.0,0.0004
3338.0,0.0004
3337.0,0.0004
3336.0,0.0004
3335.0,0.0004
3334.0,0.0003
3333.0,0.0003
3332.0,0.0003
3331.0,0.0003
3330.0,0.0004
3329.0,0.0004
3328.0,0.0004
3327.0,0.0003
3326.0,0.0002
3325.0,0.0002
3324.0,0.0002
3323.0,0.0002
3322.0,0.0002
3321.0,0.0002
3320.0,0.0002
3319.0,0.0002
3318.0,0.0002
3317.0,0.0003
3316.0,0.0004
3315.0,0.0004
3314.0,0.0004
3313.0,0.0004
3312.0,0.0004
3311.0,0.0003
3310.0,0.0002
3309.0,0.0002
3308.0,0.0001
3307.0,0.0002
3306.0,0.0002
3305.0,0.0003
3304.0,0.0004
3303.0,0.0004
3302.0,0.0004
3301.0,0.0004
3300.0,0.0004
3299.0,0.0004
3298.0,0.0003
3297.0,0.0002
3296.0,0.0001
3295.0,-0.0
3294.0,0.0
3293.0,0.0001
3292.0,0.0001
3291.0,0.0001
3290.0,0.0001
3289.0,-0.0
3288.0,-0.0
3287.0,-0.0
3286.0,-0.0
3285.0,-0.0001
3284.0,-0.0
3283.0,0.0
3282.0,0.0001
3281.0,0.0002
3280.0,0.0002
3279.0,0.0002
3278.0,0.0001
3277.0,-0.0
3276.0,-0.0001
3275.0,-0.0001
3274.0,-0.0001
3273.0,-0.0001
3272.0,-0.0
3271.0,0.0
3270.0,0.0
3269.0,-0.0
3268.0,-0.0001
3267.0,-0.0001
3266.0,-0.0
3265.0,-0.0
3264.0,-0.0
3263.0,-0.0001
3262.0,-0.0001
3261.0,-0.0001
3260.0,-0.0001
3259.0,-0.0
3258.0,0.0
3257.0,0.0
3256.0,0.0
3255.0,0.0
3254.0,-0.0
3253.0,-0.0001
3252.0,-0.0002
3251.0,-0.0003
3250.0,-0.0003
3249.0,-0.0003
3248.0,-0.0002
3247.0,-0.0001
3246.0,-0.0001
3245.0,-0.0001
3244.0,-0.0001
3243.0,-0.0002
3242.0,-0.0003
3241.0,-0.0003
3240.0,-0.0003
3239.0,-0.0003
3238.0,-0.0003
3237.0,-0.0003
3236.0,-0.0003
3235.0,-0.0004
3234.0,-0.0003
3233.0,-0.0003
3232.0,-0.0003
3231.0,-0.0003
3230.0,-0.0003
3229.0,-0.0003
3228.0,-0.0003
3227.0,-0.0003
3226.0,-0.0003
3225.0,-0.0002
3224.0,-0.0002
3223.0,-0.0002
3222.0,-0.0002
3221.0,-0.0002
3220.0,-0.0003
3219.0,-0.0004
3218.0,-0.0004
3217.0,-0.0004
3216.0,-0.0004
3215.0,-0.0003
3214.0,-0.0003
3213.0,-0.0004
3212.0,-0.0004
3211.0,-0.0004
3210.0,-0.0004
3209.0,-0.0004
3208.0,-0.0004
3207.0,-0.0005
3206.0,-0.0005
3205.0,-0.0006
3204.0,-0.0005
3203.0,-0.0005
3202.0,-0.0005
3201.0,-0.0005
3200.0,-0.0005
3199.0,-0.0005
3198.0,-0.0005
3197.0,-0.0005
3196.0,-0.0005
3195.0,-0.0006
3194.0,-0.0006
3193.0,-0.0007
3192.0,-0.0007
3191.0,-0.0007
3190.0,-0.0006
3189.0,-0.0007
3188.0,-0.0007
3187.0,-0.0008
3186.0,-0.0008
3185.0,-0.0008
3184.0,-0.0007
3183.0,-0.0007
3182.0,-0.0007
3181.0,-0.0007
3180.0,-0.0008
3179.0,-0.0009
3178.0,-0.0009
3177.0,-0.0009
3176.0,-0.0009
3175.0,-0.0008
3174.0,-0.0008
3173.0,-0.0008
3172.0,-0.0009
3171.0,-0.001
3170.0,-0.001
3169.0,-0.0011
3168.0,-0.0011
3167.0,-0.0011
3166.0,-0.0011
3165.0,-0.0011
3164.0,-0.0011
3163.0,-0.001
3162.0,-0.001
3161.0,-0.001
3160.0,-0.001
3159.0,-0.001
3158.0,-0.001
3157.0,-0.001
3156.0,-0.001
3155.0,-0.001
3154.0,-0.001
3153.0,-0.001
3152.0,-0.0009
3151.0,-0.0009
3150.0,-0.0009
3149.0,-0.001
3148.0,-0.0011
3147.0,-0.0011
3146.0,-0.0011
3145.0,-0.001
3144.0,-0.001
3143.0,-0.001
3142.0,-0.0011
3141.0,-0.0012
3140.0,-0.0012
3139.0,-0.0012
3138.0,-0.0012
3137.0,-0.0013
3136.0,-0.0013
3135.0,-0.0013
3134.0,-0.0012
3133.0,-0.0012
3132.0,-0.0012
3131.0,-0.0012
3130.0,-0.0012
3129.0,-0.0013
3128.0,-0.0013
3127.0,-0.0013
3126.0,-0.0014
3125.0,-0.0014
3124.0,-0.0014
3123.0,-0.0013
3122.0,-0.0013
3121.0,-0.0013
3120.0,-0.0013
3119.0,-0.0013
3118.0,-0.0013
3117.0,-0.0013
3116.0,-0.0013
3115.0,-0.0012
3114.0,-0.0012
3113.0,-0.0013
3112.0,-0.0014
3111.0,-0.0015
3110.0,-0.0015
3109.0,-0.0015
3108.0,-0.0015
3107.0,-0.0015
3106.0,-0.0016
3105.0,-0.0016
3104.0,-0.0015
3103.0,-0.0015
3102.0,-0.0015
3101.0,-0.0015
3100.0,-0.0015
3099.0,-0.0016
3098.0,-0.0016
3097.0,-0.0016
3096.0,-0.0015
3095.0,-0.0015
3094.0,-0.0014
3093.0,-0.0015
3092.0,-0.0015
3091.0,-0.0015
3090.0,-0.0015
3089.0,-0.0015
3088.0,-0.0016
3087.0,-0.0016
3086.0,-0.0017
3085.0,-0.0017
3084.0,-0.0017
3083.0,-0.0017
3082.0,-0.0017
3081.0,-0.0017
3080.0,-0.0017
3079.0,-0.0016
3078.0,-0.0016
3077.0,-0.0016
3076.0,-0.0017
3075.0,-0.0017
3074.0,-0.0017
3073.0,-0.0017
3072.0,-0.0016
3071.0,-0.0016
3070.0,-0.0016
3069.0,-0.0016
3068.0,-0.0016
3067.0,-0.0016
3066.0,-0.0017
3065.0,-0.0017
3064.0,-0.0017
3063.0,-0.0018
3062.0,-0.0018
3061.0,-0.0018
3060.0,-0.0018
3059.0,-0.0017
3058.0,-0.0017
3057.0,-0.0017
3056.0,-0.0018
3055.0,-0.0018
3054.0,-0.0018
3053.0,-0.0017
3052.0,-0.0017
3051.0,-0.0017
3050.0,-0.0018
3049.0,-0.0018
3048.0,-0.0018
3047.0,-0.0017
3046.0,-0.0017
3045.0,-0.0017
3044.0,-0.0018
3043.0,-0.0018
3042.0,-0.0017
3041.0,-0.0017
3040.0,-0.0017
3039.0,-0.0017
3038.0,-0.0017
3037.0,-0.0017
3036.0,-0.0016
3035.0,-0.0016
3034.0,-0.0016
3033.0,-0.0017
3032.0,-0.0018
3031.0,-0.0018
3030.0,-0.0017
3029.0,-0.0016
3028.0,-0.0015
3027.0,-0.0013
3026.0,-0.0012
3025.0,-0.0011
3024.0,-0.001
3023.0,-0.0009
3022.0,-0.0007
3021.0,-0.0005
3020.0,-0.0003
3019.0,-0.0
3018.0,0.0003
3017.0,0.0006
3016.0,0.001
3015.0,0.0014
3014.0,0.0018
3013.0,0.0022
3012.0,0.0026
3011.0,0.0031
3010.0,0.0036
3009.0,0.0041
3008.0,0.0046
3007.0,0.0051
3006.0,0.0056
3005.0,0.0061
3004.0,0.0068
3003.0,0.0075
3002.0,0.0082
3001.0,0.0089
3000.0,0.0094
2999.0,0.0099
2998.0,0.0103
2997.0,0.0106
2996.0,0.0106
2995.0,0.0105
2994.0,0.0102
2993.0,0.0098
2992.0,0.0093
2991.0,0.0087
2990.0,0.008
2989.0,0.0073
2988.0,0.0066
2987.0,0.006
2986.0,0.0055
2985.0,0.005
2984.0,0.0046
2983.0,0.0042
2982.0,0.0039
2981.0,0.0036
2980.0,0.0034
2979.0,0.0032
2978.0,0.0031
2977.0,0.003
2976.0,0.0029
2975.0,0.0028
2974.0,0.0027
2973.0,0.0027
2972.0,0.0027
2971.0,0.0027
2970.0,0.0026
2969.0,0.0027
2968.0,0.0027
2967.0,0.0028
2966.0,0.003
2965.0,0.0032
2964.0,0.0033
2963.0,0.0035
2962.0,0.0036
2961.0,0.0037
2960.0,0.0038
2959.0,0.004
2958.0,0.0042
2957.0,0.0045
2956.0,0.0048
2955.0,0.0052
2954.0,0.0055
2953.0,0.0059
2952.0,0.0062
2951.0,0.0066
2950.0,0.007
2949.0,0.0075
2948.0,0.0079
2947.0,0.0082
2946.0,0.0083
2945.0,0.0082
2944.0,0.008
2943.0,0.0077
2942.0,0.0073
2941.0,0.0068
2940.0,0.0063
2939.0,0.0057
2938.0,0.0052
2937.0,0.0047
2936.0,0.0043
2935.0,0.0039
2934.0,0.0037
2933.0,0.0034
2932.0,0.0032
2931.0,0.0029
2930.0,0.0027
2929.0,0.0025
2928.0,0.0024
2927.0,0.0023
2926.0,0.0022
2925.0,0.0021
2924.0,0.0019
2923.0,0.0018
2922.0,0.0016
2921.0,0.0015
2920.0,0.0014
2919.0,0.0013
2918.0,0.0012
2917.0,0.0012
2916.0,0.0011
2915.0,0.0011
2914.0,0.001
2913.0,0.0009
2912.0,0.0009
2911.0,0.0009
2910.0,0.0009
2909.0,0.0009
2908.0,0.0009
2907.0,0.0009
2906.0,0.0009
2905.0,0.0008
2904.0,0.0008
2903.0,0.0008
2902.0,0.0008
2901.0,0.0007
2900.0,0.0007
2899.0,0.0007
2898.0,0.0007
2897.0,0.0007
2896.0,0.0007
2895.0,0.0007
2894.0,0.0007
2893.0,0.0006
2892.0,0.0006
2891.0,0.0006
2890.0,0.0007
2889.0,0.0008
2888.0,0.0009
2887.0,0.001
2886.0,0.001
2885.0,0.0011
2884.0,0.0011
2883.0,0.0011
2882.0,0.0011
2881.0,0.0011
2880.0,0.0011
2879.0,0.0012
2878.0,0.0011
2877.0,0.001
2876.0,0.0009
2875.0,0.0007
2874.0,0.0005
2873.0,0.0004
2872.0,0.0003
2871.0,0.0002
2870.0,0.0001
2869.0,0.0001
2868.0,-0.0001
2867.0,-0.0003
2866.0,-0.0005
2865.0,-0.0006
2864.0,-0.0006
2863.0,-0.0006
2862.0,-0.0006
2861.0,-0.0006
2860.0,-0.0007
2859.0,-0.0007
2858.0,-0.0007
2857.0,-0.0006
2856.0,-0.0006
2855.0,-0.0006
2854.0,-0.0007
2853.0,-0.0007
2852.0,-0.0007
2851.0,-0.0007
2850.0,-0.0007
2849.0,-0.0008
2848.0,-0.0009
2847.0,-0.001
2846.0,-0.0011
2845.0,-0.0011
2844.0,-0.0011
2843.0,-0.001
2842.0,-0.001
2841.0,-0.0011
2840.0,-0.0011
2839.0,-0.0011
2838.0,-0.0012
2837.0,-0.0011
2836.0,-0.0011
2835.0,-0.0011
2834.0,-0.001
2833.0,-0.001
2832.0,-0.0009
2831.0,-0.0009
2830.0,-0.001
2829.0,-0.0011
2828.0,-0.0012
2827.0,-0.0013
2826.0,-0.0014
2825.0,-0.0014
2824.0,-0.0014
2823.0,-0.0014
2822.0,-0.0013
2821.0,-0.0013
2820.0,-0.0013
2819.0,-0.0013
2818.0,-0.0013
2817.0,-0.0013
2816.0,-0.0013
2815.0,-0.0014
2814.0,-0.0015
2813.0,-0.0015
2812.0,-0.0015
2811.0,-0.0015
2810.0,-0.0015
2809.0,-0.0015
2808.0,-0.0016
2807.0,-0.0016
2806.0,-0.0016
2805.0,-0.0016
2804.0,-0.0016
2803.0,-0.0015
2802.0,-0.0014
2801.0,-0.0014
2800.0,-0.0014
2799.0,-0.0015
2798.0,-0.0016
2797.0,-0.0016
2796.0,-0.0016
2795.0,-0.0016
2794.0,-0.0016
2793.0,-0.0016
2792.0,-0.0017
2791.0,-0.0017
2790.0,-0.0018
2789.0,-0.0018
2788.0,-0.0018
2787.0,-0.0018
2786.0,-0.0018
2785.0,-0.0018
2784.0,-0.0018
2783.0,-0.0018
2782.0,-0.0017
2781.0,-0.0017
2780.0,-0.0017
2779.0,-0.0017
2778.0,-0.0017
2777.0,-0.0017
2776.0,-0.0017
2775.0,-0.0017
2774.0,-0.0017
2773.0,-0.0018
2772.0,-0.0018
2771.0,-0.0019
2770.0,-0.002
2769.0,-0.002
2768.0,-0.002
2767.0,-0.002
2766.0,-0.002
2765.0,-0.002
2764.0,-0.002
2763.0,-0.002
2762.0,-0.002
2761.0,-0.0019
2760.0,-0.0019
2759.0,-0.0019
2758.0,-0.0019
2757.0,-0.0019
2756.0,-0.002
2755.0,-0.002
2754.0,-0.0021
2753.0,-0.0022
2752.0,-0.0022
2751.0,-0.0021
2750.0,-0.0021
2749.0,-0.002
2748.0,-0.0019
2747.0,-0.0019
2746.0,-0.0019
2745.0,-0.0019
2744.0,-0.0019
2743.0,-0.0019
2742.0,-0.002
2741.0,-0.002
2740.0,-0.002
2739.0,-0.002
2738.0,-0.002
2737.0,-0.002
2736.0,-0.002
2735.0,-0.0019
2734.0,-0.0019
2733.0,-0.002
2732.0,-0.002
2731.0,-0.002
2730.0,-0.0021
2729.0,-0.002
2728.0,-0.002
2727.0,-0.0021
2726.0,-0.0021
2725.0,-0.0021
2724.0,-0.0021
2723.0,-0.0021
2722.0,-0.0021
2721.0,-0.0021
2720.0,-0.0021
2719.0,-0.0021
2718.0,-0.0022
2717.0,-0.0022
2716.0,-0.0022
2715.0,-0.0022
2714.0,-0.0021
2713.0,-0.002
2712.0,-0.002
2711.0,-0.0019
2710.0,-0.002
2709.0,-0.002
2708.0,-0.002
2707.0,-0.002
2706.0,-0.0021
2705.0,-0.0021
2704.0,-0.0021
2703.0,-0.0021
2702.0,-0.0021
2701.0,-0.0021
2700.0,-0.0021
2699.0,-0.0021
2698.0,-0.0021
2697.0,-0.002
2696.0,-0.0021
2695.0,-0.0021
2694.0,-0.0021
2693.0,-0.0022
2692.0,-0.0022
2691.0,-0.0022
2690.0,-0.0023
2689.0,-0.0023
2688.0,-0.0023
2687.0,-0.0023
2686.0,-0.0023
2685.0,-0.0022
2684.0,-0.0022
2683.0,-0.0021
2682.0,-0.0021
2681.0,-0.0021
2680.0,-0.0022
2679.0,-0.0022
2678.0,-0.0022
2677.0,-0.0021
2676.0,-0.0021
2675.0,-0.002
2674.0,-0.002
2673.0,-0.002
2672.0,-0.002
2671.0,-0.0021
2670.0,-0.0021
2669.0,-0.0021
2668.0,-0.0021
2667.0,-0.0021
2666.0,-0.0021
2665.0,-0.0021
2664.0,-0.002
2663.0,-0.002
2662.0,-0.002
2661.0,-0.002
2660.0,-0.002
2659.0,-0.002
2658.0,-0.002
2657.0,-0.002
2656.0,-0.002
2655.0,-0.002
2654.0,-0.002
2653.0,-0.0021
2652.0,-0.0021
2651.0,-0.0021
2650.0,-0.0021
2649.0,-0.0021
2648.0,-0.0021
2647.0,-0.0021
2646.0,-0.0021
2645.0,-0.0021
2644.0,-0.0021
2643.0,-0.0021
2642.0,-0.0021
2641.0,-0.0021
2640.0,-0.0021
2639.0,-0.0021
2638.0,-0.0021
2637.0,-0.0021
2636.0,-0.0021
2635.0,-0.0021
2634.0,-0.0021
2633.0,-0.0022
2632.0,-0.0022
2631.0,-0.0022
2630.0,-0.0022
2629.0,-0.0022
2628.0,-0.0022
2627.0,-0.0022
2626.0,-0.0021
2625.0,-0.0022
2624.0,-0.0022
2623.0,-0.0022
2622.0,-0.0022
2621.0,-0.0021
2620.0,-0.0021
2619.0,-0.0021
2618.0,-0.0022
2617.0,-0.0023
2616.0,-0.0023
2615.0,-0.0024
2614.0,-0.0023
2613.0,-0.0023
2612.0,-0.0023
2611.0,-0.0023
2610.0,-0.0023
2609.0,-0.0023
2608.0,-0.0022
2607.0,-0.0022
2606.0,-0.0021
2605.0,-0.0021
2604.0,-0.0021
2603.0,-0.0022
2602.0,-0.0023
2601.0,-0.0024
2600.0,-0.0025
2599.0,-0.0024
2598.0,-0.0024
2597.0,-0.0024
2596.0,-0.0023
2595.0,-0.0023
2594.0,-0.0023
2593.0,-0.0023
2592.0,-0.0023
2591.0,-0.0023
2590.0,-0.0024
2589.0,-0.0024
2588.0,-0.0024
2587.0,-0.0024
2586.0,-0.0023
2585.0,-0.0023
2584.0,-0.0023
2583.0,-0.0023
2582.0,-0.0024
2581.0,-0.0024
2580.0,-0.0025
2579.0,-0.0025
2578.0,-0.0024
2577.0,-0.0024
2576.0,-0.0024
2575.0,-0.0024
2574.0,-0.0024
2573.0,-0.0025
2572.0,-0.0025
2571.0,-0.0025
2570.0,-0.0024
2569.0,-0.0024
2568.0,-0.0023
2567.0,-0.0024
2566.0,-0.0024
2565.0,-0.0024
2564.0,-0.0024
2563.0,-0.0024
2562.0,-0.0024
2561.0,-0.0024
2560.0,-0.0025
2559.0,-0.0025
2558.0,-0.0025
2557.0,-0.0025
2556.0,-0.0025
2555.0,-0.0026
2554.0,-0.0026
2553.0,-0.0026
2552.0,-0.0026
2551.0,-0.0026
2550.0,-0.0026
2549.0,-0.0026
2548.0,-0.0026
2547.0,-0.0026
2546.0,-0.0026
2545.0,-0.0026
2544.0,-0.0026
2543.0,-0.0026
2542.0,-0.0025
2541.0,-0.0025
2540.0,-0.0025
2539.0,-0.0025
2538.0,-0.0026
2537.0,-0.0026
2536.0,-0.0025
2535.0,-0.0025
2534.0,-0.0026
2533.0,-0.0026
2532.0,-0.0027
2531.0,-0.0027
2530.0,-0.0028
2529.0,-0.0028
2528.0,-0.0028
2527.0,-0.0027
2526.0,-0.0027
2525.0,-0.0026
2524.0,-0.0026
2523.0,-0.0026
2522.0,-0.0027
2521.0,-0.0027
2520.0,-0.0027
2519.0,-0.0027
2518.0,-0.0027
2517.0,-0.0027
2516.0,-0.0027
2515.0,-0.0027
2514.0,-0.0027
2513.0,-0.0027
2512.0,-0.0026
2511.0,-0.0026
2510.0,-0.0026
2509.0,-0.0026
2508.0,-0.0026
2507.0,-0.0026
2506.0,-0.0025
2505.0,-0.0025
2504.0,-0.0026
2503.0,-0.0027
2502.0,-0.0027
2501.0,-0.0027
2500.0,-0.0027
2499.0,-0.0028
2498.0,-0.0028
2497.0,-0.0028
2496.0,-0.0028
2495.0,-0.0027
2494.0,-0.0027
2493.0,-0.0027
2492.0,-0.0027
2491.0,-0.0027
2490.0,-0.0028
2489.0,-0.0028
2488.0,-0.0028
2487.0,-0.0028
2486.0,-0.0029
2485.0,-0.0028
2484.0,-0.0028
2483.0,-0.0028
2482.0,-0.0027
2481.0,-0.0027
2480.0,-0.0028
2479.0,-0.0028
2478.0,-0.0029
2477.0,-0.003
2476.0,-0.003
2475.0,-0.003
2474.0,-0.003
2473.0,-0.003
2472.0,-0.0029
2471.0,-0.0029
2470.0,-0.0029
2469.0,-0.0029
2468.0,-0.0029
2467.0,-0.0029
2466.0,-0.003
2465.0,-0.003
2464.0,-0.003
2463.0,-0.003
2462.0,-0.003
2461.0,-0.003
2460.0,-0.003
2459.0,-0.003
2458.0,-0.003
2457.0,-0.003
2456.0,-0.003
2455.0,-0.003
2454.0,-0.003
2453.0,-0.003
2452.0,-0.003
2451.0,-0.003
2450.0,-0.003
2449.0,-0.003
2448.0,-0.003
2447.0,-0.0029
2446.0,-0.0028
2445.0,-0.0028
2444.0,-0.0028
2443.0,-0.0029
2442.0,-0.0029
2441.0,-0.003
2440.0,-0.003
2439.0,-0.0029
2438.0,-0.0029
2437.0,-0.0028
2436.0,-0.0027
2435.0,-0.0027
2434.0,-0.0027
2433.0,-0.0027
2432.0,-0.0028
2431.0,-0.0028
2430.0,-0.0028
2429.0,-0.0029
2428.0,-0.0028
2427.0,-0.0028
2426.0,-0.0027
2425.0,-0.0027
2424.0,-0.0027
2423.0,-0.0027
2422.0,-0.0028
2421.0,-0.0028
2420.0,-0.0027
2419.0,-0.0027
2418.0,-0.0027
2417.0,-0.0027
2416.0,-0.0027
2415.0,-0.0027
2414.0,-0.0027
2413.0,-0.0026
2412.0,-0.0026
2411.0,-0.0026
2410.0,-0.0026
2409.0,-0.0025
2408.0,-0.0025
2407.0,-0.0026
2406.0,-0.0026
2405.0,-0.0026
2404.0,-0.0027
2403.0,-0.0026
2402.0,-0.0025
2401.0,-0.0025
2400.0,-0.0025
2399.0,-0.0026
2398.0,-0.0026
2397.0,-0.0027
2396.0,-0.0027
2395.0,-0.0027
2394.0,-0.0027
2393.0,-0.0027
2392.0,-0.0027
2391.0,-0.0027
2390.0,-0.0027
2389.0,-0.0027
2388.0,-0.0027
2387.0,-0.0027
2386.0,-0.0027
2385.0,-0.0027
2384.0,-0.0028
2383.0,-0.0029
2382.0,-0.0031
2381.0,-0.0033
2380.0,-0.0036
2379.0,-0.0039
2378.0,-0.0041
2377.0,-0.0042
2376.0,-0.0043
2375.0,-0.0043
2374.0,-0.0044
2373.0,-0.0044
2372.0,-0.0043
2371.0,-0.0042
2370.0,-0.0041
2369.0,-0.0042
2368.0,-0.0044
2367.0,-0.0049
2366.0,-0.0051
2365.0,-0.0044
2364.0,-0.0036
2363.0,-0.0038
2362.0,-0.0046
2361.0,-0.0044
2360.0,-0.0033
2359.0,-0.003
2358.0,-0.0039
2357.0,-0.005
2356.0,-0.0056
2355.0,-0.0061
2354.0,-0.0066
2353.0,-0.0068
2352.0,-0.0067
2351.0,-0.0064
2350.0,-0.006
2349.0,-0.0056
2348.0,-0.0054
2347.0,-0.0055
2346.0,-0.0058
2345.0,-0.006
2344.0,-0.0059
2343.0,-0.006
2342.0,-0.0064
2341.0,-0.0068
2340.0,-0.0069
2339.0,-0.0067
2338.0,-0.0062
2337.0,-0.0055
2336.0,-0.0049
2335.0,-0.0048
2334.0,-0.0053
2333.0,-0.0059
2332.0,-0.0063
2331.0,-0.0064
2330.0,-0.0061
2329.0,-0.0057
2328.0,-0.0054
2327.0,-0.0052
2326.0,-0.0052
2325.0,-0.0052
2324.0,-0.0052
2323.0,-0.0052
2322.0,-0.0052
2321.0,-0.0049
2320.0,-0.0045
2319.0,-0.0042
2318.0,-0.0041
2317.0,-0.004
2316.0,-0.004
2315.0,-0.0041
2314.0,-0.0043
2313.0,-0.0045
2312.0,-0.0045
2311.0,-0.0045
2310.0,-0.0045
2309.0,-0.0045
2308.0,-0.0044
2307.0,-0.0044
2306.0,-0.0044
2305.0,-0.0044
2304.0,-0.0044
2303.0,-0.0044
2302.0,-0.0043
2301.0,-0.0043
2300.0,-0.0042
2299.0,-0.0041
2298.0,-0.0041
2297.0,-0.0041
2296.0,-0.0041
2295.0,-0.0041
2294.0,-0.004
2293.0,-0.004
2292.0,-0.0039
2291.0,-0.0038
2290.0,-0.0038
2289.0,-0.0038
2288.0,-0.0038
2287.0,-0.0038
2286.0,-0.0038
2285.0,-0.0038
2284.0,-0.0038
2283.0,-0.0038
2282.0,-0.0038
2281.0,-0.0038
2280.0,-0.0038
2279.0,-0.0039
2278.0,-0.0039
2277.0,-0.004
2276.0,-0.0041
2275.0,-0.0041
2274.0,-0.0042
2273.0,-0.0042
2272.0,-0.0041
2271.0,-0.004
2270.0,-0.004
2269.0,-0.004
2268.0,-0.004
2267.0,-0.0041
2266.0,-0.0041
2265.0,-0.0041
2264.0,-0.0041
2263.0,-0.0041
2262.0,-0.0041
2261.0,-0.0042
2260.0,-0.0041
2259.0,-0.0041
2258.0,-0.0041
2257.0,-0.004
2256.0,-0.004
2255.0,-0.004
2254.0,-0.004
2253.0,-0.004
2252.0,-0.004
2251.0,-0.0041
2250.0,-0.0041
2249.0,-0.0041
2248.0,-0.0041
2247.0,-0.0042
2246.0,-0.0042
2245.0,-0.0042
2244.0,-0.0042
2243.0,-0.0042
2242.0,-0.0042
2241.0,-0.0042
2240.0,-0.0042
2239.0,-0.0042
2238.0,-0.0042
2237.0,-0.0042
2236.0,-0.0042
2235.0,-0.0042
2234.0,-0.0042
2233.0,-0.0043
2232.0,-0.0043
2231.0,-0.0043
2230.0,-0.0044
2229.0,-0.0044
2228.0,-0.0044
2227.0,-0.0044
2226.0,-0.0044
2225.0,-0.0045
2224.0,-0.0045
2223.0,-0.0045
2222.0,-0.0045
2221.0,-0.0044
2220.0,-0.0044
2219.0,-0.0044
2218.0,-0.0045
2217.0,-0.0045
2216.0,-0.0046
2215.0,-0.0046
2214.0,-0.0047
2213.0,-0.0047
2212.0,-0.0047
2211.0,-0.0047
2210.0,-0.0047
2209.0,-0.0047
2208.0,-0.0047
2207.0,-0.0047
2206.0,-0.0047
2205.0,-0.0048
2204.0,-0.0048
2203.0,-0.0048
2202.0,-0.0049
2201.0,-0.0048
2200.0,-0.0048
2199.0,-0.0048
2198.0,-0.0049
2197.0,-0.0049
2196.0,-0.0049
2195.0,-0.0048
2194.0,-0.0048
2193.0,-0.0049
2192.0,-0.0049
2191.0,-0.0049
2190.0,-0.0049
2189.0,-0.0049
2188.0,-0.0049
2187.0,-0.0049
2186.0,-0.0049
2185.0,-0.0049
2184.0,-0.0049
2183.0,-0.0048
2182.0,-0.0048
2181.0,-0.0048
2180.0,-0.0048
2179.0,-0.0049
2178.0,-0.0049
2177.0,-0.0049
2176.0,-0.0049
2175.0,-0.0049
2174.0,-0.0049
2173.0,-0.0049
2172.0,-0.0049
2171.0,-0.0049
2170.0,-0.0049
2169.0,-0.005
2168.0,-0.0049
2167.0,-0.0049
2166.0,-0.0048
2165.0,-0.0048
2164.0,-0.0049
2163.0,-0.0049
2162.0,-0.005
2161.0,-0.005
2160.0,-0.005
2159.0,-0.005
2158.0,-0.005
2157.0,-0.005
2156.0,-0.005
2155.0,-0.005
2154.0,-0.005
2153.0,-0.005
2152.0,-0.005
2151.0,-0.005
2150.0,-0.005
2149.0,-0.0051
2148.0,-0.005
2147.0,-0.005
2146.0,-0.0049
2145.0,-0.0049
2144.0,-0.0049
2143.0,-0.0049
2142.0,-0.0049
2141.0,-0.0049
2140.0,-0.0049
2139.0,-0.0049
2138.0,-0.0048
2137.0,-0.0048
2136.0,-0.0048
2135.0,-0.0048
2134.0,-0.0048
2133.0,-0.0048
2132.0,-0.0047
2131.0,-0.0047
2130.0,-0.0047
2129.0,-0.0047
2128.0,-0.0048
2127.0,-0.0048
2126.0,-0.0049
2125.0,-0.0049
2124.0,-0.0048
2123.0,-0.0047
2122.0,-0.0047
2121.0,-0.0047
2120.0,-0.0047
2119.0,-0.0047
2118.0,-0.0048
2117.0,-0.0048
2116.0,-0.0048
2115.0,-0.0048
2114.0,-0.0049
2113.0,-0.0049
2112.0,-0.0049
2111.0,-0.0049
2110.0,-0.0049
2109.0,-0.0049
2108.0,-0.0049
2107.0,-0.0049
2106.0,-0.0049
2105.0,-0.0049
2104.0,-0.0048
2103.0,-0.0048
2102.0,-0.0048
2101.0,-0.0048
2100.0,-0.0048
2099.0,-0.0047
2098.0,-0.0047
2097.0,-0.0047
2096.0,-0.0046
2095.0,-0.0047
2094.0,-0.0047
2093.0,-0.0047
2092.0,-0.0047
2091.0,-0.0047
2090.0,-0.0047
2089.0,-0.0047
2088.0,-0.0046
2087.0,-0.0046
2086.0,-0.0046
2085.0,-0.0046
2084.0,-0.0046
2083.0,-0.0047
2082.0,-0.0047
2081.0,-0.0048
2080.0,-0.0048
2079.0,-0.0047
2078.0,-0.0047
2077.0,-0.0047
2076.0,-0.0047
2075.0,-0.0048
2074.0,-0.0048
2073.0,-0.0049
2072.0,-0.0049
2071.0,-0.0049
2070.0,-0.005
2069.0,-0.0051
2068.0,-0.0051
2067.0,-0.0051
2066.0,-0.0051
2065.0,-0.0051
2064.0,-0.0052
2063.0,-0.0052
2062.0,-0.0053
2061.0,-0.0054
2060.0,-0.0054
2059.0,-0.0055
2058.0,-0.0055
2057.0,-0.0055
2056.0,-0.0054
2055.0,-0.0054
2054.0,-0.0055
2053.0,-0.0055
2052.0,-0.0055
2051.0,-0.0056
2050.0,-0.0057
2049.0,-0.0058
2048.0,-0.0059
2047.0,-0.0059
2046.0,-0.0059
2045.0,-0.0059
2044.0,-0.006
2043.0,-0.006
2042.0,-0.0061
2041.0,-0.0062
2040.0,-0.0063
2039.0,-0.0063
2038.0,-0.0063
2037.0,-0.0063
2036.0,-0.0063
2035.0,-0.0063
2034.0,-0.0063
2033.0,-0.0063
2032.0,-0.0063
2031.0,-0.0063
2030.0,-0.0064
2029.0,-0.0064
2028.0,-0.0064
2027.0,-0.0064
2026.0,-0.0065
2025.0,-0.0065
2024.0,-0.0065
2023.0,-0.0065
2022.0,-0.0065
2021.0,-0.0064
2020.0,-0.0064
2019.0,-0.0064
2018.0,-0.0063
2017.0,-0.0063
2016.0,-0.0063
2015.0,-0.0063
2014.0,-0.0063
2013.0,-0.0063
2012.0,-0.0063
2011.0,-0.0063
2010.0,-0.0064
2009.0,-0.0064
2008.0,-0.0064
2007.0,-0.0064
2006.0,-0.0064
2005.0,-0.0064
2004.0,-0.0063
2003.0,-0.0063
2002.0,-0.0063
2001.0,-0.0063
2000.0,-0.0063
1999.0,-0.0064
1998.0,-0.0064
1997.0,-0.0064
1996.0,-0.0064
1995.0,-0.0064
1994.0,-0.0064
1993.0,-0.0064
1992.0,-0.0064
1991.0,-0.0064
1990.0,-0.0065
1989.0,-0.0066
1988.0,-0.0066
1987.0,-0.0066
1986.0,-0.0066
1985.0,-0.0066
1984.0,-0.0066
1983.0,-0.0066
1982.0,-0.0066
1981.0,-0.0066
1980.0,-0.0066
1979.0,-0.0066
1978.0,-0.0065
1977.0,-0.0065
1976.0,-0.0064
1975.0,-0.0064
1974.0,-0.0064
1973.0,-0.0064
1972.0,-0.0064
1971.0,-0.0064
1970.0,-0.0065
1969.0,-0.0065
1968.0,-0.0065
1967.0,-0.0065
1966.0,-0.0065
1965.0,-0.0065
1964.0,-0.0065
1963.0,-0.0065
1962.0,-0.0066
1961.0,-0.0066
1960.0,-0.0067
1959.0,-0.0067
1958.0,-0.0068
1957.0,-0.0068
1956.0,-0.0068
1955.0,-0.0068
1954.0,-0.0069
1953.0,-0.0069
1952.0,-0.0068
1951.0,-0.0068
1950.0,-0.0069
1949.0,-0.0069
1948.0,-0.007
1947.0,-0.0071
1946.0,-0.0072
1945.0,-0.0073
1944.0,-0.0073
1943.0,-0.0073
1942.0,-0.0074
1941.0,-0.0074
1940.0,-0.0074
1939.0,-0.0075
1938.0,-0.0075
1937.0,-0.0076
1936.0,-0.0076
1935.0,-0.0076
1934.0,-0.0077
1933.0,-0.0077
1932.0,-0.0077
1931.0,-0.0076
1930.0,-0.0076
1929.0,-0.0076
1928.0,-0.0076
1927.0,-0.0076
1926.0,-0.0077
1925.0,-0.0077
1924.0,-0.0077
1923.0,-0.0077
1922.0,-0.0078
1921.0,-0.0077
1920.0,-0.0077
1919.0,-0.0077
1918.0,-0.0077
1917.0,-0.0078
1916.0,-0.0078
1915.0,-0.0078
1914.0,-0.0078
1913.0,-0.0078
1912.0,-0.0077
1911.0,-0.0077
1910.0,-0.0077
1909.0,-0.0077
1908.0,-0.0077
1907.0,-0.0077
1906.0,-0.0078
1905.0,-0.0078
1904.0,-0.0078
1903.0,-0.0078
1902.0,-0.0079
1901.0,-0.0079
1900.0,-0.0079
1899.0,-0.0078
1898.0,-0.0079
1897.0,-0.0078
1896.0,-0.0078
1895.0,-0.0078
1894.0,-0.0078
1893.0,-0.0079
1892.0,-0.0078
1891.0,-0.0078
1890.0,-0.0078
1889.0,-0.0079
1888.0,-0.0078
1887.0,-0.0078
1886.0,-0.0078
1885.0,-0.0079
1884.0,-0.0079
1883.0,-0.0079
1882.0,-0.008
1881.0,-0.008
1880.0,-0.008
1879.0,-0.008
1878.0,-0.008
1877.0,-0.0079
1876.0,-0.0078
1875.0,-0.0078
1874.0,-0.0078
1873.0,-0.0078
1872.0,-0.0077
1871.0,-0.0077
1870.0,-0.0078
1869.0,-0.0078
1868.0,-0.0078
1867.0,-0.0077
1866.0,-0.0077
1865.0,-0.0077
1864.0,-0.0077
1863.0,-0.0077
1862.0,-0.0077
1861.0,-0.0077
1860.0,-0.0076
1859.0,-0.0075
1858.0,-0.0076
1857.0,-0.0075
1856.0,-0.0075
1855.0,-0.0074
1854.0,-0.0073
1853.0,-0.0072
1852.0,-0.0071
1851.0,-0.007
1850.0,-0.007
1849.0,-0.007
1848.0,-0.0069
1847.0,-0.0068
1846.0,-0.0067
1845.0,-0.0066
1844.0,-0.0065
1843.0,-0.0065
1842.0,-0.0064
1841.0,-0.0062
1840.0,-0.006
1839.0,-0.0059
1838.0,-0.0058
1837.0,-0.0057
1836.0,-0.0055
1835.0,-0.0054
1834.0,-0.0052
1833.0,-0.0051
1832.0,-0.0048
1831.0,-0.0046
1830.0,-0.0045
1829.0,-0.0043
1828.0,-0.0041
1827.0,-0.0039
1826.0,-0.0038
1825.0,-0.0037
1824.0,-0.0035
1823.0,-0.0034
1822.0,-0.0033
1821.0,-0.0032
1820.0,-0.0029
1819.0,-0.0028
1818.0,-0.0027
1817.0,-0.0025
1816.0,-0.0022
1815.0,-0.002
1814.0,-0.0019
1813.0,-0.0017
1812.0,-0.0015
1811.0,-0.0013
1810.0,-0.0012
1809.0,-0.001
1808.0,-0.0007
1807.0,-0.0004
1806.0,-0.0002
1805.0,0.0001
1804.0,0.0004
1803.0,0.0007
1802.0,0.001
1801.0,0.0013
1800.0,0.0019
1799.0,0.0024
1798.0,0.0028
1797.0,0.0034
1796.0,0.0041
1795.0,0.0048
1794.0,0.0054
1793.0,0.0066
1792.0,0.0081
1791.0,0.0097
1790.0,0.0111
1789.0,0.0127
1788.0,0.0146
1787.0,0.0168
1786.0,0.0194
1785.0,0.0225
1784.0,0.0258
1783.0,0.0291
1782.0,0.0327
1781.0,0.0371
1780.0,0.0418
1779.0,0.046
1778.0,0.0498
1777.0,0.0535
1776.0,0.0572
1775.0,0.0606
1774.0,0.0644
1773.0,0.07
1772.0,0.0768
1771.0,0.0829
1770.0,0.0883
1769.0,0.0948
1768.0,0.1029
1767.0,0.1114
1766.0,0.1194
1765.0,0.1277
1764.0,0.1375
1763.0,0.1507
1762.0,0.1668
1761.0,0.1825
1760.0,0.1945
1759.0,0.2032
1758.0,0.2108
1757.0,0.2181
1756.0,0.2229
1755.0,0.2241
1754.0,0.2234
1753.0,0.2225
1752.0,0.222
1751.0,0.2213
1750.0,0.22
1749.0,0.2179
1748.0,0.2139
1747.0,0.2078
1746.0,0.2002
1745.0,0.1917
1744.0,0.182
1743.0,0.1718
1742.0,0.1619
1741.0,0.1515
1740.0,0.1402
1739.0,0.1297
1738.0,0.1215
1737.0,0.1148
1736.0,0.1079
1735.0,0.0991
1734.0,0.0902
1733.0,0.0837
1732.0,0.0792
1731.0,0.0752
1730.0,0.0715
1729.0,0.068
1728.0,0.065
1727.0,0.0623
1726.0,0.0602
1725.0,0.0581
1724.0,0.0561
1723.0,0.0542
1722.0,0.0526
1721.0,0.0511
1720.0,0.0493
1719.0,0.0475
1718.0,0.0461
1717.0,0.0449
1716.0,0.0435
1715.0,0.0419
1714.0,0.0405
1713.0,0.039
1712.0,0.0374
1711.0,0.0357
1710.0,0.0342
1709.0,0.0328
1708.0,0.0315
1707.0,0.0302
1706.0,0.0291
1705.0,0.0282
1704.0,0.0273
1703.0,0.0263
1702.0,0.0255
1701.0,0.0247
1700.0,0.0238
1699.0,0.0231
1698.0,0.0226
1697.0,0.0221
1696.0,0.0214
1695.0,0.0208
1694.0,0.0203
1693.0,0.0198
1692.0,0.0192
1691.0,0.0186
1690.0,0.0182
1689.0,0.0178
1688.0,0.0174
1687.0,0.0169
1686.0,0.0165
1685.0,0.0162
1684.0,0.0162
1683.0,0.0161
1682.0,0.0159
1681.0,0.0156
1680.0,0.0152
1679.0,0.0148
1678.0,0.0145
1677.0,0.0142
1676.0,0.014
1675.0,0.0138
1674.0,0.0136
1673.0,0.0134
1672.0,0.0131
1671.0,0.0129
1670.0,0.0128
1669.0,0.0127
1668.0,0.0125
1667.0,0.0123
1666.0,0.0121
1665.0,0.0119
1664.0,0.0117
1663.0,0.0115
1662.0,0.0114
1661.0,0.0113
1660.0,0.011
1659.0,0.0108
1658.0,0.0105
1657.0,0.0103
1656.0,0.01
1655.0,0.0097
1654.0,0.0097
1653.0,0.0099
1652.0,0.0097
1651.0,0.0095
1650.0,0.0094
1649.0,0.0093
1648.0,0.0091
1647.0,0.009
1646.0,0.0089
1645.0,0.0088
1644.0,0.0086
1643.0,0.0084
1642.0,0.0082
1641.0,0.008
1640.0,0.0078
1639.0,0.0077
1638.0,0.0076
1637.0,0.0075
1636.0,0.0076
1635.0,0.0077
1634.0,0.0077
1633.0,0.0077
1632.0,0.0075
1631.0,0.0074
1630.0,0.0072
1629.0,0.0071
1628.0,0.007
1627.0,0.0069
1626.0,0.0069
1625.0,0.0068
1624.0,0.0067
1623.0,0.0067
1622.0,0.0067
1621.0,0.0065
1620.0,0.0063
1619.0,0.0061
1618.0,0.006
1617.0,0.006
1616.0,0.0059
1615.0,0.0058
1614.0,0.0057
1613.0,0.0055
1612.0,0.0053
1611.0,0.0051
1610.0,0.005
1609.0,0.0048
1608.0,0.0047
1607.0,0.0046
1606.0,0.0045
1605.0,0.0044
1604.0,0.0043
1603.0,0.0041
1602.0,0.0039
1601.0,0.0037
1600.0,0.0036
1599.0,0.0034
1598.0,0.0033
1597.0,0.0031
1596.0,0.003
1595.0,0.0029
1594.0,0.0028
1593.0,0.0027
1592.0,0.0026
1591.0,0.0025
1590.0,0.0024
1589.0,0.0023
1588.0,0.0021
1587.0,0.002
1586.0,0.0019
1585.0,0.0018
1584.0,0.0017
1583.0,0.0016
1582.0,0.0014
1581.0,0.0013
1580.0,0.0012
1579.0,0.0011
1578.0,0.001
1577.0,0.0009
1576.0,0.0008
1575.0,0.0007
1574.0,0.0007
1573.0,0.0006
1572.0,0.0005
1571.0,0.0004
1570.0,0.0004
1569.0,0.0004
1568.0,0.0003
1567.0,0.0002
1566.0,0.0002
1565.0,0.0001
1564.0,0.0
1563.0,-0.0
1562.0,-0.0
1561.0,-0.0001
1560.0,-0.0002
1559.0,-0.0003
1558.0,-0.0003
1557.0,-0.0003
1556.0,-0.0003
1555.0,-0.0003
1554.0,-0.0004
1553.0,-0.0004
1552.0,-0.0005
1551.0,-0.0005
1550.0,-0.0005
1549.0,-0.0005
1548.0,-0.0005
1547.0,-0.0006
1546.0,-0.0006
1545.0,-0.0006
1544.0,-0.0006
1543.0,-0.0006
1542.0,-0.0007
1541.0,-0.0006
1540.0,-0.0007
1539.0,-0.0008
1538.0,-0.0009
1537.0,-0.0008
1536.0,-0.0008
1535.0,-0.0008
1534.0,-0.0008
1533.0,-0.0008
1532.0,-0.0008
1531.0,-0.0008
1530.0,-0.0009
1529.0,-0.0009
1528.0,-0.0009
1527.0,-0.0009
1526.0,-0.0009
1525.0,-0.0009
1524.0,-0.0009
1523.0,-0.0009
1522.0,-0.001
1521.0,-0.001
1520.0,-0.0009
1519.0,-0.0009
1518.0,-0.0008
1517.0,-0.0008
1516.0,-0.0009
1515.0,-0.0009
1514.0,-0.001
1513.0,-0.001
1512.0,-0.001
1511.0,-0.0011
1510.0,-0.0011
1509.0,-0.0011
1508.0,-0.0011
1507.0,-0.0012
1506.0,-0.0014
1505.0,-0.0014
1504.0,-0.0013
1503.0,-0.0013
1502.0,-0.0013
1501.0,-0.0012
1500.0,-0.0011
1499.0,-0.0011
1498.0,-0.0011
1497.0,-0.001
1496.0,-0.0011
1495.0,-0.0012
1494.0,-0.0012
1493.0,-0.0012
1492.0,-0.0011
1491.0,-0.0011
1490.0,-0.0011
1489.0,-0.001
1488.0,-0.0009
1487.0,-0.0009
1486.0,-0.0009
1485.0,-0.0008
1484.0,-0.0006
1483.0,-0.0005
1482.0,-0.0003
1481.0,-0.0001
1480.0,0.0002
1479.0,0.0005
1478.0,0.0007
1477.0,0.0012
1476.0,0.0018
1475.0,0.0024
1474.0,0.0034
1473.0,0.0051
1472.0,0.0072
1471.0,0.0091
1470.0,0.0109
1469.0,0.0129
1468.0,0.0152
1467.0,0.0182
1466.0,0.0223
1465.0,0.0278
1464.0,0.0333
1463.0,0.0379
1462.0,0.0418
1461.0,0.0455
1460.0,0.0493
1459.0,0.0535
1458.0,0.059
1457.0,0.0648
1456.0,0.0679
1455.0,0.0686
1454.0,0.0687
1453.0,0.0684
1452.0,0.0677
1451.0,0.0668
1450.0,0.0657
1449.0,0.0642
1448.0,0.0621
1447.0,0.0596
1446.0,0.0568
1445.0,0.0536
1444.0,0.0499
1443.0,0.0457
1442.0,0.0414
1441.0,0.0372
1440.0,0.0333
1439.0,0.0296
1438.0,0.026
1437.0,0.0221
1436.0,0.0186
1435.0,0.0162
1434.0,0.0146
1433.0,0.0131
1432.0,0.0117
1431.0,0.0104
1430.0,0.0093
1429.0,0.0083
1428.0,0.0074
1427.0,0.0068
1426.0,0.0062
1425.0,0.0056
1424.0,0.005
1423.0,0.0046
1422.0,0.0043
1421.0,0.004
1420.0,0.0036
1419.0,0.0033
1418.0,0.003
1417.0,0.0027
1416.0,0.0025
1415.0,0.0024
1414.0,0.0023
1413.0,0.0021
1412.0,0.002
1411.0,0.002
1410.0,0.002
1409.0,0.002
1408.0,0.0021
1407.0,0.0023
1406.0,0.0026
1405.0,0.0029
1404.0,0.0033
1403.0,0.0038
1402.0,0.0043
1401.0,0.005
1400.0,0.0062
1399.0,0.0078
1398.0,0.0097
1397.0,0.0116
1396.0,0.0141
1395.0,0.0174
1394.0,0.021
1393.0,0.0244
1392.0,0.0278
1391.0,0.0315
1390.0,0.0354
1389.0,0.0399
1388.0,0.045
1387.0,0.0498
1386.0,0.0532
1385.0,0.0551
1384.0,0.0562
1383.0,0.0565
1382.0,0.0559
1381.0,0.0541
1380.0,0.0513
1379.0,0.0477
1378.0,0.0442
1377.0,0.0414
1376.0,0.0397
1375.0,0.0395
1374.0,0.041
1373.0,0.0435
1372.0,0.0463
1371.0,0.0489
1370.0,0.0511
1369.0,0.053
1368.0,0.0544
1367.0,0.0554
1366.0,0.0563
1365.0,0.0574
1364.0,0.059
1363.0,0.0612
1362.0,0.0634
1361.0,0.0651
1360.0,0.066
1359.0,0.0663
1358.0,0.0659
1357.0,0.0649
1356.0,0.0632
1355.0,0.0608
1354.0,0.0581
1353.0,0.0552
1352.0,0.0523
1351.0,0.0493
1350.0,0.0464
1349.0,0.0437
1348.0,0.0412
1347.0,0.0389
1346.0,0.0368
1345.0,0.0348
1344.0,0.033
1343.0,0.0314
1342.0,0.0299
1341.0,0.0285
1340.0,0.0272
1339.0,0.0259
1338.0,0.0249
1337.0,0.024
1336.0,0.0231
1335.0,0.0223
1334.0,0.0215
1333.0,0.0209
1332.0,0.0202
1331.0,0.0197
1330.0,0.0192
1329.0,0.0189
1328.0,0.0186
1327.0,0.0185
1326.0,0.0183
1325.0,0.0182
1324.0,0.0181
1323.0,0.0181
1322.0,0.018
1321.0,0.018
1320.0,0.018
1319.0,0.018
1318.0,0.018
1317.0,0.0181
1316.0,0.0182
1315.0,0.0183
1314.0,0.0185
1313.0,0.0187
1312.0,0.019
1311.0,0.0194
1310.0,0.0199
1309.0,0.0204
1308.0,0.0209
1307.0,0.0214
1306.0,0.0217
1305.0,0.0219
1304.0,0.0218
1303.0,0.0216
1302.0,0.0214
1301.0,0.0212
1300.0,0.0209
1299.0,0.0207
1298.0,0.0205
1297.0,0.0204
1296.0,0.0202
1295.0,0.02
1294.0,0.0197
1293.0,0.0192
1292.0,0.0184
1291.0,0.0176
1290.0,0.0168
1289.0,0.0164
1288.0,0.0163
1287.0,0.0167
1286.0,0.0174
1285.0,0.0185
1284.0,0.0199
1283.0,0.0214
1282.0,0.0231
1281.0,0.0249
1280.0,0.0267
1279.0,0.0285
1278.0,0.0302
1277.0,0.0318
1276.0,0.0333
1275.0,0.0347
1274.0,0.0359
1273.0,0.037
1272.0,0.0378
1271.0,0.0385
1270.0,0.039
1269.0,0.0394
1268.0,0.0396
1267.0,0.0396
1266.0,0.0395
1265.0,0.0392
1264.0,0.0387
1263.0,0.0382
1262.0,0.0376
1261.0,0.037
1260.0,0.0363
1259.0,0.0355
1258.0,0.0348
1257.0,0.0342
1256.0,0.0336
1255.0,0.033
1254.0,0.0325
1253.0,0.0321
1252.0,0.0318
1251.0,0.0315
1250.0,0.0314
1249.0,0.0314
1248.0,0.0314
1247.0,0.0315
1246.0,0.0317
1245.0,0.0319
1244.0,0.0323
1243.0,0.0327
1242.0,0.0331
1241.0,0.0336
1240.0,0.0342
1239.0,0.0349
1238.0,0.0356
1237.0,0.0365
1236.0,0.0376
1235.0,0.0388
1234.0,0.0403
1233.0,0.0419
1232.0,0.0439
1231.0,0.0461
1230.0,0.0487
1229.0,0.0516
1228.0,0.0549
1227.0,0.0587
1226.0,0.0628
1225.0,0.0674
1224.0,0.0723
1223.0,0.0775
1222.0,0.0828
1221.0,0.0882
1220.0,0.0938
1219.0,0.0997
1218.0,0.1059
1217.0,0.1122
1216.0,0.1185
1215.0,0.1244
1214.0,0.1296
1213.0,0.134
1212.0,0.1372
1211.0,0.1389
1210.0,0.1395
1209.0,0.1392
1208.0,0.1384
1207.0,0.1374
1206.0,0.1366
1205.0,0.1361
1204.0,0.1362
1203.0,0.1368
1202.0,0.138
1201.0,0.1397
1200.0,0.142
1199.0,0.1449
1198.0,0.1482
1197.0,0.1521
1196.0,0.1566
1195.0,0.1617
1194.0,0.1675
1193.0,0.1741
1192.0,0.1817
1191.0,0.1901
1190.0,0.1994
1189.0,0.2097
1188.0,0.221
1187.0,0.2329
1186.0,0.2452
1185.0,0.2577
1184.0,0.2697
1183.0,0.2802
1182.0,0.2878
1181.0,0.2916
1180.0,0.2905
1179.0,0.2838
1178.0,0.2717
1177.0,0.2556
1176.0,0.2368
1175.0,0.2167
1174.0,0.1967
1173.0,0.1778
1172.0,0.1606
1171.0,0.1451
1170.0,0.1314
1169.0,0.1194
1168.0,0.1091
1167.0,0.1001
1166.0,0.0924
1165.0,0.0857
1164.0,0.08
1163.0,0.075
1162.0,0.0706
1161.0,0.0668
1160.0,0.0635
1159.0,0.0606
1158.0,0.058
1157.0,0.0559
1156.0,0.0541
1155.0,0.0528
1154.0,0.0519
1153.0,0.0516
1152.0,0.0519
1151.0,0.0527
1150.0,0.0543
1149.0,0.0567
1148.0,0.0601
1147.0,0.0646
1146.0,0.0701
1145.0,0.0768
1144.0,0.0844
1143.0,0.093
1142.0,0.1022
1141.0,0.1121
1140.0,0.1227
1139.0,0.1338
1138.0,0.1452
1137.0,0.1567
1136.0,0.1679
1135.0,0.1781
1134.0,0.1872
1133.0,0.1949
1132.0,0.2011
1131.0,0.2055
1130.0,0.208
1129.0,0.2086
1128.0,0.2073
1127.0,0.204
1126.0,0.1988
1125.0,0.1924
1124.0,0.1851
1123.0,0.1775
1122.0,0.1701
1121.0,0.1633
1120.0,0.1575
1119.0,0.1525
1118.0,0.1483
1117.0,0.1454
1116.0,0.1437
1115.0,0.1433
1114.0,0.1442
1113.0,0.1465
1112.0,0.1503
1111.0,0.1551
1110.0,0.1609
1109.0,0.1675
1108.0,0.1748
1107.0,0.1824
1106.0,0.1904
1105.0,0.1986
1104.0,0.2071
1103.0,0.2157
1102.0,0.2243
1101.0,0.2332
1100.0,0.2422
1099.0,0.2514
1098.0,0.2605
1097.0,0.2699
1096.0,0.2794
1095.0,0.2889
1094.0,0.2983
1093.0,0.3079
1092.0,0.3177
1091.0,0.3272
1090.0,0.3363
1089.0,0.3451
1088.0,0.3536
1087.0,0.3609
1086.0,0.3668
1085.0,0.3714
1084.0,0.3743
1083.0,0.3751
1082.0,0.3737
1081.0,0.3707
1080.0,0.3661
1079.0,0.3597
1078.0,0.3517
1077.0,0.3426
1076.0,0.3326
1075.0,0.3214
1074.0,0.3093
1073.0,0.2967
1072.0,0.2839
1071.0,0.271
1070.0,0.258
1069.0,0.2455
1068.0,0.2335
1067.0,0.2221
1066.0,0.2115
1065.0,0.202
1064.0,0.1939
1063.0,0.187
1062.0,0.1815
1061.0,0.1774
1060.0,0.1748
1059.0,0.1734
1058.0,0.1731
1057.0,0.1737
1056.0,0.1752
1055.0,0.1771
1054.0,0.1795
1053.0,0.1822
1052.0,0.1853
1051.0,0.1886
1050.0,0.1924
1049.0,0.1966
1048.0,0.2011
1047.0,0.2055
1046.0,0.2092
1045.0,0.2121
1044.0,0.2138
1043.0,0.214
1042.0,0.2127
1041.0,0.21
1040.0,0.2062
1039.0,0.2012
1038.0,0.1952
1037.0,0.1886
1036.0,0.1818
1035.0,0.175
1034.0,0.1684
1033.0,0.1624
1032.0,0.157
1031.0,0.1522
1030.0,0.1478
1029.0,0.1438
1028.0,0.1402
1027.0,0.1369
1026.0,0.1337
1025.0,0.1306
1024.0,0.1276
1023.0,0.1243
1022.0,0.121
1021.0,0.1176
1020.0,0.1142
1019.0,0.1108
1018.0,0.1073
1017.0,0.104
1016.0,0.1009
1015.0,0.098
1014.0,0.0952
1013.0,0.0926
1012.0,0.0901
1011.0,0.0877
1010.0,0.0855
1009.0,0.0835
1008.0,0.0816
1007.0,0.0799
1006.0,0.0783
1005.0,0.0768
1004.0,0.0754
1003.0,0.0741
1002.0,0.0729
1001.0,0.0718
1000.0,0.0707
999.0,0.0697
998.0,0.0687
997.0,0.0678
996.0,0.067
995.0,0.0661
994.0,0.0653
993.0,0.0644
992.0,0.0636
991.0,0.0628
990.0,0.062
989.0,0.0612
988.0,0.0606
987.0,0.0599
986.0,0.0593
985.0,0.0587
984.0,0.0581
983.0,0.0575
982.0,0.0569
981.0,0.0562
980.0,0.0556
979.0,0.0549
978.0,0.0543
977.0,0.0537
976.0,0.0531
975.0,0.0526
974.0,0.052
973.0,0.0515
972.0,0.0509
971.0,0.0503
970.0,0.0498
969.0,0.0494
968.0,0.0491
967.0,0.0489
966.0,0.0487
965.0,0.0487
964.0,0.0488
963.0,0.0493
962.0,0.0499
961.0,0.0508
960.0,0.0518
959.0,0.0526
958.0,0.0533
957.0,0.0537
956.0,0.0537
955.0,0.0535
954.0,0.053
953.0,0.0525
952.0,0.0518
951.0,0.0511
950.0,0.0504
949.0,0.0497
948.0,0.049
947.0,0.0483
946.0,0.0478
945.0,0.0473
944.0,0.0469
943.0,0.0464
942.0,0.0461
941.0,0.0457
940.0,0.0454
939.0,0.0451
938.0,0.0448
937.0,0.0446
936.0,0.0445
935.0,0.0443
934.0,0.0442
933.0,0.0442
932.0,0.0443
931.0,0.0446
930.0,0.0448
929.0,0.0452
928.0,0.0456
927.0,0.046
926.0,0.0464
925.0,0.0468
924.0,0.0472
923.0,0.0475
922.0,0.0479
921.0,0.048
920.0,0.048
919.0,0.048
918.0,0.0478
917.0,0.0475
916.0,0.0471
915.0,0.0467
914.0,0.0462
913.0,0.0457
912.0,0.0453
911.0,0.0448
910.0,0.0445
909.0,0.0441
908.0,0.0438
907.0,0.0436
906.0,0.0433
905.0,0.0431
904.0,0.0428
903.0,0.0426
902.0,0.0424
901.0,0.0424
900.0,0.0423
899.0,0.0423
898.0,0.0421
897.0,0.042
896.0,0.0419
895.0,0.0417
894.0,0.0415
893.0,0.0413
892.0,0.0409
891.0,0.0404
890.0,0.0399
889.0,0.0394
888.0,0.039
887.0,0.0388
886.0,0.0387
885.0,0.0389
884.0,0.0393
883.0,0.0402
882.0,0.0417
881.0,0.0437
880.0,0.0464
879.0,0.0496
878.0,0.0532
877.0,0.0571
876.0,0.0613
875.0,0.0656
874.0,0.0697
873.0,0.0734
872.0,0.0761
871.0,0.0775
870.0,0.0777
869.0,0.077
868.0,0.0757
867.0,0.074
866.0,0.0723
865.0,0.0706
864.0,0.0689
863.0,0.0671
862.0,0.0652
861.0,0.063
860.0,0.0605
859.0,0.058
858.0,0.0554
857.0,0.0529
856.0,0.0505
855.0,0.0484
854.0,0.0466
853.0,0.0452
852.0,0.0442
851.0,0.0434
850.0,0.0429
849.0,0.0424
848.0,0.042
847.0,0.0415
846.0,0.041
845.0,0.0403
844.0,0.0395
843.0,0.0386
842.0,0.0377
841.0,0.0368
840.0,0.036
839.0,0.0353
838.0,0.0347
837.0,0.0342
836.0,0.0338
835.0,0.0334
834.0,0.033
833.0,0.0327
832.0,0.0323
831.0,0.032
830.0,0.0317
829.0,0.0315
828.0,0.0313
827.0,0.031
826.0,0.0308
825.0,0.0306
824.0,0.0303
823.0,0.0301
822.0,0.0299
821.0,0.0298
820.0,0.0296
819.0,0.0295
818.0,0.0294
817.0,0.0293
816.0,0.0292
815.0,0.029
814.0,0.0288
813.0,0.0286
812.0,0.0284
811.0,0.0283
810.0,0.0281
809.0,0.0279
808.0,0.0277
807.0,0.0276
806.0,0.0276
805.0,0.0276
804.0,0.0275
803.0,0.0274
802.0,0.0273
801.0,0.0271
800.0,0.027
799.0,0.0269
798.0,0.0268
797.0,0.0268
796.0,0.0268
795.0,0.0267
794.0,0.0267
793.0,0.0267
792.0,0.0268
791.0,0.027
790.0,0.0273
789.0,0.0277
788.0,0.0281
787.0,0.0285
786.0,0.0289
785.0,0.0294
784.0,0.0299
783.0,0.0305
782.0,0.031
781.0,0.0316
780.0,0.0322
779.0,0.0327
778.0,0.0332
777.0,0.0337
776.0,0.0343
775.0,0.035
774.0,0.036
773.0,0.0371
772.0,0.0382
771.0,0.0394
770.0,0.0408
769.0,0.0423
768.0,0.0439
767.0,0.0457
766.0,0.0477
765.0,0.0499
764.0,0.0524
763.0,0.0555
762.0,0.0592
761.0,0.0635
760.0,0.0681
759.0,0.0727
758.0,0.077
757.0,0.0806
756.0,0.0828
755.0,0.0835
754.0,0.0825
753.0,0.0805
752.0,0.0779
751.0,0.075
750.0,0.0723
749.0,0.07
748.0,0.0682
747.0,0.0667
746.0,0.0655
745.0,0.0643
744.0,0.0632
743.0,0.0623
742.0,0.0617
741.0,0.0614
740.0,0.0612
739.0,0.0609
738.0,0.0603
737.0,0.0593
736.0,0.0578
735.0,0.0557
734.0,0.0531
733.0,0.0503
732.0,0.0476
731.0,0.0453
730.0,0.0433
729.0,0.0418
728.0,0.0408
727.0,0.0404
726.0,0.0403
725.0,0.0406
724.0,0.041
723.0,0.0417
722.0,0.0429
721.0,0.0446
720.0,0.0469
719.0,0.0492
718.0,0.0511
717.0,0.0526
716.0,0.0541
715.0,0.0556
714.0,0.0572
713.0,0.0587
712.0,0.0598
711.0,0.0606
710.0,0.0612
709.0,0.0618
708.0,0.0624
707.0,0.0627
706.0,0.0629
705.0,0.063
704.0,0.0632
703.0,0.0634
702.0,0.0637
701.0,0.0641
700.0,0.0645
699.0,0.0648
698.0,0.065
697.0,0.0655
696.0,0.0663
695.0,0.067
694.0,0.0674
693.0,0.0674
692.0,0.0671
691.0,0.0666
690.0,0.0658
689.0,0.0647
688.0,0.0636
687.0,0.0628
686.0,0.0626
685.0,0.063
684.0,0.0633
683.0,0.0634
682.0,0.063
681.0,0.0622
680.0,0.0611
679.0,0.0601
678.0,0.0594
677.0,0.0594
676.0,0.0596
675.0,0.0594
674.0,0.0587
673.0,0.0577
672.0,0.0569
671.0,0.0564
670.0,0.0564
669.0,0.0567
668.0,0.0565
667.0,0.0562
666.0,0.0558
665.0,0.0551
664.0,0.0547
663.0,0.0544
662.0,0.0538
661.0,0.0531
660.0,0.0525
659.0,0.0521
658.0,0.0518
657.0,0.0514
656.0,0.0507
655.0,0.0496
654.0,0.0486
653.0,0.0479
652.0,0.0473
651.0,0.0468
650.0,0.0462
649.0,0.0459
648.0,0.0461
647.0,0.0467
646.0,0.0473
645.0,0.0477
644.0,0.0478
643.0,0.0476
642.0,0.0473
641.0,0.047
640.0,0.047
639.0,0.0471
638.0,0.0472
637.0,0.0474
636.0,0.0477
635.0,0.0478
634.0,0.0473
633.0,0.0463
632.0,0.0454
631.0,0.0449
630.0,0.0449
629.0,0.045
628.0,0.0452
627.0,0.0454
626.0,0.0453
625.0,0.045
624.0,0.0446
623.0,0.0442
622.0,0.0438
621.0,0.0435
620.0,0.0432
619.0,0.0429
618.0,0.0425
617.0,0.042
616.0,0.0416
615.0,0.0411
614.0,0.0406
613.0,0.0401
612.0,0.04
611.0,0.0401
610.0,0.0406
609.0,0.041
608.0,0.0411
607.0,0.0407
606.0,0.0401
605.0,0.0393
604.0,0.0387
603.0,0.0384
602.0,0.0383
601.0,0.0381
600.0,0.0377
