cm-1,A
4000.0,0.01768353030793479
3999.0,0.017728766960431575
3998.0,0.017774008325325275
3997.0,0.01781925440359733
3996.0,0.017909760704207134
3995.0,0.017955020928509757
3994.0,0.01800028587012159
3993.0,0.01800028587012159
3992.0,0.01800028587012159
3991.0,0.018045555530026514
3990.0,0.01809082990920774
3989.0,0.01809082990920774
3988.0,0.01809082990920774
3987.0,0.018045555530026514
3986.0,0.017955020928509757
3985.0,0.017955020928509757
3984.0,0.017955020928509757
3983.0,0.01800028587012159
3982.0,0.018045555530026514
3981.0,0.018045555530026514
3980.0,0.018045555530026514
3979.0,0.018045555530026514
3978.0,0.018045555530026514
3977.0,0.018045555530026514
3976.0,0.018045555530026514
3975.0,0.018045555530026514
3974.0,0.018045555530026514
3973.0,0.018045555530026514
3972.0,0.018045555530026514
3971.0,0.018045555530026514
3970.0,0.018045555530026514
3969.0,0.018045555530026514
3968.0,0.018045555530026514
3967.0,0.018045555530026514
3966.0,0.018045555530026514
3965.0,0.018045555530026514
3964.0,0.018045555530026514
3963.0,0.018045555530026514
3962.0,0.018045555530026514
3961.0,0.01800028587012159
3960.0,0.01800028587012159
3959.0,0.01800028587012159
3958.0,0.018045555530026514
3957.0,0.018045555530026514
3956.0,0.01809082990920774
3955.0,0.018045555530026514
3954.0,0.018045555530026514
3953.0,0.018045555530026514
3952.0,0.018045555530026514
3951.0,0.018045555530026514
3950.0,0.01800028587012159
3949.0,0.017955020928509757
3948.0,0.017909760704207134
3947.0,0.017864505196230507
3946.0,0.01781925440359733
3945.0,0.017864505196230507
3944.0,0.017955020928509757
3943.0,0.01800028587012159
3942.0,0.01800028587012159
3941.0,0.017955020928509757
3940.0,0.017955020928509757
3939.0,0.01800028587012159
3938.0,0.018045555530026514
3937.0,0.018045555530026514
3936.0,0.01800028587012159
3935.0,0.017955020928509757
3934.0,0.017955020928509757
3933.0,0.01800028587012159
3932.0,0.018045555530026514
3931.0,0.01800028587012159
3930.0,0.017955020928509757
3929.0,0.017909760704207134
3928.0,0.017909760704207134
3927.0,0.017909760704207134
3926.0,0.017909760704207134
3925.0,0.017909760704207134
3924.0,0.017864505196230507
3923.0,0.017774008325325275
3922.0,0.017728766960431575
3921.0,0.017774008325325275
3920.0,0.017774008325325275
3919.0,0.01781925440359733
3918.0,0.017909760704207134
3917.0,0.01800028587012159
3916.0,0.01809082990920774
3915.0,0.018136109008649592
3914.0,0.018226681372252695
3913.0,0.01831727262871463
3912.0,0.018362575344230914
3911.0,0.018362575344230914
3910.0,0.01831727262871463
3909.0,0.018181392829336396
3908.0,0.01800028587012159
3907.0,0.01781925440359733
3906.0,0.01759307113620534
3905.0,0.017412209298337533
3904.0,0.017186237868137555
3903.0,0.016960383953898095
3902.0,0.016870075265299933
3901.0,0.017005545341335804
3900.0,0.01727661233145472
3899.0,0.017547848615010242
3898.0,0.017728766960431575
3897.0,0.01781925440359733
3896.0,0.017909760704207134
3895.0,0.01800028587012159
3894.0,0.01800028587012159
3893.0,0.018045555530026514
3892.0,0.018045555530026514
3891.0,0.017955020928509757
3890.0,0.01768353030793479
3889.0,0.017502630802287644
3888.0,0.017547848615010242
3887.0,0.017728766960431575
3886.0,0.017909760704207134
3885.0,0.017864505196230507
3884.0,0.017638298366853045
3883.0,0.017502630802287644
3882.0,0.017638298366853045
3881.0,0.017864505196230507
3880.0,0.017909760704207134
3879.0,0.017728766960431575
3878.0,0.017547848615010242
3877.0,0.01759307113620534
3876.0,0.017774008325325275
3875.0,0.017909760704207134
3874.0,0.017864505196230507
3873.0,0.017638298366853045
3872.0,0.017502630802287644
3871.0,0.01759307113620534
3870.0,0.017728766960431575
3869.0,0.017638298366853045
3868.0,0.017412209298337533
3867.0,0.017367005605150476
3866.0,0.017502630802287644
3865.0,0.01768353030793479
3864.0,0.017774008325325275
3863.0,0.01781925440359733
3862.0,0.01781925440359733
3861.0,0.017864505196230507
3860.0,0.017864505196230507
3859.0,0.017774008325325275
3858.0,0.017502630802287644
3857.0,0.017050711425501408
3856.0,0.016599261819461697
3855.0,0.01646391839700767
3854.0,0.016734647433454652
3853.0,0.016870075265299933
3852.0,0.016734647433454652
3851.0,0.016960383953898095
3850.0,0.01759307113620534
3849.0,0.018181392829336396
3848.0,0.01840788278591865
3847.0,0.018362575344230914
3846.0,0.018226681372252695
3845.0,0.01800028587012159
3844.0,0.017774008325325275
3843.0,0.017457417697056554
3842.0,0.017141057687924732
3841.0,0.017005545341335804
3840.0,0.017095882207371904
3839.0,0.017321806616515723
3838.0,0.017412209298337533
3837.0,0.017367005605150476
3836.0,0.017321806616515723
3835.0,0.017412209298337533
3834.0,0.01768353030793479
3833.0,0.017955020928509757
3832.0,0.018181392829336396
3831.0,0.018226681372252695
3830.0,0.018136109008649592
3829.0,0.018136109008649592
3828.0,0.018181392829336396
3827.0,0.018226681372252695
3826.0,0.018136109008649592
3825.0,0.017909760704207134
3824.0,0.01768353030793479
3823.0,0.01768353030793479
3822.0,0.017864505196230507
3821.0,0.017864505196230507
3820.0,0.017547848615010242
3819.0,0.017231422748988034
3818.0,0.017412209298337533
3817.0,0.017864505196230507
3816.0,0.018271974638383703
3815.0,0.01831727262871463
3814.0,0.018271974638383703
3813.0,0.018362575344230914
3812.0,0.018543833477873584
3811.0,0.018543833477873584
3810.0,0.01831727262871463
3809.0,0.018136109008649592
3808.0,0.01809082990920774
3807.0,0.018045555530026514
3806.0,0.01781925440359733
3805.0,0.017502630802287644
3804.0,0.017367005605150476
3803.0,0.017547848615010242
3802.0,0.017909760704207134
3801.0,0.01800028587012159
3800.0,0.01781925440359733
3799.0,0.017774008325325275
3798.0,0.01809082990920774
3797.0,0.01845319495476394
3796.0,0.018634490921455527
3795.0,0.018634490921455527
3794.0,0.018634490921455527
3793.0,0.018725167293411005
3792.0,0.018906576854070378
3791.0,0.018951941086827073
3790.0,0.018906576854070378
3789.0,0.018815862601645694
3788.0,0.018725167293411005
3787.0,0.018679826740892747
3786.0,0.018679826740892747
3785.0,0.018725167293411005
3784.0,0.018679826740892747
3783.0,0.018543833477873584
3782.0,0.018498511851753108
3781.0,0.018543833477873584
3780.0,0.018679826740892747
3779.0,0.018725167293411005
3778.0,0.018679826740892747
3777.0,0.018679826740892747
3776.0,0.018725167293411005
3775.0,0.018815862601645694
3774.0,0.018770512579999288
3773.0,0.018634490921455527
3772.0,0.018543833477873584
3771.0,0.018543833477873584
3770.0,0.018543833477873584
3769.0,0.018498511851753108
3768.0,0.01845319495476394
3767.0,0.01858915983411169
3766.0,0.018770512579999288
3765.0,0.018906576854070378
3764.0,0.018815862601645694
3763.0,0.018725167293411005
3762.0,0.018634490921455527
3761.0,0.018634490921455527
3760.0,0.018634490921455527
3759.0,0.01858915983411169
3758.0,0.01840788278591865
3757.0,0.018271974638383703
3756.0,0.01809082990920774
3755.0,0.017864505196230507
3754.0,0.017638298366853045
3753.0,0.017502630802287644
3752.0,0.017638298366853045
3751.0,0.017909760704207134
3750.0,0.017864505196230507
3749.0,0.01759307113620534
3748.0,0.017367005605150476
3747.0,0.017231422748988034
3746.0,0.017412209298337533
3745.0,0.017774008325325275
3744.0,0.017864505196230507
3743.0,0.01768353030793479
3742.0,0.01768353030793479
3741.0,0.017909760704207134
3740.0,0.017955020928509757
3739.0,0.01768353030793479
3738.0,0.017231422748988034
3737.0,0.017050711425501408
3736.0,0.017186237868137555
3735.0,0.01727661233145472
3734.0,0.01727661233145472
3733.0,0.017321806616515723
3732.0,0.017457417697056554
3731.0,0.01759307113620534
3730.0,0.01768353030793479
3729.0,0.017774008325325275
3728.0,0.017864505196230507
3727.0,0.017955020928509757
3726.0,0.017909760704207134
3725.0,0.017774008325325275
3724.0,0.017728766960431575
3723.0,0.01781925440359733
3722.0,0.017955020928509757
3721.0,0.01809082990920774
3720.0,0.018226681372252695
3719.0,0.018362575344230914
3718.0,0.01845319495476394
3717.0,0.01840788278591865
3716.0,0.01831727262871463
3715.0,0.018136109008649592
3714.0,0.01800028587012159
3713.0,0.01800028587012159
3712.0,0.018136109008649592
3711.0,0.018226681372252695
3710.0,0.018226681372252695
3709.0,0.018271974638383703
3708.0,0.01840788278591865
3707.0,0.018543833477873584
3706.0,0.018634490921455527
3705.0,0.018634490921455527
3704.0,0.018634490921455527
3703.0,0.018634490921455527
3702.0,0.018679826740892747
3701.0,0.018634490921455527
3700.0,0.018543833477873584
3699.0,0.01858915983411169
3698.0,0.018725167293411005
3697.0,0.018861217359339655
3696.0,0.018861217359339655
3695.0,0.018770512579999288
3694.0,0.018543833477873584
3693.0,0.018362575344230914
3692.0,0.018226681372252695
3691.0,0.018271974638383703
3690.0,0.01845319495476394
3689.0,0.018634490921455527
3688.0,0.018679826740892747
3687.0,0.018815862601645694
3686.0,0.0190880622231564
3685.0,0.019451260640229506
3684.0,0.019678413991243593
3683.0,0.019723858922159776
3682.0,0.019678413991243593
3681.0,0.01954210772389997
3680.0,0.019315025636685412
3679.0,0.018951941086827073
3678.0,0.01858915983411169
3677.0,0.018498511851753108
3676.0,0.018770512579999288
3675.0,0.018770512579999288
3674.0,0.018498511851753108
3673.0,0.01845319495476394
3672.0,0.018861217359339655
3671.0,0.019451260640229506
3670.0,0.01990568621470623
3669.0,0.01990568621470623
3668.0,0.019769308608968306
3667.0,0.01990568621470623
3666.0,0.02026956933771462
3665.0,0.02058821736556471
3664.0,0.020724852408976924
3663.0,0.020770406977844713
3662.0,0.020770406977844713
3661.0,0.020633757603838898
3660.0,0.020497151212598652
3659.0,0.020406104151069693
3658.0,0.02045162529590483
3657.0,0.02067930261797568
3656.0,0.02081596632558158
3655.0,0.02067930261797568
3654.0,0.02045162529590483
3653.0,0.020178569969774962
3652.0,0.01995115493504329
3651.0,0.019860222254245663
3650.0,0.020087589665283012
3649.0,0.020315076172974234
3648.0,0.02045162529590483
3647.0,0.02058821736556471
3646.0,0.020952673052035298
3645.0,0.02140867317992523
3644.0,0.021865152601710403
3643.0,0.022230681908425698
3642.0,0.022413561996148967
3641.0,0.022505030926963654
3640.0,0.022505030926963654
3639.0,0.02255077261765881
3638.0,0.02259651912656535
3637.0,0.022688026603074007
3636.0,0.02277955336461468
3635.0,0.02277955336461468
3634.0,0.02259651912656535
3633.0,0.0221849739168134
3632.0,0.021636852916117055
3631.0,0.021317434843055594
3630.0,0.021499930688540836
3629.0,0.02200219004126036
3628.0,0.0221849739168134
3627.0,0.022139270735302752
3626.0,0.022367834754000393
3625.0,0.02277955336461468
3624.0,0.02296266477531872
3623.0,0.02291687968414724
3622.0,0.02277955336461468
3621.0,0.022688026603074007
3620.0,0.02277955336461468
3619.0,0.02291687968414724
3618.0,0.02291687968414724
3617.0,0.02296266477531872
3616.0,0.023100049017062307
3615.0,0.023374947949272418
3614.0,0.02365002099672653
3613.0,0.023833499868024743
3612.0,0.023879381700184332
3611.0,0.023925268380126097
3610.0,0.024017056287453542
3609.0,0.024246610963712723
3608.0,0.024568191490736968
3607.0,0.024798037742147727
3606.0,0.024890010313838973
3605.0,0.024936003904763915
3604.0,0.025028005701930978
3603.0,0.025074013910237447
3602.0,0.02516604495145991
3601.0,0.02521206778644225
3600.0,0.025258095499050004
3599.0,0.025258095499050004
3598.0,0.025258095499050004
3597.0,0.025350165561278004
3596.0,0.025488307262671706
3595.0,0.025672564576383117
3594.0,0.025810808881832736
3593.0,0.025856900097785074
3592.0,0.025856900097785074
3591.0,0.025810808881832736
3590.0,0.025810808881832736
3589.0,0.025995203102585407
3588.0,0.026456531467510258
3587.0,0.02682594731702781
3586.0,0.02696455931306696
3585.0,0.027149444152769986
3584.0,0.02738066094037661
3583.0,0.027658283674251827
3582.0,0.027889771597169544
3581.0,0.028028723600243666
3580.0,0.028214062120885508
3579.0,0.02839947976994095
3578.0,0.028538594975413334
3577.0,0.028770552723758724
3576.0,0.028956208163971375
3575.0,0.029188389127482228
3574.0,0.02932775731028059
3573.0,0.029374223311705583
3572.0,0.029281296279810798
3571.0,0.029095501846216454
3570.0,0.02890978686288448
3569.0,0.028863370523193765
3568.0,0.02904906565457588
3567.0,0.02932775731028059
3566.0,0.029513651152349718
3565.0,0.02969962459782227
3564.0,0.03002526987828502
3563.0,0.030397735151460825
3562.0,0.03081714076773867
3561.0,0.031096969696171817
3560.0,0.031236951802751545
3559.0,0.03133029827960798
3558.0,0.03142366482450232
3557.0,0.031563752288295444
3556.0,0.031657169041054534
3555.0,0.03184406285002961
3554.0,0.031984286006358165
3553.0,0.03217132066984485
3552.0,0.032311649546687526
3551.0,0.03240522732811035
3550.0,0.03245202378113787
3549.0,0.032545631817259224
3548.0,0.032686081712916426
3547.0,0.03282657704446046
3546.0,0.0329671178412978
3545.0,0.033060836978886954
3544.0,0.033154576345083564
3543.0,0.033295223342125535
3542.0,0.033482823553208085
3541.0,0.03367050483612166
3540.0,0.0338113190438627
3539.0,0.03399914237121604
3538.0,0.034187046963396917
3537.0,0.03437503289075727
3536.0,0.03456310022373987
3535.0,0.03470420418834386
3534.0,0.03479829897408804
3533.0,0.0349394793888016
3532.0,0.03498654972775217
3531.0,0.03508070571335731
3530.0,0.03512779136222477
3529.0,0.03517488211661135
3528.0,0.03526907894637077
3527.0,0.03531618502395939
3526.0,0.03545753392086315
3525.0,0.03559892883726867
3524.0,0.03578752703018084
3523.0,0.03597620715996652
3522.0,0.03616496929785207
3521.0,0.03630659476198117
3520.0,0.03644826642590382
3519.0,0.03663723389626394
3518.0,0.036779013477011624
3517.0,0.036873558918095295
3516.0,0.0369681249461018
3515.0,0.037062711569998186
3514.0,0.0371100126082089
3513.0,0.0371573187987575
3512.0,0.037251946641359446
3511.0,0.037346595106788616
3510.0,0.03753595394209874
3509.0,0.03767802727041558
3508.0,0.03782014709123227
3507.0,0.03786753070176463
3506.0,0.03796231343498735
3505.0,0.038151940981675736
3504.0,0.038341651362284734
3503.0,0.038531444649213764
3502.0,0.038673844065289176
3501.0,0.03876880295533702
3500.0,0.03886378261277468
3499.0,0.038958783046687984
3498.0,0.03905380426616856
3497.0,0.03924390909822728
3496.0,0.03938654235209116
3495.0,0.03952922246570112
3494.0,0.039719535563357944
3493.0,0.039909932095080425
3492.0,0.04014804520039483
3491.0,0.040338629726504704
3490.0,0.040529297924893015
3489.0,0.04062466342415694
3488.0,0.040672354027829094
3487.0,0.04072004986906119
3486.0,0.04076775094900409
3485.0,0.04086316882962593
3484.0,0.04105406750606355
3483.0,0.04124505013091051
3482.0,0.041483896576958834
3481.0,0.041627267521392675
3480.0,0.0417706858116178
3479.0,0.04181850243505214
3478.0,0.04186632432376469
3477.0,0.04196198390166317
3476.0,0.04200982159316968
3475.0,0.04210551278710151
3474.0,0.04224908912272074
3473.0,0.042392712939904875
3472.0,0.04253638427006878
3471.0,0.04272802000705722
3470.0,0.04287180232318688
3469.0,0.043063586155803746
3468.0,0.04325545471730896
3467.0,0.04344740808260106
3466.0,0.04359142880416744
3465.0,0.043735497301724546
3464.0,0.0437835307566099
3463.0,0.04387961360698034
3462.0,0.04397571771932274
3461.0,0.044071843103049346
3460.0,0.044312249686494276
3459.0,0.04455278942230456
3458.0,0.044793462458058375
3457.0,0.044986096961949995
3456.0,0.04513062893352182
3455.0,0.04527520902093718
3454.0,0.04541983725624266
3453.0,0.045612749855485024
3452.0,0.04580574818413763
3451.0,0.04599883231842972
3450.0,0.046143701775014145
3449.0,0.04633693625290869
3448.0,0.04657860031896477
3447.0,0.04672366333269573
3446.0,0.04682039893436585
3445.0,0.04686877481655505
3444.0,0.04701393480294458
3443.0,0.04720755695590784
3442.0,0.04744970610179822
3441.0,0.047643522676209304
3440.0,0.0478374257855374
3439.0,0.047982909952573705
3438.0,0.048128442871635535
3437.0,0.04827402457540786
3436.0,0.04841965509660828
3435.0,0.04866248120408234
3434.0,0.048905443158337114
3433.0,0.04909991063361274
3432.0,0.049294465226138895
3431.0,0.04944043838819989
3430.0,0.04953778109440221
3429.0,0.04963514562387683
3428.0,0.04973253198641148
3427.0,0.04987865248862655
3426.0,0.049927370249842395
3425.0,0.04997609347667353
3424.0,0.05002482217034632
3423.0,0.05002482217034632
3422.0,0.050073556332087765
3421.0,0.05012229596312534
3420.0,0.050171041064686284
3419.0,0.05026854768429301
3418.0,0.05026854768429301
3417.0,0.05026854768429301
3416.0,0.05026854768429301
3415.0,0.05026854768429301
3414.0,0.05026854768429301
3413.0,0.05036607620073763
3412.0,0.05036607620073763
3411.0,0.05036607620073763
3410.0,0.05036607620073763
3409.0,0.050414848673348
3408.0,0.050463626623857394
3407.0,0.05056119896349576
3406.0,0.05065879322950262
3405.0,0.05065879322950262
3404.0,0.050707598587974356
3403.0,0.050707598587974356
3402.0,0.05075640943173498
3401.0,0.05075640943173498
3400.0,0.050805225762017736
3399.0,0.050805225762017736
3398.0,0.050805225762017736
3397.0,0.050805225762017736
3396.0,0.050805225762017736
3395.0,0.05085404758005607
3394.0,0.050902874887084115
3393.0,0.05095170768433621
3392.0,0.051049389754451946
3391.0,0.051098239029786274
3390.0,0.05114709380028648
3389.0,0.05114709380028648
3388.0,0.05119595406718891
3387.0,0.051244819831730126
3386.0,0.05129369109514803
3385.0,0.05134256785867963
3384.0,0.05134256785867963
3383.0,0.05134256785867963
3382.0,0.05134256785867963
3381.0,0.05139145012356372
3380.0,0.05144033789103841
3379.0,0.05153812993871654
3378.0,0.05163594401163074
3377.0,0.051684859310652254
3376.0,0.05173378011970464
3375.0,0.0518316382728683
3374.0,0.05188057561946402
3373.0,0.05192951848105887
3372.0,0.05197846685889629
3371.0,0.052027420754219955
3370.0,0.05207638016827354
3369.0,0.05207638016827354
3368.0,0.05207638016827354
3367.0,0.05197846685889629
3366.0,0.05192951848105887
3365.0,0.05188057561946402
3364.0,0.0518316382728683
3363.0,0.05188057561946402
3362.0,0.05188057561946402
3361.0,0.05192951848105887
3360.0,0.052027420754219955
3359.0,0.05207638016827354
3358.0,0.05212534510230182
3357.0,0.05217431555754937
3356.0,0.05222329153526162
3355.0,0.05227227303668425
3354.0,0.05227227303668425
3353.0,0.05227227303668425
3352.0,0.05222329153526162
3351.0,0.05222329153526162
3350.0,0.05222329153526162
3349.0,0.05227227303668425
3348.0,0.05227227303668425
3347.0,0.05227227303668425
3346.0,0.05227227303668425
3345.0,0.05227227303668425
3344.0,0.05227227303668425
3343.0,0.05227227303668425
3342.0,0.05222329153526162
3341.0,0.05222329153526162
3340.0,0.05222329153526162
3339.0,0.05222329153526162
3338.0,0.05222329153526162
3337.0,0.05222329153526162
3336.0,0.05222329153526162
3335.0,0.05222329153526162
3334.0,0.05217431555754937
3333.0,0.05217431555754937
3332.0,0.05212534510230182
3331.0,0.052027420754219955
3330.0,0.05197846685889629
3329.0,0.05192951848105887
3328.0,0.05188057561946402
3327.0,0.0518316382728683
3326.0,0.05178270644002936
3325.0,0.051684859310652254
3324.0,0.05163594401163074
3323.0,0.051684859310652254
3322.0,0.05173378011970464
3321.0,0.05178270644002936
3320.0,0.05188057561946402
3319.0,0.0518316382728683
3318.0,0.05178270644002936
3317.0,0.051684859310652254
3316.0,0.0515870342213991
3315.0,0.05148923116234294
3314.0,0.05139145012356372
3313.0,0.05139145012356372
3312.0,0.05139145012356372
3311.0,0.05144033789103841
3310.0,0.05148923116234294
3309.0,0.05144033789103841
3308.0,0.05144033789103841
3307.0,0.05139145012356372
3306.0,0.05134256785867963
3305.0,0.05134256785867963
3304.0,0.05134256785867963
3303.0,0.05134256785867963
3302.0,0.05129369109514803
3301.0,0.05119595406718891
3300.0,0.05114709380028648
3299.0,0.05114709380028648
3298.0,0.05114709380028648
3297.0,0.05114709380028648
3296.0,0.051049389754451946
3295.0,0.05100054597304693
3294.0,0.050902874887084115
3293.0,0.05075640943173498
3292.0,0.05065879322950262
3291.0,0.05056119896349576
3290.0,0.05051241005349638
3289.0,0.05051241005349638
3288.0,0.05056119896349576
3287.0,0.0506099933550872
3286.0,0.0506099933550872
3285.0,0.0506099933550872
3284.0,0.05051241005349638
3283.0,0.050414848673348
3282.0,0.050317309204795935
3281.0,0.05026854768429301
3280.0,0.050171041064686284
3279.0,0.050073556332087765
3278.0,0.04997609347667353
3277.0,0.04987865248862655
3276.0,0.04987865248862655
3275.0,0.04987865248862655
3274.0,0.04987865248862655
3273.0,0.04982994019179987
3272.0,0.04978123335813667
3271.0,0.04973253198641148
3270.0,0.04963514562387683
3269.0,0.04958646063061889
3268.0,0.04944043838819989
3267.0,0.049294465226138895
3266.0,0.04919717703534143
3265.0,0.049148541111453614
3264.0,0.04909991063361274
3263.0,0.04909991063361274
3262.0,0.04900266601119507
3261.0,0.048954051864180226
3260.0,0.048905443158337114
3259.0,0.04885683989244738
3258.0,0.048808242065293994
3257.0,0.04871106272232795
3256.0,0.0486139051197072
3255.0,0.048468209457651845
3254.0,0.04837110616336182
3253.0,0.048225491918274965
3252.0,0.048128442871635535
3251.0,0.04803141550708934
3250.0,0.047982909952573705
3249.0,0.047934409814949674
3248.0,0.0478374257855374
3247.0,0.04774046340917959
3246.0,0.047643522676209304
3245.0,0.04754660357696672
3244.0,0.04744970610179822
3243.0,0.04740126547022694
3242.0,0.04730440041308315
3241.0,0.04720755695590784
3240.0,0.04711073508906982
3239.0,0.04701393480294458
3238.0,0.0469171560879138
3237.0,0.04686877481655505
3236.0,0.04677202844014605
3235.0,0.04672366333269573
3234.0,0.04667530361081473
3233.0,0.04662694927330402
3232.0,0.04653025674659861
3231.0,0.04643358574299339
3230.0,0.04633693625290869
3229.0,0.04624030826677128
3228.0,0.046143701775014145
3227.0,0.046047116768076934
3226.0,0.04595055323640551
3225.0,0.04580574818413763
3224.0,0.04570923829887308
3223.0,0.045612749855485024
3222.0,0.045516282844447975
3221.0,0.0454680573730859
3220.0,0.04537162249272897
3219.0,0.04527520902093718
3218.0,0.0451788169482068
3217.0,0.04503426894157925
3216.0,0.044937930324967956
3215.0,0.044937930324967956
3214.0,0.044937930324967956
3213.0,0.04484161307420642
3212.0,0.04469717723830824
3211.0,0.044456557540257124
3210.0,0.044312249686494276
3209.0,0.04421607108308856
3208.0,0.044167989767578186
3207.0,0.04411991377462465
3206.0,0.044071843103049346
3205.0,0.04397571771932274
3204.0,0.04387961360698034
3203.0,0.043735497301724546
3202.0,0.04363944632667782
3201.0,0.04344740808260106
3200.0,0.043303435105349175
3199.0,0.04315950984076644
3198.0,0.043063586155803746
3197.0,0.042967683653061695
3196.0,0.04291974034210022
3195.0,0.04287180232318688
3194.0,0.042775942156833
3193.0,0.04268010314465909
3192.0,0.042584285277331047
3191.0,0.04248848854552012
3190.0,0.042344833056508824
3189.0,0.042201225070002124
3188.0,0.042057664554595586
3187.0,0.04196198390166317
3186.0,0.041914151478914974
3185.0,0.04181850243505214
3184.0,0.04172287445230238
3183.0,0.041627267521392675
3182.0,0.041483896576958834
3181.0,0.041340572947066834
3180.0,0.041197296600497646
3179.0,0.04105406750606355
3178.0,0.04086316882962593
3177.0,0.04072004986906119
3176.0,0.04057697805689475
3175.0,0.04043395336207234
3174.0,0.040338629726504704
3173.0,0.040243327009005014
3172.0,0.04014804520039483
3171.0,0.0400527842915015
3170.0,0.040005161671583744
3169.0,0.03995754427315856
3168.0,0.039909932095080425
3167.0,0.03981472339538916
3166.0,0.03967194946985697
3165.0,0.03952922246570112
3164.0,0.03938654235209116
3163.0,0.03929144831144349
3162.0,0.03914884628031379
3161.0,0.03905380426616856
3160.0,0.038958783046687984
3159.0,0.03886378261277468
3158.0,0.038721320914956836
3157.0,0.038673844065289176
3156.0,0.03857890593355173
3155.0,0.03848398855105106
3154.0,0.03829421599749461
3153.0,0.038151940981675736
3152.0,0.038057116858612794
3151.0,0.038057116858612794
3150.0,0.038057116858612794
3149.0,0.03800971255993524
3148.0,0.03796231343498735
3147.0,0.03782014709123227
3146.0,0.03767802727041558
3145.0,0.037583306554248797
3144.0,0.037488606492403154
3143.0,0.037346595106788616
3142.0,0.0371573187987575
3141.0,0.0369681249461018
3140.0,0.036873558918095295
3139.0,0.036779013477011624
3138.0,0.036779013477011624
3137.0,0.036731748473764814
3136.0,0.036731748473764814
3135.0,0.03668448861388862
3134.0,0.03668448861388862
3133.0,0.03668448861388862
3132.0,0.03668448861388862
3131.0,0.03663723389626394
3130.0,0.03658998431977123
3129.0,0.03649550058570927
3128.0,0.036401037402758574
3127.0,0.03630659476198117
3126.0,0.03621217265444465
3125.0,0.036117771071222604
3124.0,0.03602339000339416
3123.0,0.03597620715996652
3122.0,0.03592902944204468
3121.0,0.03583468937826462
3120.0,0.035740369803151095
3119.0,0.03559892883726867
3118.0,0.03555179208333925
3117.0,0.03555179208333925
3116.0,0.03555179208333925
3115.0,0.03555179208333925
3114.0,0.03555179208333925
3113.0,0.03555179208333925
3112.0,0.03555179208333925
3111.0,0.03555179208333925
3110.0,0.03555179208333925
3109.0,0.03559892883726867
3108.0,0.035693217696063595
3107.0,0.035740369803151095
3106.0,0.035740369803151095
3105.0,0.035693217696063595
3104.0,0.03555179208333925
3103.0,0.03545753392086315
3102.0,0.035363296211498474
3101.0,0.03526907894637077
3100.0,0.03517488211661135
3099.0,0.03508070571335731
3098.0,0.0349394793888016
3097.0,0.03479829897408804
3096.0,0.03465716443937783
3095.0,0.034516075754861264
3094.0,0.03442204208947208
3093.0,0.03432802877989327
3092.0,0.03432802877989327
3091.0,0.03437503289075727
3090.0,0.03442204208947208
3089.0,0.034469056377139484
3088.0,0.034516075754861264
3087.0,0.03456310022373987
3086.0,0.03461012978487776
3085.0,0.03465716443937783
3084.0,0.03465716443937783
3083.0,0.03465716443937783
3082.0,0.03465716443937783
3081.0,0.03461012978487776
3080.0,0.034516075754861264
3079.0,0.034469056377139484
3078.0,0.03437503289075727
3077.0,0.03432802877989327
3076.0,0.03428102975577918
3075.0,0.03423403581731388
3074.0,0.03414006319292828
3073.0,0.034046110897937076
3072.0,0.034046110897937076
3071.0,0.03399914237121604
3070.0,0.03399914237121604
3069.0,0.033952178923546183
3068.0,0.033952178923546183
3067.0,0.033905220553829274
3066.0,0.03376437590141812
3065.0,0.03362357691107709
3064.0,0.03352973627071565
3063.0,0.033482823553208085
3062.0,0.033482823553208085
3061.0,0.03352973627071565
3060.0,0.03352973627071565
3059.0,0.03352973627071565
3058.0,0.03352973627071565
3057.0,0.03352973627071565
3056.0,0.03352973627071565
3055.0,0.033482823553208085
3054.0,0.03334211579824231
3053.0,0.033154576345083564
3052.0,0.0329671178412978
3051.0,0.03277974021703267
3050.0,0.032545631817259224
3049.0,0.03226486821611996
3048.0,0.031984286006358165
3047.0,0.03175060589208267
3046.0,0.031563752288295444
3045.0,0.03142366482450232
3044.0,0.03133029827960798
3043.0,0.031236951802751545
3042.0,0.031096969696171817
3041.0,0.030910397045078586
3040.0,0.030770520137356927
3039.0,0.03067729388779794
3038.0,0.03063068826647264
3037.0,0.03058408764601861
3036.0,0.030490901403433135
3035.0,0.030397735151460825
3034.0,0.03030458888152676
3033.0,0.030211462585061133
3032.0,0.030164906924202484
3031.0,0.030118356253500123
3030.0,0.030071810571884017
3029.0,0.030071810571884017
3028.0,0.030071810571884017
3027.0,0.030071810571884017
3026.0,0.030071810571884017
3025.0,0.030071810571884017
3024.0,0.030118356253500123
3023.0,0.030164906924202484
3022.0,0.03025802323714588
3021.0,0.03030458888152676
3020.0,0.030351159519274695
3019.0,0.030397735151460825
3018.0,0.030397735151460825
3017.0,0.030490901403433135
3016.0,0.03058408764601861
3015.0,0.0307239045110681
3014.0,0.03081714076773867
3013.0,0.030910397045078586
3012.0,0.030957032694186815
3011.0,0.03105031901865729
3010.0,0.031190286087141805
3009.0,0.03133029827960798
3008.0,0.03147035562516054
3007.0,0.03161045815293173
3006.0,0.03170388495374454
3005.0,0.03184406285002961
3004.0,0.031984286006358165
3003.0,0.032124554451966825
3002.0,0.03226486821611996
3001.0,0.03235843591698884
3000.0,0.03240522732811035
2999.0,0.03245202378113787
2998.0,0.032545631817259224
2997.0,0.03263926003405038
2996.0,0.03277974021703267
2995.0,0.032920265855503006
2994.0,0.033060836978886954
2993.0,0.033154576345083564
2992.0,0.033295223342125535
2991.0,0.03338901331806565
2990.0,0.03352973627071565
2989.0,0.03367050483612166
2988.0,0.0338113190438627
2987.0,0.03399914237121604
2986.0,0.034187046963396917
2985.0,0.03442204208947208
2984.0,0.03470420418834386
2983.0,0.03498654972775217
2982.0,0.03531618502395939
2981.0,0.035646070707806565
2980.0,0.03602339000339416
2979.0,0.03635381351515665
2978.0,0.03663723389626394
2977.0,0.03692083935817303
2976.0,0.037299268295658994
2975.0,0.03767802727041558
2974.0,0.038057116858612794
2973.0,0.038341651362284734
2972.0,0.03862637240519895
2971.0,0.03886378261277468
2970.0,0.03910132267333921
2969.0,0.03929144831144349
2968.0,0.03938654235209116
2967.0,0.03943409718180235
2966.0,0.03948165721929198
2965.0,0.03952922246570112
2964.0,0.03962436858984186
2963.0,0.039719535563357944
2962.0,0.03967194946985697
2961.0,0.03957679292217042
2960.0,0.039338992729018196
2959.0,0.03905380426616856
2958.0,0.038721320914956836
2957.0,0.03838909190871931
2956.0,0.03810452633214956
2955.0,0.03782014709123227
2954.0,0.037583306554248797
2953.0,0.037299268295658994
2952.0,0.0369681249461018
2951.0,0.03663723389626394
2950.0,0.03625938114211591
2949.0,0.03592902944204468
2948.0,0.03559892883726867
2947.0,0.03526907894637077
2946.0,0.03498654972775217
2945.0,0.03475124903287918
2944.0,0.034516075754861264
2943.0,0.03432802877989327
2942.0,0.03414006319292828
2941.0,0.033952178923546183
2940.0,0.03376437590141812
2939.0,0.03357665405630694
2938.0,0.03338901331806565
2937.0,0.033201453616638954
2936.0,0.03310770413286357
2935.0,0.03301397488206215
2934.0,0.03301397488206215
2933.0,0.0329671178412978
2932.0,0.03301397488206215
2931.0,0.03301397488206215
2930.0,0.03301397488206215
2929.0,0.0329671178412978
2928.0,0.032920265855503006
2927.0,0.03277974021703267
2926.0,0.032686081712916426
2925.0,0.032592443402527316
2924.0,0.032545631817259224
2923.0,0.03245202378113787
2922.0,0.03240522732811035
2921.0,0.03240522732811035
2920.0,0.03240522732811035
2919.0,0.03235843591698884
2918.0,0.03235843591698884
2917.0,0.03235843591698884
2916.0,0.03235843591698884
2915.0,0.03240522732811035
2914.0,0.03245202378113787
2913.0,0.032545631817259224
2912.0,0.03263926003405038
2911.0,0.03277974021703267
2910.0,0.032920265855503006
2909.0,0.03301397488206215
2908.0,0.033060836978886954
2907.0,0.0329671178412978
2906.0,0.03282657704446046
2905.0,0.03263926003405038
2904.0,0.03240522732811035
2903.0,0.03217132066984485
2902.0,0.031984286006358165
2901.0,0.03170388495374454
2900.0,0.03147035562516054
2899.0,0.031236951802751545
2898.0,0.03105031901865729
2897.0,0.030910397045078586
2896.0,0.030863766403287585
2895.0,0.03081714076773867
2894.0,0.0307239045110681
2893.0,0.03058408764601861
2892.0,0.030537492025363155
2891.0,0.030444315779156517
2890.0,0.030444315779156517
2889.0,0.030351159519274695
2888.0,0.03030458888152676
2887.0,0.030164906924202484
2886.0,0.03002526987828502
2885.0,0.029885677714903025
2884.0,0.029792641193145286
2883.0,0.02969962459782227
2882.0,0.02969962459782227
2881.0,0.029653123769906697
2880.0,0.029653123769906697
2879.0,0.02960662792039992
2878.0,0.029467170231675777
2877.0,0.02932775731028059
2876.0,0.029188389127482228
2875.0,0.029095501846216454
2874.0,0.02904906565457588
2873.0,0.02904906565457588
2872.0,0.029002634427514717
2871.0,0.02890978686288448
2870.0,0.028816959143838528
2869.0,0.028770552723758724
2868.0,0.028677754757187035
2867.0,0.02863136320857662
2866.0,0.02858497661500481
2865.0,0.02858497661500481
2864.0,0.02858497661500481
2863.0,0.02858497661500481
2862.0,0.02858497661500481
2861.0,0.028538594975413334
2860.0,0.02858497661500481
2859.0,0.02858497661500481
2858.0,0.02863136320857662
2857.0,0.02863136320857662
2856.0,0.02858497661500481
2855.0,0.02849221828874393
2854.0,0.028353117935693284
2853.0,0.028214062120885508
2852.0,0.02812138297373412
2851.0,0.02798240132598462
2850.0,0.027797161620935595
2849.0,0.027565723042634938
2848.0,0.027288159452933503
2847.0,0.02710321556345563
2846.0,0.02691835039863255
2845.0,0.02677975314776626
2844.0,0.02664120011360227
2843.0,0.026502691267936695
2842.0,0.02636422658259252
2841.0,0.02617967564731627
2840.0,0.026041313893296225
2839.0,0.025949097207122573
2838.0,0.025902996205869
2837.0,0.025856900097785074
2836.0,0.025764722556973707
2835.0,0.025672564576383117
2834.0,0.02558042614771394
2833.0,0.025488307262671706
2832.0,0.02544225514642018
2831.0,0.02539620791296726
2830.0,0.025350165561278004
2829.0,0.025304128090317013
2828.0,0.02521206778644225
2827.0,0.02516604495145991
2826.0,0.02512002699306959
2825.0,0.02512002699306959
2824.0,0.025074013910237447
2823.0,0.025028005701930978
2822.0,0.02498200236711723
2821.0,0.024936003904763915
2820.0,0.024936003904763915
2819.0,0.024890010313838973
2818.0,0.02484402159331056
2817.0,0.024798037742147727
2816.0,0.024706084643793647
2815.0,0.024706084643793647
2814.0,0.024706084643793647
2813.0,0.024660115394541604
2812.0,0.024660115394541604
2811.0,0.024660115394541604
2810.0,0.024660115394541604
2809.0,0.024660115394541604
2808.0,0.02461415101053266
2807.0,0.024568191490736968
2806.0,0.024568191490736968
2805.0,0.024568191490736968
2804.0,0.024522236834125355
2803.0,0.024522236834125355
2802.0,0.024476287039668643
2801.0,0.024430342106337877
2800.0,0.024430342106337877
2799.0,0.024430342106337877
2798.0,0.02438440203310499
2797.0,0.02438440203310499
2796.0,0.024292536462819925
2795.0,0.024200690320592466
2794.0,0.024108863598207186
2793.0,0.02406295751688936
2792.0,0.024017056287453542
2791.0,0.023971159908874107
2790.0,0.023971159908874107
2789.0,0.023925268380126097
2788.0,0.023879381700184332
2787.0,0.023833499868024743
2786.0,0.023787622882622816
2785.0,0.023787622882622816
2784.0,0.023787622882622816
2783.0,0.023787622882622816
2782.0,0.023741750742954926
2781.0,0.02365002099672653
2780.0,0.02355831062115543
2779.0,0.02351246269481
2778.0,0.02342078135989012
2777.0,0.023374947949272418
2776.0,0.023374947949272418
2775.0,0.023374947949272418
2774.0,0.02342078135989012
2773.0,0.02342078135989012
2772.0,0.023374947949272418
2771.0,0.023283295636617574
2770.0,0.023191662661933732
2769.0,0.02314585342378117
2768.0,0.023100049017062307
2767.0,0.023100049017062307
2766.0,0.023100049017062307
2765.0,0.02314585342378117
2764.0,0.02314585342378117
2763.0,0.02314585342378117
2762.0,0.02314585342378117
2761.0,0.023100049017062307
2760.0,0.023054249440757957
2759.0,0.02300845469384938
2758.0,0.02300845469384938
2757.0,0.02296266477531872
2756.0,0.02296266477531872
2755.0,0.02296266477531872
2754.0,0.02296266477531872
2753.0,0.02296266477531872
2752.0,0.02300845469384938
2751.0,0.02300845469384938
2750.0,0.023054249440757957
2749.0,0.02300845469384938
2748.0,0.02296266477531872
2747.0,0.022871099419317753
2746.0,0.02277955336461468
2745.0,0.022733787572707387
2744.0,0.022733787572707387
2743.0,0.02277955336461468
2742.0,0.022871099419317753
2741.0,0.02291687968414724
2740.0,0.022871099419317753
2739.0,0.02282532397981263
2738.0,0.02277955336461468
2737.0,0.022733787572707387
2736.0,0.022688026603074007
2735.0,0.022642270454698687
2734.0,0.02259651912656535
2733.0,0.02255077261765881
2732.0,0.02255077261765881
2731.0,0.02255077261765881
2730.0,0.02255077261765881
2729.0,0.022505030926963654
2728.0,0.02245929405346514
2727.0,0.022413561996148967
2726.0,0.022413561996148967
2725.0,0.022367834754000393
2724.0,0.02227639471115217
2723.0,0.022230681908425698
2722.0,0.0221849739168134
2721.0,0.022139270735302752
2720.0,0.022139270735302752
2719.0,0.022139270735302752
2718.0,0.0221849739168134
2717.0,0.022139270735302752
2716.0,0.022139270735302752
2715.0,0.022139270735302752
2714.0,0.022139270735302752
2713.0,0.022139270735302752
2712.0,0.022093572362881675
2711.0,0.02200219004126036
2710.0,0.021910826943857264
2709.0,0.021865152601710403
2708.0,0.021865152601710403
2707.0,0.021865152601710403
2706.0,0.021910826943857264
2705.0,0.021910826943857264
2704.0,0.021865152601710403
2703.0,0.021819483062586187
2702.0,0.021773818325474092
2701.0,0.021728158389364705
2700.0,0.02168250325324883
2699.0,0.021636852916117055
2698.0,0.02168250325324883
2697.0,0.02168250325324883
2696.0,0.021728158389364705
2695.0,0.021773818325474092
2694.0,0.021773818325474092
2693.0,0.021773818325474092
2692.0,0.021773818325474092
2691.0,0.021773818325474092
2690.0,0.021773818325474092
2689.0,0.021728158389364705
2688.0,0.02168250325324883
2687.0,0.021636852916117055
2686.0,0.02159120737696063
2685.0,0.02159120737696063
2684.0,0.02159120737696063
2683.0,0.021545566634771474
2682.0,0.0214542995372613
2681.0,0.02140867317992523
2680.0,0.02140867317992523
2679.0,0.021363051615525652
2678.0,0.021363051615525652
2677.0,0.021363051615525652
2676.0,0.021317434843055594
2675.0,0.021317434843055594
2674.0,0.021363051615525652
2673.0,0.021317434843055594
2672.0,0.021317434843055594
2671.0,0.021271822861508305
2670.0,0.02122621566987748
2669.0,0.0211806132671577
2668.0,0.021135015652343103
2667.0,0.021135015652343103
2666.0,0.021135015652343103
2665.0,0.0211806132671577
2664.0,0.02122621566987748
2663.0,0.021271822861508305
2662.0,0.021271822861508305
2661.0,0.02122621566987748
2660.0,0.021135015652343103
2659.0,0.021089422824428272
2658.0,0.021089422824428272
2657.0,0.021089422824428272
2656.0,0.021135015652343103
2655.0,0.021135015652343103
2654.0,0.021089422824428272
2653.0,0.021043834782408455
2652.0,0.020952673052035298
2651.0,0.020861530453190058
2650.0,0.02081596632558158
2649.0,0.02081596632558158
2648.0,0.020861530453190058
2647.0,0.020907099361673565
2646.0,0.020907099361673565
2645.0,0.020907099361673565
2644.0,0.020907099361673565
2643.0,0.020907099361673565
2642.0,0.020952673052035298
2641.0,0.020907099361673565
2640.0,0.020907099361673565
2639.0,0.020907099361673565
2638.0,0.020907099361673565
2637.0,0.020952673052035298
2636.0,0.020952673052035298
2635.0,0.0209982515252789
2634.0,0.020952673052035298
2633.0,0.020907099361673565
2632.0,0.020907099361673565
2631.0,0.020952673052035298
2630.0,0.020952673052035298
2629.0,0.020952673052035298
2628.0,0.020952673052035298
2627.0,0.020952673052035298
2626.0,0.020907099361673565
2625.0,0.020861530453190058
2624.0,0.02081596632558158
2623.0,0.02081596632558158
2622.0,0.020770406977844713
2621.0,0.020770406977844713
2620.0,0.02067930261797568
2619.0,0.020633757603838898
2618.0,0.02058821736556471
2617.0,0.02058821736556471
2616.0,0.02058821736556471
2615.0,0.020633757603838898
2614.0,0.020724852408976924
2613.0,0.020724852408976924
2612.0,0.020724852408976924
2611.0,0.02067930261797568
2610.0,0.020633757603838898
2609.0,0.020633757603838898
2608.0,0.020633757603838898
2607.0,0.020633757603838898
2606.0,0.02058821736556471
2605.0,0.02058821736556471
2604.0,0.02058821736556471
2603.0,0.020633757603838898
2602.0,0.020633757603838898
2601.0,0.020633757603838898
2600.0,0.02067930261797568
2599.0,0.02067930261797568
2598.0,0.020633757603838898
2597.0,0.020633757603838898
2596.0,0.020633757603838898
2595.0,0.020633757603838898
2594.0,0.02067930261797568
2593.0,0.020724852408976924
2592.0,0.020724852408976924
2591.0,0.020724852408976924
2590.0,0.020724852408976924
2589.0,0.020724852408976924
2588.0,0.020724852408976924
2587.0,0.020724852408976924
2586.0,0.020770406977844713
2585.0,0.020770406977844713
2584.0,0.020770406977844713
2583.0,0.020770406977844713
2582.0,0.020724852408976924
2581.0,0.02067930261797568
2580.0,0.020633757603838898
2579.0,0.020633757603838898
2578.0,0.020633757603838898
2577.0,0.020633757603838898
2576.0,0.020633757603838898
2575.0,0.020633757603838898
2574.0,0.02058821736556471
2573.0,0.02058821736556471
2572.0,0.020542681902151694
2571.0,0.020542681902151694
2570.0,0.02058821736556471
2569.0,0.02058821736556471
2568.0,0.020633757603838898
2567.0,0.020633757603838898
2566.0,0.02058821736556471
2565.0,0.02058821736556471
2564.0,0.020542681902151694
2563.0,0.020497151212598652
2562.0,0.02045162529590483
2561.0,0.02045162529590483
2560.0,0.02045162529590483
2559.0,0.020497151212598652
2558.0,0.020497151212598652
2557.0,0.02045162529590483
2556.0,0.02045162529590483
2555.0,0.02045162529590483
2554.0,0.02045162529590483
2553.0,0.020497151212598652
2552.0,0.020542681902151694
2551.0,0.020542681902151694
2550.0,0.020497151212598652
2549.0,0.02045162529590483
2548.0,0.020406104151069693
2547.0,0.020315076172974234
2546.0,0.020315076172974234
2545.0,0.020406104151069693
2544.0,0.02045162529590483
2543.0,0.020497151212598652
2542.0,0.020497151212598652
2541.0,0.02045162529590483
2540.0,0.020406104151069693
2539.0,0.02036058777709271
2538.0,0.020315076172974234
2537.0,0.02022406727031445
2536.0,0.020178569969774962
2535.0,0.020178569969774962
2534.0,0.020178569969774962
2533.0,0.020178569969774962
2532.0,0.020178569969774962
2531.0,0.020178569969774962
2530.0,0.02013307743509718
2529.0,0.02013307743509718
2528.0,0.020087589665283012
2527.0,0.020087589665283012
2526.0,0.02004210665933459
2525.0,0.02004210665933459
2524.0,0.02004210665933459
2523.0,0.020087589665283012
2522.0,0.020087589665283012
2521.0,0.020087589665283012
2520.0,0.020178569969774962
2519.0,0.02022406727031445
2518.0,0.02022406727031445
2517.0,0.02013307743509718
2516.0,0.02004210665933459
2515.0,0.019996628416253603
2514.0,0.01995115493504329
2513.0,0.01990568621470623
2512.0,0.019860222254245663
2511.0,0.019860222254245663
2510.0,0.019860222254245663
2509.0,0.01990568621470623
2508.0,0.019860222254245663
2507.0,0.019860222254245663
2506.0,0.019814763052665052
2505.0,0.019769308608968306
2504.0,0.019723858922159776
2503.0,0.019723858922159776
2502.0,0.019723858922159776
2501.0,0.019769308608968306
2500.0,0.019814763052665052
2499.0,0.019814763052665052
2498.0,0.019814763052665052
2497.0,0.019769308608968306
2496.0,0.019723858922159776
2495.0,0.019632973815224997
2494.0,0.019632973815224997
2493.0,0.01958753839310856
2492.0,0.01958753839310856
2491.0,0.01958753839310856
2490.0,0.01954210772389997
2489.0,0.01954210772389997
2488.0,0.01954210772389997
2487.0,0.01954210772389997
2486.0,0.01949668180660491
2485.0,0.019451260640229506
2484.0,0.01940584422377989
2483.0,0.01940584422377989
2482.0,0.019360432556262852
2481.0,0.019315025636685412
2480.0,0.019269623464054586
2479.0,0.0192242260373785
2478.0,0.0192242260373785
2477.0,0.0192242260373785
2476.0,0.0192242260373785
2475.0,0.0192242260373785
2474.0,0.019178833355664393
2473.0,0.019133445417920836
2472.0,0.019133445417920836
2471.0,0.019178833355664393
2470.0,0.0192242260373785
2469.0,0.0192242260373785
2468.0,0.0192242260373785
2467.0,0.019133445417920836
2466.0,0.0190880622231564
2465.0,0.0190880622231564
2464.0,0.0190880622231564
2463.0,0.019042683770379876
2462.0,0.01899731005860028
2461.0,0.018951941086827073
2460.0,0.018906576854070378
2459.0,0.018906576854070378
2458.0,0.018861217359339655
2457.0,0.018861217359339655
2456.0,0.018861217359339655
2455.0,0.018861217359339655
2454.0,0.018861217359339655
2453.0,0.018861217359339655
2452.0,0.018861217359339655
2451.0,0.018861217359339655
2450.0,0.018770512579999288
2449.0,0.018725167293411005
2448.0,0.018725167293411005
2447.0,0.018725167293411005
2446.0,0.018725167293411005
2445.0,0.018770512579999288
2444.0,0.018770512579999288
2443.0,0.018770512579999288
2442.0,0.018725167293411005
2441.0,0.018679826740892747
2440.0,0.018679826740892747
2439.0,0.018634490921455527
2438.0,0.018634490921455527
2437.0,0.018634490921455527
2436.0,0.018634490921455527
2435.0,0.018679826740892747
2434.0,0.018725167293411005
2433.0,0.018770512579999288
2432.0,0.018725167293411005
2431.0,0.018725167293411005
2430.0,0.018679826740892747
2429.0,0.018679826740892747
2428.0,0.018679826740892747
2427.0,0.018679826740892747
2426.0,0.018725167293411005
2425.0,0.018725167293411005
2424.0,0.018770512579999288
2423.0,0.018770512579999288
2422.0,0.018725167293411005
2421.0,0.018725167293411005
2420.0,0.018770512579999288
2419.0,0.018770512579999288
2418.0,0.018770512579999288
2417.0,0.018725167293411005
2416.0,0.018725167293411005
2415.0,0.018725167293411005
2414.0,0.018770512579999288
2413.0,0.018815862601645694
2412.0,0.018861217359339655
2411.0,0.018861217359339655
2410.0,0.018906576854070378
2409.0,0.018906576854070378
2408.0,0.018906576854070378
2407.0,0.018906576854070378
2406.0,0.018906576854070378
2405.0,0.018906576854070378
2404.0,0.018906576854070378
2403.0,0.018951941086827073
2402.0,0.018951941086827073
2401.0,0.01899731005860028
2400.0,0.01899731005860028
2399.0,0.019042683770379876
2398.0,0.019042683770379876
2397.0,0.019042683770379876
2396.0,0.019042683770379876
2395.0,0.019042683770379876
2394.0,0.01899731005860028
2393.0,0.018951941086827073
2392.0,0.018906576854070378
2391.0,0.018906576854070378
2390.0,0.018951941086827073
2389.0,0.01899731005860028
2388.0,0.019133445417920836
2387.0,0.0192242260373785
2386.0,0.019360432556262852
2385.0,0.01940584422377989
2384.0,0.01940584422377989
2383.0,0.019315025636685412
2382.0,0.019133445417920836
2381.0,0.018815862601645694
2380.0,0.01845319495476394
2379.0,0.01809082990920774
2378.0,0.017728766960431575
2377.0,0.017502630802287644
2376.0,0.017457417697056554
2375.0,0.01759307113620534
2374.0,0.01781925440359733
2373.0,0.01800028587012159
2372.0,0.018045555530026514
2371.0,0.017955020928509757
2370.0,0.017638298366853045
2369.0,0.017141057687924732
2368.0,0.016915227262211507
2367.0,0.017095882207371904
2366.0,0.017412209298337533
2365.0,0.017186237868137555
2364.0,0.01632861713980338
2363.0,0.015067833932588037
2362.0,0.013900374944870508
2361.0,0.014124642691606404
2360.0,0.017005545341335804
2359.0,0.020952673052035298
2358.0,0.022642270454698687
2357.0,0.0209982515252789
2356.0,0.01800028587012159
2355.0,0.01538268676325183
2354.0,0.013317820220494436
2353.0,0.011842527443247208
2352.0,0.011218156546359825
2351.0,0.011619434777991433
2350.0,0.013049212141483357
2349.0,0.014708281407112
2348.0,0.015832872853011715
2347.0,0.016058141016111804
2346.0,0.015832872853011715
2345.0,0.015607721475734415
2344.0,0.015697768020096703
2343.0,0.016238439713835096
2342.0,0.016554142658660398
2341.0,0.016103208673694303
2340.0,0.015427684378367834
2339.0,0.014977917890464765
2338.0,0.014798141635428141
2337.0,0.014753209197138295
2336.0,0.015067833932588037
2335.0,0.015427684378367834
2334.0,0.015652742414136167
2333.0,0.015517693597737248
2332.0,0.015427684378367834
2331.0,0.015427684378367834
2330.0,0.015607721475734415
2329.0,0.015742798294583915
2328.0,0.016148281008528276
2327.0,0.016509028184833463
2326.0,0.01646391839700767
2325.0,0.015877917138889863
2324.0,0.015202742910707112
2323.0,0.014798141635428141
2322.0,0.014798141635428141
2321.0,0.015022873584506602
2320.0,0.015427684378367834
2319.0,0.015877917138889863
2318.0,0.01628352608625061
2317.0,0.016509028184833463
2316.0,0.016734647433454652
2315.0,0.016870075265299933
2314.0,0.017005545341335804
2313.0,0.017005545341335804
2312.0,0.016915227262211507
2311.0,0.016824927962187042
2310.0,0.01677978535189717
2309.0,0.01677978535189717
2308.0,0.016870075265299933
2307.0,0.016915227262211507
2306.0,0.016915227262211507
2305.0,0.016915227262211507
2304.0,0.016960383953898095
2303.0,0.017095882207371904
2302.0,0.017231422748988034
2301.0,0.01727661233145472
2300.0,0.01727661233145472
2299.0,0.017231422748988034
2298.0,0.017231422748988034
2297.0,0.01727661233145472
2296.0,0.017367005605150476
2295.0,0.017457417697056554
2294.0,0.017502630802287644
2293.0,0.017457417697056554
2292.0,0.017457417697056554
2291.0,0.017457417697056554
2290.0,0.017547848615010242
2289.0,0.017638298366853045
2288.0,0.017774008325325275
2287.0,0.017909760704207134
2286.0,0.01800028587012159
2285.0,0.018045555530026514
2284.0,0.018045555530026514
2283.0,0.018045555530026514
2282.0,0.018045555530026514
2281.0,0.017955020928509757
2280.0,0.017864505196230507
2279.0,0.017774008325325275
2278.0,0.017728766960431575
2277.0,0.01768353030793479
2276.0,0.017638298366853045
2275.0,0.01759307113620534
2274.0,0.017547848615010242
2273.0,0.017502630802287644
2272.0,0.017412209298337533
2271.0,0.017321806616515723
2270.0,0.017231422748988034
2269.0,0.017186237868137555
2268.0,0.017186237868137555
2267.0,0.017186237868137555
2266.0,0.017231422748988034
2265.0,0.017231422748988034
2264.0,0.01727661233145472
2263.0,0.017321806616515723
2262.0,0.017321806616515723
2261.0,0.017321806616515723
2260.0,0.017321806616515723
2259.0,0.017321806616515723
2258.0,0.017321806616515723
2257.0,0.017321806616515723
2256.0,0.017321806616515723
2255.0,0.017367005605150476
2254.0,0.017457417697056554
2253.0,0.017457417697056554
2252.0,0.017412209298337533
2251.0,0.017412209298337533
2250.0,0.017367005605150476
2249.0,0.017367005605150476
2248.0,0.017412209298337533
2247.0,0.017412209298337533
2246.0,0.017367005605150476
2245.0,0.01727661233145472
2244.0,0.017231422748988034
2243.0,0.017231422748988034
2242.0,0.017186237868137555
2241.0,0.017186237868137555
2240.0,0.017141057687924732
2239.0,0.017141057687924732
2238.0,0.017141057687924732
2237.0,0.017141057687924732
2236.0,0.017095882207371904
2235.0,0.017050711425501408
2234.0,0.016960383953898095
2233.0,0.016915227262211507
2232.0,0.016870075265299933
2231.0,0.016915227262211507
2230.0,0.016915227262211507
2229.0,0.016915227262211507
2228.0,0.016870075265299933
2227.0,0.016870075265299933
2226.0,0.016824927962187042
2225.0,0.016734647433454652
2224.0,0.016689514205884493
2223.0,0.016644385668211692
2222.0,0.016599261819461697
2221.0,0.016554142658660398
2220.0,0.016554142658660398
2219.0,0.016554142658660398
2218.0,0.016599261819461697
2217.0,0.016554142658660398
2216.0,0.016554142658660398
2215.0,0.016554142658660398
2214.0,0.016509028184833463
2213.0,0.016509028184833463
2212.0,0.01646391839700767
2211.0,0.016418813294209356
2210.0,0.016373712875465518
2209.0,0.016373712875465518
2208.0,0.016373712875465518
2207.0,0.016418813294209356
2206.0,0.016373712875465518
2205.0,0.01628352608625061
2204.0,0.016238439713835096
2203.0,0.016193358021584725
2202.0,0.016193358021584725
2201.0,0.016148281008528276
2200.0,0.016103208673694303
2199.0,0.016058141016111804
2198.0,0.01596801972881945
2197.0,0.015922966097169144
2196.0,0.015922966097169144
2195.0,0.015922966097169144
2194.0,0.015922966097169144
2193.0,0.015922966097169144
2192.0,0.015877917138889863
2191.0,0.015877917138889863
2190.0,0.015832872853011715
2189.0,0.01578783323856614
2188.0,0.01578783323856614
2187.0,0.01578783323856614
2186.0,0.015742798294583915
2185.0,0.015697768020096703
2184.0,0.015697768020096703
2183.0,0.015652742414136167
2182.0,0.015652742414136167
2181.0,0.015607721475734415
2180.0,0.015607721475734415
2179.0,0.015607721475734415
2178.0,0.015607721475734415
2177.0,0.015607721475734415
2176.0,0.015562705203923999
2175.0,0.015562705203923999
2174.0,0.015607721475734415
2173.0,0.015562705203923999
2172.0,0.015562705203923999
2171.0,0.015562705203923999
2170.0,0.015562705203923999
2169.0,0.015562705203923999
2168.0,0.015517693597737248
2167.0,0.015517693597737248
2166.0,0.015517693597737248
2165.0,0.015517693597737248
2164.0,0.015562705203923999
2163.0,0.015607721475734415
2162.0,0.015652742414136167
2161.0,0.015652742414136167
2160.0,0.015652742414136167
2159.0,0.015607721475734415
2158.0,0.015607721475734415
2157.0,0.015562705203923999
2156.0,0.015562705203923999
2155.0,0.015562705203923999
2154.0,0.015607721475734415
2153.0,0.015607721475734415
2152.0,0.015652742414136167
2151.0,0.015652742414136167
2150.0,0.015607721475734415
2149.0,0.015562705203923999
2148.0,0.015517693597737248
2147.0,0.015517693597737248
2146.0,0.015517693597737248
2145.0,0.015517693597737248
2144.0,0.015562705203923999
2143.0,0.015562705203923999
2142.0,0.015607721475734415
2141.0,0.015607721475734415
2140.0,0.015652742414136167
2139.0,0.015697768020096703
2138.0,0.015742798294583915
2137.0,0.015742798294583915
2136.0,0.015742798294583915
2135.0,0.015742798294583915
2134.0,0.015697768020096703
2133.0,0.015697768020096703
2132.0,0.015697768020096703
2131.0,0.015697768020096703
2130.0,0.015652742414136167
2129.0,0.015607721475734415
2128.0,0.015562705203923999
2127.0,0.015607721475734415
2126.0,0.015607721475734415
2125.0,0.015607721475734415
2124.0,0.015652742414136167
2123.0,0.015697768020096703
2122.0,0.015742798294583915
2121.0,0.01578783323856614
2120.0,0.01578783323856614
2119.0,0.01578783323856614
2118.0,0.015742798294583915
2117.0,0.015697768020096703
2116.0,0.015607721475734415
2115.0,0.015607721475734415
2114.0,0.015607721475734415
2113.0,0.015652742414136167
2112.0,0.015697768020096703
2111.0,0.015697768020096703
2110.0,0.015697768020096703
2109.0,0.015652742414136167
2108.0,0.015652742414136167
2107.0,0.015652742414136167
2106.0,0.015607721475734415
2105.0,0.015562705203923999
2104.0,0.015517693597737248
2103.0,0.01547268665620738
2102.0,0.01547268665620738
2101.0,0.015427684378367834
2100.0,0.015427684378367834
2099.0,0.015427684378367834
2098.0,0.015427684378367834
2097.0,0.015427684378367834
2096.0,0.01538268676325183
2095.0,0.015337693809893471
2094.0,0.015337693809893471
2093.0,0.015337693809893471
2092.0,0.015292705517326866
2091.0,0.015292705517326866
2090.0,0.015247721884586563
2089.0,0.015202742910707112
2088.0,0.015112798935672522
2087.0,0.015112798935672522
2086.0,0.015067833932588037
2085.0,0.015022873584506602
2084.0,0.014932966849499074
2083.0,0.014932966849499074
2082.0,0.014888020460646079
2081.0,0.014888020460646079
2080.0,0.014888020460646079
2079.0,0.014888020460646079
2078.0,0.014888020460646079
2077.0,0.014843078722943437
2076.0,0.014798141635428141
2075.0,0.014753209197138295
2074.0,0.014663358264387139
2073.0,0.014573525916998342
2072.0,0.0144837121472845
2071.0,0.014438812226654996
2070.0,0.014393916947563534
2069.0,0.014349026309051105
2068.0,0.014304140310157809
2067.0,0.014214382227394795
2066.0,0.014169510141607944
2065.0,0.014079779876432497
2064.0,0.013990068146738865
2063.0,0.013900374944870508
2062.0,0.01385553528947936
2061.0,0.013765869865004277
2060.0,0.013676222949234651
2059.0,0.013631406429727155
2058.0,0.013631406429727155
2057.0,0.013586594534531482
2056.0,0.013586594534531482
2055.0,0.013541787262693505
2054.0,0.013496984613259544
2053.0,0.013452186585275916
2052.0,0.013362604389846044
2051.0,0.013317820220494436
2050.0,0.013273040668781544
2049.0,0.01322826573375524
2048.0,0.01318349541446362
2047.0,0.013138729709955221
2046.0,0.013093968619278806
2045.0,0.013049212141483357
2044.0,0.013004460275618523
2043.0,0.012959713020733288
2042.0,0.012870232340102872
2041.0,0.012825498912458322
2040.0,0.012780770091995297
2039.0,0.012780770091995297
2038.0,0.012780770091995297
2037.0,0.012780770091995297
2036.0,0.012780770091995297
2035.0,0.012736045877764557
2034.0,0.012691326268817527
2033.0,0.01260190086298274
2032.0,0.012557195064198723
2031.0,0.012512493866907004
2030.0,0.012512493866907004
2029.0,0.012467797270160563
2028.0,0.012467797270160563
2027.0,0.012467797270160563
2026.0,0.012423105273012602
2025.0,0.012423105273012602
2024.0,0.012378417874516323
2023.0,0.012423105273012602
2022.0,0.012378417874516323
2021.0,0.012333735073725371
2020.0,0.012289056869694281
2019.0,0.012289056869694281
2018.0,0.012333735073725371
2017.0,0.012333735073725371
2016.0,0.012333735073725371
2015.0,0.012289056869694281
2014.0,0.012244383261476699
2013.0,0.012199714248127602
2012.0,0.01215504982870197
2011.0,0.01215504982870197
2010.0,0.012110390002254778
2009.0,0.012065734767841452
2008.0,0.012065734767841452
2007.0,0.012110390002254778
2006.0,0.012199714248127602
2005.0,0.012199714248127602
2004.0,0.012244383261476699
2003.0,0.012244383261476699
2002.0,0.012289056869694281
2001.0,0.012289056869694281
2000.0,0.012333735073725371
1999.0,0.012378417874516323
1998.0,0.012378417874516323
1997.0,0.012333735073725371
1996.0,0.012333735073725371
1995.0,0.012333735073725371
1994.0,0.012378417874516323
1993.0,0.012423105273012602
1992.0,0.012423105273012602
1991.0,0.012423105273012602
1990.0,0.012423105273012602
1989.0,0.012423105273012602
1988.0,0.012378417874516323
1987.0,0.012378417874516323
1986.0,0.012378417874516323
1985.0,0.012378417874516323
1984.0,0.012333735073725371
1983.0,0.012378417874516323
1982.0,0.012378417874516323
1981.0,0.012423105273012602
1980.0,0.012423105273012602
1979.0,0.012467797270160563
1978.0,0.012467797270160563
1977.0,0.012467797270160563
1976.0,0.012512493866907004
1975.0,0.01260190086298274
1974.0,0.012691326268817527
1973.0,0.012736045877764557
1972.0,0.012780770091995297
1971.0,0.012825498912458322
1970.0,0.012870232340102872
1969.0,0.012914970375878188
1968.0,0.012959713020733288
1967.0,0.013093968619278806
1966.0,0.01318349541446362
1965.0,0.013273040668781544
1964.0,0.013362604389846044
1963.0,0.013496984613259544
1962.0,0.013631406429727155
1961.0,0.01372104409400876
1960.0,0.01381070026317599
1959.0,0.013900374944870508
1958.0,0.013990068146738865
1957.0,0.01403492169512921
1956.0,0.014079779876432497
1955.0,0.014124642691606404
1954.0,0.014169510141607944
1953.0,0.014124642691606404
1952.0,0.014079779876432497
1951.0,0.014079779876432497
1950.0,0.01403492169512921
1949.0,0.013990068146738865
1948.0,0.013945219230304673
1947.0,0.01385553528947936
1946.0,0.013676222949234651
1945.0,0.013452186585275916
1944.0,0.013273040668781544
1943.0,0.013093968619278806
1942.0,0.012914970375878188
1941.0,0.012736045877764557
1940.0,0.01260190086298274
1939.0,0.012512493866907004
1938.0,0.012378417874516323
1937.0,0.012244383261476699
1936.0,0.012065734767841452
1935.0,0.011887159731648111
1934.0,0.011708658092512314
1933.0,0.011530229790124524
1932.0,0.011351874764248926
1931.0,0.011218156546359825
1930.0,0.011129033935354915
1929.0,0.011039929609661936
1928.0,0.010906307389674463
1927.0,0.010728208358306901
1926.0,0.010594681998483901
1925.0,0.010416710688994968
1924.0,0.010327752376126709
1923.0,0.01023881228122181
1922.0,0.010105436281226954
1921.0,0.009927665307847056
1920.0,0.009883233932095559
1919.0,0.009883233932095559
1918.0,0.009883233932095559
1917.0,0.009705553871561357
1916.0,0.009527946474380489
1915.0,0.009439170005980158
1914.0,0.00939478857608056
1913.0,0.009306039320248427
1912.0,0.009172949432521227
1911.0,0.00908424549391551
1910.0,0.008995559669244813
1909.0,0.008818242332126802
1908.0,0.008685301823389224
1907.0,0.008640997362049818
1906.0,0.008596697419959609
1905.0,0.008552401996197112
1904.0,0.008463824699968647
1903.0,0.008375265465994541
1902.0,0.008286724286910463
1901.0,0.008198201155356077
1900.0,0.008109696063975047
1899.0,0.008021209005416363
1898.0,0.007932739972333236
1897.0,0.007844288957383316
1896.0,0.007755855953228474
1895.0,0.007667440952535687
1894.0,0.007534852191956709
1893.0,0.007402303897961815
1892.0,0.007269796045857202
1891.0,0.007269796045857202
1890.0,0.007225635744644521
1889.0,0.007137328610972382
1888.0,0.00696076819309055
1887.0,0.006916639301937977
1886.0,0.006872514894289861
1885.0,0.006828394969235152
1884.0,0.006740168563263094
1883.0,0.006651960076740071
1882.0,0.00656376950238835
1881.0,0.006475596832934416
1880.0,0.006387442061109638
1879.0,0.006299305179649828
1878.0,0.00621118618129457
1877.0,0.00612308505878878
1876.0,0.006035001804881146
1875.0,0.005990966876386672
1874.0,0.005946936412324799
1873.0,0.005858888873877532
1872.0,0.005726851026829571
1871.0,0.005638848091999105
1870.0,0.005550862985963967
1869.0,0.005506877116487674
1868.0,0.00541891874010525
1867.0,0.005330978174470591
1866.0,0.005243055412371911
1865.0,0.005199100705396198
1864.0,0.005155150446602086
1863.0,0.005155150446602086
1862.0,0.005111204635089406
1861.0,0.005111204635089406
1860.0,0.005067263269958211
1859.0,0.005023326350308999
1858.0,0.005023326350308999
1857.0,0.004979393875242044
1856.0,0.004979393875242044
1855.0,0.004979393875242044
1854.0,0.005023326350308999
1853.0,0.005023326350308999
1852.0,0.004979393875242044
1851.0,0.004979393875242044
1850.0,0.004979393875242044
1849.0,0.004935465843858511
1848.0,0.00484762310854614
1847.0,0.004803708402820517
1846.0,0.00484762310854614
1845.0,0.00489154225525934
1844.0,0.004935465843858511
1843.0,0.004935465843858511
1842.0,0.004935465843858511
1841.0,0.004979393875242044
1840.0,0.005023326350308999
1839.0,0.005023326350308999
1838.0,0.005023326350308999
1837.0,0.004979393875242044
1836.0,0.004979393875242044
1835.0,0.004979393875242044
1834.0,0.005023326350308999
1833.0,0.004979393875242044
1832.0,0.005023326350308999
1831.0,0.005155150446602086
1830.0,0.005199100705396198
1829.0,0.005067263269958211
1828.0,0.004979393875242044
1827.0,0.005067263269958211
1826.0,0.005199100705396198
1825.0,0.005199100705396198
1824.0,0.005111204635089406
1823.0,0.005023326350308999
1822.0,0.005023326350308999
1821.0,0.004979393875242044
1820.0,0.00489154225525934
1819.0,0.00484762310854614
1818.0,0.00484762310854614
1817.0,0.004715892310740433
1816.0,0.004628093971837721
1815.0,0.004540313378935901
1814.0,0.004408675747646695
1813.0,0.004233220950025984
1812.0,0.0040578370074493275
1811.0,0.003926345514724705
1810.0,0.003794893821675638
1809.0,0.0036634819042162814
1808.0,0.0035758960449088217
1807.0,0.003488327845821315
1806.0,0.0034007772998332353
1805.0,0.0032257291386954545
1804.0,0.0029632891174733444
1803.0,0.0027884171674950053
1802.0,0.002613615602686581
1801.0,0.002395212539545666
1800.0,0.0022205691343961664
1799.0,0.0021332737608552588
1798.0,0.0020459959305969555
1797.0,0.0018714928717336043
1796.0,0.0016534626036355249
1795.0,0.0015226969634936083
1794.0,0.0014355417390583547
1793.0,0.0012612837441823288
1792.0,0.0010435595295137379
1791.0,0.000869458712629001
1790.0,0.0007389288868995258
1789.0,0.0006519307932786322
1788.0,0.0005649501236701937
1787.0,0.0004779868710962365
1786.0,0.0003475746339209884
1785.0,8.686758342868472e-05
1784.0,-0.00017368305846510168
1783.0,-0.0002604985473904087
1782.0,-0.00030389978481260016
1781.0,-0.00043407747931878404
1780.0,-0.0006075870628903246
1779.0,-0.0007376737740329986
1778.0,-0.0007810273534953893
1777.0,-0.0008677215312267172
1776.0,-0.0009977303577937136
1775.0,-0.001041057986093552
1774.0,-0.001041057986093552
1773.0,-0.0011710149414008164
1772.0,-0.0013875234866409514
1771.0,-0.0013875234866409514
1770.0,-0.0013009330204178937
1769.0,-0.0011710149414008164
1768.0,-0.0011277002770349043
1767.0,-0.0009543984064577238
1766.0,-0.0007376737740329986
1765.0,-0.0005642161653756084
1764.0,-0.00030389978481260016
1763.0,0.00017375254558760211
1762.0,0.0006519307932786322
1761.0,0.0009565003968372565
1760.0,0.0013919706849057079
1759.0,0.0021332737608552588
1758.0,0.0031382315093266833
1757.0,0.004101676353562844
1756.0,0.005023326350308999
1755.0,0.006167133386013823
1754.0,0.007490664932224611
1753.0,0.008906891951112605
1752.0,0.010817248744452446
1751.0,0.013586594534531482
1750.0,0.016960383953898095
1749.0,0.020633757603838898
1748.0,0.024936003904763915
1747.0,0.029885677714903025
1746.0,0.035363296211498474
1745.0,0.041579471947481794
1744.0,0.048905443158337114
1743.0,0.057000406633959555
1742.0,0.06550154875643233
1741.0,0.07510073598571654
1740.0,0.0867160982395816
1739.0,0.09854167860388774
1738.0,0.10784972209863586
1737.0,0.11503480179926728
1736.0,0.12326270285933538
1735.0,0.13763006287711765
1734.0,0.15751557558842988
1733.0,0.17386038206408516
1732.0,0.18561920553006184
1731.0,0.1979107421182673
1730.0,0.21253952548158495
1729.0,0.22797183467514515
1728.0,0.24283180778572744
1727.0,0.2572748686953017
1726.0,0.27245874297144357
1725.0,0.2891213823148271
1724.0,0.3074174377250909
1723.0,0.3258740172572918
1722.0,0.34217954398430295
1721.0,0.3551676711743639
1720.0,0.36703683183273883
1719.0,0.3832095136702842
1718.0,0.40638169187046413
1717.0,0.4272445348457803
1716.0,0.4374692311377386
1715.0,0.44045244441956566
1714.0,0.43806423668621863
1713.0,0.42910696378160784
1712.0,0.414313721547503
1711.0,0.39555793373927695
1710.0,0.37458464784559187
1709.0,0.3528127021040104
1708.0,0.3304042189756866
1707.0,0.30636097383845184
1706.0,0.28100036212128177
1705.0,0.2589272276266785
1704.0,0.24298376526869947
1703.0,0.23099212905622624
1702.0,0.21889116427053357
1701.0,0.20356444118982564
1700.0,0.18829097330380895
1699.0,0.17802818235795725
1698.0,0.1713401034646802
1697.0,0.16488040957545036
1696.0,0.15745316350498495
1695.0,0.1507034591652734
1694.0,0.14605855411951008
1693.0,0.14284849731250704
1692.0,0.13978181533124334
1691.0,0.13632033212410222
1690.0,0.13282724882135022
1689.0,0.13006458935314003
1688.0,0.12784372725170723
1687.0,0.12563416426995122
1686.0,0.12314735239865637
1685.0,0.12119106764079435
1684.0,0.12015894401343741
1683.0,0.11884367892443626
1682.0,0.11741854644554883
1681.0,0.11599807523121286
1680.0,0.11441264381034388
1679.0,0.1125514997500463
1678.0,0.11069829749368965
1677.0,0.10918790104487552
1676.0,0.10784972209863586
1675.0,0.10646015643533868
1674.0,0.10501970907203151
1673.0,0.10374943753836186
1672.0,0.10259286033841963
1671.0,0.10127481841050656
1670.0,0.09996076451267522
1669.0,0.09886874864462802
1668.0,0.09783387072894878
1667.0,0.09669292003582619
1666.0,0.09544673702322726
1665.0,0.09420411963213149
1664.0,0.09301884677114591
1663.0,0.09189045960744768
1662.0,0.09076499663169257
1661.0,0.08974922769985194
1660.0,0.08873582900163002
1659.0,0.08767164203958999
1658.0,0.08645104209348209
1657.0,0.08528671302637614
1656.0,0.08412549714230844
1655.0,0.08286224724355584
1654.0,0.08196966321511989
1653.0,0.08196966321511989
1652.0,0.08144546944972642
1651.0,0.08066036321258663
1650.0,0.07998108397108505
1649.0,0.07925073872429178
1648.0,0.07852161962430992
1647.0,0.0777417765670334
1646.0,0.07706704344478843
1645.0,0.07644514193245056
1644.0,0.07587584681417514
1643.0,0.07520400420208784
1642.0,0.07437854520917098
1641.0,0.07360609973031784
1640.0,0.07273231918911849
1639.0,0.0718090519612431
1638.0,0.07083661679493547
1637.0,0.07012147634321675
1636.0,0.06976434723371505
1635.0,0.06935655895783555
1634.0,0.06874559358358656
1633.0,0.0681862960408608
1632.0,0.06747550294945781
1631.0,0.06656333217371957
1630.0,0.06560255921901192
1629.0,0.06479513257341862
1628.0,0.06408986356949264
1627.0,0.06333548699992453
1626.0,0.06258241852286206
1625.0,0.061880730805688344
1624.0,0.06128018521761747
1623.0,0.06063052992534024
1622.0,0.05998184499233683
1621.0,0.05948351506743288
1620.0,0.05908526241971446
1619.0,0.058737090681050264
1618.0,0.058737090681050264
1617.0,0.05923456436878238
1616.0,0.05968277842578207
1615.0,0.05963295401433477
1614.0,0.05938391766259232
1613.0,0.059035506507200575
1612.0,0.058538260652670315
1611.0,0.057743849580535134
1610.0,0.05685187064143715
1609.0,0.055961719945581745
1608.0,0.05507339001378431
1607.0,0.05413767551038262
1606.0,0.053203972728539606
1605.0,0.05227227303668425
1604.0,0.05134256785867963
1603.0,0.050414848673348
1602.0,0.04953778109440221
1601.0,0.048808242065293994
1600.0,0.04807992647970649
1599.0,0.04740126547022694
1598.0,0.04672366333269573
1597.0,0.046143701775014145
1596.0,0.045612749855485024
1595.0,0.0451788169482068
1594.0,0.044793462458058375
1593.0,0.04455278942230456
1592.0,0.044312249686494276
1591.0,0.044071843103049346
1590.0,0.0439276630048171
1589.0,0.04387961360698034
1588.0,0.0439276630048171
1587.0,0.04402377775167454
1586.0,0.044360346976747955
1585.0,0.044937930324967956
1584.0,0.04585401117045196
1583.0,0.047062332249019345
1582.0,0.048468209457651845
1581.0,0.04982994019179987
1580.0,0.050902874887084115
1579.0,0.0515870342213991
1578.0,0.05178270644002936
1577.0,0.05144033789103841
1576.0,0.050463626623857394
1575.0,0.049148541111453614
1574.0,0.047934409814949674
1573.0,0.0469171560879138
1572.0,0.04595055323640551
1571.0,0.04484161307420642
1570.0,0.04383156952463674
1569.0,0.042967683653061695
1568.0,0.042201225070002124
1567.0,0.041579471947481794
1566.0,0.04105406750606355
1565.0,0.040529297924893015
1564.0,0.0400527842915015
1563.0,0.03957679292217042
1562.0,0.03910132267333921
1561.0,0.03848398855105106
1560.0,0.038199360808321536
1559.0,0.03857890593355173
1558.0,0.03838909190871931
1557.0,0.03810452633214956
1556.0,0.03810452633214956
1555.0,0.03791491948264003
1554.0,0.037583306554248797
1553.0,0.0371573187987575
1552.0,0.03682628362474838
1551.0,0.036542739883292485
1550.0,0.03621217265444465
1549.0,0.03583468937826462
1548.0,0.03550466044490741
1547.0,0.03522197797762394
1546.0,0.03484535401307465
1545.0,0.03442204208947208
1544.0,0.03399914237121604
1543.0,0.03357665405630694
1542.0,0.0332483359486222
1541.0,0.03338901331806565
1540.0,0.03357665405630694
1539.0,0.033154576345083564
1538.0,0.03263926003405038
1537.0,0.03240522732811035
1536.0,0.03226486821611996
1535.0,0.032124554451966825
1534.0,0.03217132066984485
1533.0,0.03235843591698884
1532.0,0.032311649546687526
1531.0,0.032218091924200776
1530.0,0.032031037121307726
1529.0,0.03189079887180224
1528.0,0.03175060589208267
1527.0,0.03151705144606498
1526.0,0.031190286087141805
1525.0,0.030863766403287585
1524.0,0.030537492025363155
1523.0,0.030211462585061133
1522.0,0.029885677714903025
1521.0,0.029467170231675777
1520.0,0.028956208163971375
1519.0,0.02858497661500481
1518.0,0.028353117935693284
1517.0,0.028214062120885508
1516.0,0.028028723600243666
1515.0,0.027889771597169544
1514.0,0.02798240132598462
1513.0,0.028353117935693284
1512.0,0.02904906565457588
1511.0,0.029978734171634214
1510.0,0.03128362253321426
1509.0,0.03362357691107709
1508.0,0.03924390909822728
1507.0,0.04837110616336182
1506.0,0.05413767551038262
1505.0,0.054679159207724926
1504.0,0.052762392129333646
1503.0,0.04939177521576932
1502.0,0.04537162249272897
1501.0,0.041149548320321694
1500.0,0.03739392707587297
1499.0,0.03414006319292828
1498.0,0.03147035562516054
1497.0,0.02942069428514915
1496.0,0.027889771597169544
1495.0,0.026733563891471412
1494.0,0.025949097207122573
1493.0,0.025488307262671706
1492.0,0.025258095499050004
1491.0,0.025074013910237447
1490.0,0.025074013910237447
1489.0,0.02544225514642018
1488.0,0.02613355016462182
1487.0,0.02691835039863255
1486.0,0.027797161620935595
1485.0,0.028816959143838528
1484.0,0.029885677714903025
1483.0,0.031096969696171817
1482.0,0.032545631817259224
1481.0,0.03409308450480819
1480.0,0.03550466044490741
1479.0,0.03668448861388862
1478.0,0.03777276864991497
1477.0,0.039006291057664066
1476.0,0.040243327009005014
1475.0,0.04124505013091051
1474.0,0.04229695845116854
1473.0,0.043495409683302455
1472.0,0.044312249686494276
1471.0,0.044312249686494276
1470.0,0.044071843103049346
1469.0,0.043735497301724546
1468.0,0.04344740808260106
1467.0,0.043303435105349175
1466.0,0.04359142880416744
1465.0,0.044360346976747955
1464.0,0.04527520902093718
1463.0,0.04599883231842972
1462.0,0.04662694927330402
1461.0,0.04720755695590784
1460.0,0.04778894189133087
1459.0,0.048468209457651845
1458.0,0.04968383607539972
1457.0,0.05129369109514803
1456.0,0.05212534510230182
1455.0,0.05232126006306337
1454.0,0.05232126006306337
1453.0,0.05217431555754937
1452.0,0.05173378011970464
1451.0,0.051049389754451946
1450.0,0.050317309204795935
1449.0,0.04963514562387683
1448.0,0.048954051864180226
1447.0,0.04827402457540786
1446.0,0.04774046340917959
1445.0,0.047352830241056854
1444.0,0.04701393480294458
1443.0,0.04662694927330402
1442.0,0.046143701775014145
1441.0,0.045660991397539874
1440.0,0.04508244626504121
1439.0,0.044360346976747955
1438.0,0.04344740808260106
1437.0,0.042201225070002124
1436.0,0.04072004986906119
1435.0,0.03924390909822728
1434.0,0.03786753070176463
1433.0,0.036401037402758574
1432.0,0.03484535401307465
1431.0,0.033154576345083564
1430.0,0.031563752288295444
1429.0,0.030211462585061133
1428.0,0.029141943003497595
1427.0,0.028306761050139073
1426.0,0.027750864037404455
1425.0,0.027334407733889066
1424.0,0.027195677663422346
1423.0,0.02738066094037661
1422.0,0.027843464140506313
1421.0,0.02890978686288448
1420.0,0.031190286087141805
1419.0,0.03522197797762394
1418.0,0.04043395336207234
1417.0,0.04653025674659861
1416.0,0.053842605077627725
1415.0,0.0627329277885873
1414.0,0.0732460948102629
1413.0,0.08555105930144569
1412.0,0.09865067458435761
1411.0,0.11058623595729111
1410.0,0.11930071078129845
1409.0,0.12407101507707297
1408.0,0.12459143992293642
1407.0,0.12084675381575383
1406.0,0.11339648571328764
1405.0,0.10402526764093545
1404.0,0.09485199814398393
1403.0,0.0870343792958963
1402.0,0.08055578953476306
1401.0,0.07479107858799638
1400.0,0.06915280831750303
1399.0,0.06383825908884244
1398.0,0.05943371350990989
1397.0,0.056159373598738904
1396.0,0.053351266093323746
1395.0,0.05065879322950262
1394.0,0.04832256265669943
1393.0,0.04667530361081473
1392.0,0.0454680573730859
1391.0,0.044456557540257124
1390.0,0.0435434165901003
1389.0,0.042775942156833
1388.0,0.042201225070002124
1387.0,0.0417706858116178
1386.0,0.041483896576958834
1385.0,0.04138834223512067
1384.0,0.041436116778032606
1383.0,0.041579471947481794
1382.0,0.04172287445230238
1381.0,0.04200982159316968
1380.0,0.04244059810252043
1379.0,0.04291974034210022
1378.0,0.04339941178682327
1377.0,0.04387961360698034
1376.0,0.04450467081587295
1375.0,0.04527520902093718
1374.0,0.046047116768076934
1373.0,0.04662694927330402
1372.0,0.0469171560879138
1371.0,0.04682039893436585
1370.0,0.04633693625290869
1369.0,0.04537162249272897
1368.0,0.04397571771932274
1367.0,0.04224908912272074
1366.0,0.0402909757535701
1365.0,0.038199360808321536
1364.0,0.03592902944204468
1363.0,0.03357665405630694
1362.0,0.031563752288295444
1361.0,0.030118356253500123
1360.0,0.029281296279810798
1359.0,0.028677754757187035
1358.0,0.028353117935693284
1357.0,0.028353117935693284
1356.0,0.028677754757187035
1355.0,0.02932775731028059
1354.0,0.030397735151460825
1353.0,0.03193753992355086
1352.0,0.03409308450480819
1351.0,0.036873558918095295
1350.0,0.040529297924893015
1349.0,0.04522701031028298
1348.0,0.051098239029786274
1347.0,0.05824018618530458
1346.0,0.06676587128519196
1345.0,0.07654873036034848
1344.0,0.08692825969074924
1343.0,0.09718153191774648
1342.0,0.10651565378151395
1341.0,0.1145256971708426
1340.0,0.1201016756699902
1339.0,0.12182301950849372
1338.0,0.11907213473291511
1337.0,0.11260778102815316
1336.0,0.10347378251044459
1335.0,0.09269615116603047
1334.0,0.0812359689720008
1333.0,0.07007043991541217
1332.0,0.05988213325228142
1331.0,0.05134256785867963
1330.0,0.04460091336073302
1329.0,0.03957679292217042
1328.0,0.0360705779734416
1327.0,0.03376437590141812
1326.0,0.03240522732811035
1325.0,0.03179733185715028
1324.0,0.03170388495374454
1323.0,0.032031037121307726
1322.0,0.03263926003405038
1321.0,0.033482823553208085
1320.0,0.034469056377139484
1319.0,0.03559892883726867
1318.0,0.03682628362474838
1317.0,0.038151940981675736
1316.0,0.03952922246570112
1315.0,0.04105406750606355
1314.0,0.04282386959515394
1313.0,0.044793462458058375
1312.0,0.04701393480294458
1311.0,0.04934311749548925
1310.0,0.05178270644002936
1309.0,0.05428528594013993
1308.0,0.05690137699451481
1307.0,0.05943371350990989
1306.0,0.061880730805688344
1305.0,0.06434161389936577
1304.0,0.06691783763020887
1303.0,0.06976434723371505
1302.0,0.07304051161972436
1301.0,0.07685964397479927
1300.0,0.08134070657817682
1299.0,0.0862920860195171
1298.0,0.09156860103399356
1297.0,0.0972358560759139
1296.0,0.10308815917397474
1295.0,0.10896458468468917
1294.0,0.11475189221861393
1293.0,0.12050271275057156
1292.0,0.12621453918179926
1291.0,0.13170831198214428
1290.0,0.1370342410222376
1289.0,0.14224547794055775
1288.0,0.14745901423020125
1287.0,0.15242734085788778
1286.0,0.15720360482441986
1285.0,0.16178077809237412
1284.0,0.16640670600154372
1283.0,0.17082492608291244
1282.0,0.1752235375244544
1281.0,0.17979854051435984
1280.0,0.18462151503408197
1279.0,0.18956584407732735
1278.0,0.1948390984005659
1277.0,0.20065945054641832
1276.0,0.20732821085843267
1275.0,0.21467016498923286
1274.0,0.2229358452575705
1273.0,0.23247310059161808
1272.0,0.24351603555739065
1271.0,0.25562877266813944
1270.0,0.2684918164039747
1269.0,0.2822463067892844
1268.0,0.29662263148765056
1267.0,0.3112243447271552
1266.0,0.32569011105852286
1265.0,0.33989377827675593
1264.0,0.3534982499683881
1263.0,0.365724305374056
1262.0,0.3762339998660691
1261.0,0.3853136577179874
1260.0,0.39297412156521405
1259.0,0.3988094673846665
1258.0,0.4035128662634557
1257.0,0.4079343295677529
1256.0,0.41307529185517966
1255.0,0.4187331947263293
1254.0,0.42527441640592656
1253.0,0.4333268623938835
1252.0,0.44297427761361674
1251.0,0.45345733652186904
1250.0,0.4644527208233322
1249.0,0.47612352436186867
1248.0,0.4882502886550171
1247.0,0.49962628564662603
1246.0,0.5093393466438632
1245.0,0.5172692999200572
1244.0,0.5231683714877393
1243.0,0.5252011811993689
1242.0,0.5233132570543553
1241.0,0.5178413045887236
1240.0,0.5089185865768129
1239.0,0.49634548075704066
1238.0,0.4805658050862971
1237.0,0.46293685721838296
1236.0,0.44430110528109856
1235.0,0.42481215507233894
1234.0,0.4049449102406961
1233.0,0.3857357126412948
1232.0,0.36744148546732824
1231.0,0.3499840475281615
1230.0,0.3334820194451191
1229.0,0.31812587787135316
1228.0,0.3039932847814546
1227.0,0.29073003902416916
1226.0,0.2781893847874535
1225.0,0.26648174856551243
1224.0,0.25570701687732367
1223.0,0.24542234395526963
1222.0,0.23567439437401605
1221.0,0.22635980673997413
1220.0,0.21752737583371373
1219.0,0.2088709992727138
1218.0,0.200521601162019
1217.0,0.19253262431572216
1216.0,0.18508681872492616
1215.0,0.17802818235795725
1214.0,0.1713401034646802
1213.0,0.16507090353942422
1212.0,0.15926676538819318
1211.0,0.1538485234711846
1210.0,0.14880282382583943
1209.0,0.1441175699639643
1208.0,0.13978181533124334
1207.0,0.13560759484941132
1206.0,0.1316495003520317
1205.0,0.12784372725170723
1204.0,0.12430223801979201
1203.0,0.12090412049992727
1202.0,0.11758931562603192
1201.0,0.11446916681190777
1200.0,0.1114835389250548
1199.0,0.10862982530385179
1198.0,0.10579474085791629
1197.0,0.10308815917397474
1196.0,0.1005078038618683
1195.0,0.09799710864927058
1194.0,0.0955549589230904
1193.0,0.09334178232840018
1192.0,0.09130056764777605
1191.0,0.08937559511079884
1190.0,0.08761850108119962
1189.0,0.0861331881037608
1188.0,0.08481129482684358
1187.0,0.08370400543686918
1186.0,0.08291480935943274
1185.0,0.08244197917456386
1184.0,0.08228448344050654
1183.0,0.08254700807033655
1182.0,0.08312512146131668
1181.0,0.08407278830288423
1180.0,0.08523386307414738
1179.0,0.08650404038287651
1178.0,0.08772478950118767
1177.0,0.08884239126002336
1176.0,0.08969583193143116
1175.0,0.0900697402471693
1174.0,0.08990945440593179
1173.0,0.08910891135547172
1172.0,0.08772478950118767
1171.0,0.08581556657675371
1170.0,0.08344078069888616
1169.0,0.0809742354126397
1168.0,0.07852161962430992
1167.0,0.0763933569825408
1166.0,0.07458476291575367
1165.0,0.0732460948102629
1164.0,0.07232173586200852
1163.0,0.0716553647351379
1162.0,0.07119462910671581
1161.0,0.07088774334533943
1160.0,0.07073438174693436
1159.0,0.07073438174693436
1158.0,0.07088774334533943
1157.0,0.07119462910671581
1156.0,0.07175781684269089
1155.0,0.07252697900472405
1154.0,0.07355465218161061
1153.0,0.07494587968815725
1152.0,0.07665234350217442
1151.0,0.07862570458152551
1150.0,0.08086958613938555
1149.0,0.08344078069888616
1148.0,0.0862920860195171
1147.0,0.08942895151874142
1146.0,0.09285746899685954
1145.0,0.09669292003582619
1144.0,0.10094593200182911
1143.0,0.10551778498990938
1142.0,0.11041819785037621
1141.0,0.1157145376603248
1140.0,0.12136332697348307
1139.0,0.12743585690934855
1138.0,0.13383085236622927
1137.0,0.1409217752530305
1136.0,0.14880282382583943
1135.0,0.157390760389438
1134.0,0.16659787076814148
1133.0,0.1764605663431411
1132.0,0.18688624599210146
1131.0,0.1976368256904526
1130.0,0.2085198839799991
1129.0,0.21975471613464737
1128.0,0.2312139530919859
1127.0,0.24260397120697563
1126.0,0.2539888922480742
1125.0,0.2652801583443203
1124.0,0.27646223846794316
1123.0,0.28718199979214987
1122.0,0.29696669526631414
1121.0,0.3059215379192406
1120.0,0.31345310093699386
1119.0,0.319120825573189
1118.0,0.32221060893113895
1117.0,0.3230321857052414
1116.0,0.3219370950256548
1115.0,0.31921138849331765
1114.0,0.3158730743869247
1113.0,0.31354248953088826
1112.0,0.3133637307377066
1111.0,0.3159629625134803
1110.0,0.32166375326781993
1109.0,0.3308691526266674
1108.0,0.3433269541151498
1107.0,0.35793137265849584
1106.0,0.3736596326249577
1105.0,0.3899789753358547
1104.0,0.4061603389187287
1103.0,0.42124621557356545
1102.0,0.43462449728592634
1101.0,0.4464810598510305
1100.0,0.45642857603763454
1099.0,0.4639468448407953
1098.0,0.46852108295774486
1097.0,0.4706980022120195
1096.0,0.47056964563301396
1095.0,0.4675004139053376
1094.0,0.4618034216505458
1093.0,0.45432185020797444
1092.0,0.4457531918338895
1091.0,0.4360445350041873
1090.0,0.42550573171467243
1089.0,0.41487781369318455
1088.0,0.40450377817442584
1087.0,0.39404884243512717
1086.0,0.3832095136702842
1085.0,0.3725317275402904
1084.0,0.3618103598091631
1083.0,0.35056777675838346
1082.0,0.3386606599939601
1081.0,0.32633412375429804
1080.0,0.31363189652696377
1079.0,0.30042240860109093
1078.0,0.2870137664056174
1077.0,0.27400674107527756
1076.0,0.2615365605380475
1075.0,0.24964591123729196
1074.0,0.23844801143581806
1073.0,0.22826557461323072
1072.0,0.21917882414652712
1071.0,0.2107013888405589
1070.0,0.20294030530002893
1069.0,0.19592875111433883
1068.0,0.18970025895983111
1067.0,0.1838913292600961
1066.0,0.1785519809824696
1065.0,0.17373078060627378
1064.0,0.1693471862025755
1063.0,0.16532502553725603
1062.0,0.16152872092807113
1061.0,0.15826522102525642
1060.0,0.15539858037365328
1059.0,0.15279763601907614
1058.0,0.15058058620310066
1057.0,0.14880282382583943
1056.0,0.14752000636314366
1055.0,0.1466060225493342
1054.0,0.14599776687301103
1053.0,0.14587621789883287
1052.0,0.14599776687301103
1051.0,0.14624096692523136
1050.0,0.1465451586319333
1049.0,0.14709324120304634
1048.0,0.1477030341730745
1047.0,0.1482525808667361
1046.0,0.14849704722945534
1045.0,0.14849704722945534
1044.0,0.14831368455757254
1043.0,0.14776406058811253
1042.0,0.14691047014813452
1041.0,0.14581545616639335
1040.0,0.14448084433219988
1039.0,0.1427278264359586
1038.0,0.1407415825326932
1037.0,0.13864483980673992
1036.0,0.13661765155921235
1035.0,0.13448148092522594
1034.0,0.13235576609690147
1033.0,0.13041629228657614
1032.0,0.12866061890013913
1031.0,0.12726117252733116
1030.0,0.12650501774383094
1029.0,0.1270865583796048
1028.0,0.12965462891904034
1027.0,0.13483678049391368
1026.0,0.1432711096171173
1025.0,0.15508812608785938
1024.0,0.17031035910102887
1023.0,0.18849202005467336
1022.0,0.20901152491118413
1021.0,0.23113999915704286
1020.0,0.2530545903848953
1019.0,0.27140275661656843
1018.0,0.28207997416300645
1017.0,0.2824127031445396
1016.0,0.2719710455794817
1015.0,0.25313237214957063
1014.0,0.2303273359445075
1013.0,0.208028798979232
1012.0,0.18869315991866387
1011.0,0.1730186630880064
1010.0,0.16077342598656452
1009.0,0.15125681810431635
1008.0,0.14375459920994582
1007.0,0.13763006287711765
1006.0,0.13270933014511588
1005.0,0.12866061890013913
1004.0,0.12540223129680017
1003.0,0.12257105921178035
1002.0,0.1201016756699902
1001.0,0.11793105556385153
1000.0,0.11594135290606156
999.0,0.1141301390960936
998.0,0.11243895906999102
997.0,0.11092250734993603
996.0,0.10963487855187593
995.0,0.10846254232743546
994.0,0.10740457717110186
993.0,0.10662666975397506
992.0,0.10601643278815298
991.0,0.10562854614376227
990.0,0.10535169620648288
989.0,0.10518567091669917
988.0,0.10518567091669917
987.0,0.1052410056281079
986.0,0.10546241500425357
985.0,0.10590557267730127
984.0,0.10668218838388821
983.0,0.10773839308446487
982.0,0.10907622851098608
981.0,0.11058623595729111
980.0,0.11227020271196975
979.0,0.11401718864502697
978.0,0.11588463798833115
977.0,0.11770319906234805
976.0,0.11941504393502012
975.0,0.12084675381575383
974.0,0.12182301950849372
973.0,0.12245589228405596
972.0,0.12251347193039863
971.0,0.1219955297319748
970.0,0.12090412049992727
969.0,0.11930071078129845
968.0,0.11741854644554883
967.0,0.11520463605101905
966.0,0.1128329791052256
965.0,0.11041819785037621
964.0,0.10801676914803293
963.0,0.10562854614376227
962.0,0.10325338439259446
961.0,0.10094593200182911
960.0,0.09875969792669093
959.0,0.09674718310604158
958.0,0.09485199814398393
957.0,0.09312646527792956
956.0,0.09156860103399356
955.0,0.09012318200960712
954.0,0.08873582900163002
953.0,0.08751223866767632
952.0,0.08645104209348209
951.0,0.08539243222891946
950.0,0.08433639649422697
949.0,0.08333553545860273
948.0,0.08244197917456386
947.0,0.08165507103772507
946.0,0.08092190762392604
945.0,0.08029446545087904
944.0,0.07966792846041071
943.0,0.07904229404455076
942.0,0.07841755960658348
941.0,0.07789763319239285
940.0,0.07743023101428781
939.0,0.07701518429111709
938.0,0.07660053384128362
937.0,0.07618627890881036
936.0,0.07572071393811841
935.0,0.07515236702446293
934.0,0.07458476291575367
933.0,0.07401789967289685
932.0,0.07360609973031784
931.0,0.07314329105030759
930.0,0.07268097504034388
929.0,0.07221915065262552
928.0,0.0716553647351379
927.0,0.07109230975604719
926.0,0.07052998382251041
925.0,0.07001940948448526
924.0,0.06956040523329987
923.0,0.06915280831750303
922.0,0.06874559358358656
921.0,0.068389593637038
920.0,0.06803388527182741
919.0,0.06767846801070698
918.0,0.06732334137759932
917.0,0.06712054217620067
916.0,0.06706985716921054
915.0,0.06701917807680191
914.0,0.06696850489759454
913.0,0.06706985716921054
912.0,0.06732334137759932
911.0,0.06772922410050963
910.0,0.06828793294324442
909.0,0.06905096883247697
908.0,0.06996838504902692
907.0,0.0709900145060387
906.0,0.07211658966929302
905.0,0.07334892291111106
904.0,0.07453319930846214
903.0,0.07566901529132153
902.0,0.07665234350217442
901.0,0.07753405470158659
900.0,0.07826151631540124
899.0,0.07872981449018734
898.0,0.07883394936226118
897.0,0.07872981449018734
896.0,0.07841755960658348
895.0,0.07794959783282618
894.0,0.07748213975538865
893.0,0.07706704344478843
892.0,0.07675598136972361
891.0,0.07654873036034848
890.0,0.07654873036034848
889.0,0.07675598136972361
888.0,0.07743023101428781
887.0,0.07857365898473456
886.0,0.08039897621588898
885.0,0.08317771540408803
884.0,0.08714052483764512
883.0,0.09226626300234453
882.0,0.09848719087006019
881.0,0.10579474085791629
880.0,0.11401718864502697
879.0,0.12303203256741524
878.0,0.13270933014511588
877.0,0.1432711096171173
876.0,0.15490195998574308
875.0,0.16704424939540163
874.0,0.17796275192741495
873.0,0.1849538239353694
872.0,0.18555262147751228
871.0,0.17947015147648027
870.0,0.1686422145579325
869.0,0.15639352807548912
868.0,0.1450869776921444
867.0,0.13566694496660703
866.0,0.12836869546244634
865.0,0.12291674334934943
864.0,0.11895789180659433
863.0,0.11599807523121286
862.0,0.11379137583250243
861.0,0.11227020271196975
860.0,0.11125903931710734
859.0,0.11058623595729111
858.0,0.11013827874181148
857.0,0.11002636159600376
856.0,0.11019424813191447
855.0,0.11053021603049262
854.0,0.11103465569966264
853.0,0.11193288659256306
852.0,0.11317099532301778
851.0,0.11463877996848804
850.0,0.11599807523121286
849.0,0.11719095860756013
848.0,0.11798803837334138
847.0,0.11804502866039956
846.0,0.11736163830396129
845.0,0.11611154211151953
844.0,0.1145256971708426
843.0,0.11272036546997688
842.0,0.11081038795292675
841.0,0.10896458468468917
840.0,0.10723776538418317
839.0,0.10540705207704448
838.0,0.10352889952072264
837.0,0.1017686154869033
836.0,0.10001543745060903
835.0,0.09821485469640057
834.0,0.09631326826349751
833.0,0.09447395156495153
832.0,0.09280368972839836
831.0,0.09119340059432579
830.0,0.08969583193143116
829.0,0.08841629901892434
828.0,0.0872466963286771
827.0,0.08602728844902896
826.0,0.08486409337798806
825.0,0.0838620168928248
824.0,0.0830725338870073
823.0,0.0823369756726251
822.0,0.08170748724464438
821.0,0.08118360963962057
820.0,0.08071265949561734
819.0,0.08018997982980403
818.0,0.07961575782164254
817.0,0.07914650387874067
816.0,0.07883394936226118
815.0,0.07857365898473456
814.0,0.07836553894629472
813.0,0.0781575185941421
812.0,0.07800156869172903
811.0,0.07763790321520991
810.0,0.07717078033335123
809.0,0.07665234350217442
808.0,0.07623803917129979
807.0,0.07572071393811841
806.0,0.07515236702446293
805.0,0.07453319930846214
804.0,0.07401789967289685
803.0,0.0734517753643813
802.0,0.07278366940873537
801.0,0.07221915065262552
800.0,0.07196279359311708
799.0,0.07242434530888953
798.0,0.07401789967289685
797.0,0.07691148455760066
796.0,0.08055578953476306
795.0,0.08402008585977572
794.0,0.08639805027084257
793.0,0.0872997918091396
792.0,0.08666307406737683
791.0,0.08470571697731355
790.0,0.08196966321511989
789.0,0.079094395835976
788.0,0.0763933569825408
787.0,0.07396640332115534
786.0,0.0718090519612431
785.0,0.06981534770138009
784.0,0.0680846829187538
783.0,0.06641148980334699
782.0,0.06489597884855036
781.0,0.06353652599525317
780.0,0.06243196139961715
779.0,0.061380218497318895
778.0,0.06028111764589528
777.0,0.05918479134919874
776.0,0.05809122563440061
775.0,0.05680236993107379
774.0,0.05551732784983132
773.0,0.05438372077326825
772.0,0.05340037498486727
771.0,0.052419250695677544
770.0,0.05134256785867963
769.0,0.050073556332087765
768.0,0.04871106272232795
767.0,0.04720755695590784
766.0,0.04570923829887308
765.0,0.044456557540257124
764.0,0.04344740808260106
763.0,0.042584285277331047
762.0,0.04167506835594681
761.0,0.04081545726880842
760.0,0.03986232513620536
759.0,0.03886378261277468
758.0,0.03791491948264003
757.0,0.037062711569998186
756.0,0.03644826642590382
755.0,0.03588185684851508
754.0,0.03526907894637077
753.0,0.03475124903287918
752.0,0.03428102975577918
751.0,0.0338113190438627
750.0,0.03334211579824231
749.0,0.03310770413286357
748.0,0.033201453616638954
747.0,0.03357665405630694
746.0,0.03432802877989327
745.0,0.03578752703018084
744.0,0.03829421599749461
743.0,0.042057664554595586
742.0,0.047643522676209304
741.0,0.055764156206519866
740.0,0.06701917807680191
739.0,0.08149786036382611
738.0,0.0989778267519208
737.0,0.11941504393502012
736.0,0.1423660148499919
735.0,0.16710805524020933
734.0,0.19314197048118253
733.0,0.22069217241641415
732.0,0.2500319164905971
731.0,0.281415279972564
730.0,0.31506491735911046
729.0,0.351835221425999
728.0,0.39147396642280596
727.0,0.43050904565121684
726.0,0.46382046786277464
725.0,0.48651604329574294
724.0,0.4958010814605551
723.0,0.4913356369470574
722.0,0.47664379334520723
721.0,0.45655281991829977
720.0,0.4347426565797863
719.0,0.41251353458903584
718.0,0.3905123101467147
717.0,0.36906388093580866
716.0,0.3482375526198891
715.0,0.328179439816751
714.0,0.30962669308394086
713.0,0.29370904274123655
712.0,0.28050298338941837
711.0,0.2692984557181548
710.0,0.25940048718884356
709.0,0.2505729008782511
708.0,0.24260397120697563
707.0,0.23500240071511946
706.0,0.2274582673590566
705.0,0.22033137279285198
704.0,0.2137456042102197
703.0,0.20718822875185294
702.0,0.20038379551850105
701.0,0.19334527600813955
700.0,0.18641901143180806
699.0,0.17966715510059017
698.0,0.17340694606595197
697.0,0.16787445746599094
696.0,0.16291684917681404
695.0,0.1582027011256446
694.0,0.15366288787019466
693.0,0.14984407757790774
692.0,0.14684956355215717
691.0,0.14429916916456276
690.0,0.14176366457048695
689.0,0.13924287691845794
688.0,0.1370342410222376
687.0,0.1350738084609946
686.0,0.13335827943396006
685.0,0.13212021654162043
684.0,0.13141433344123432
683.0,0.13100309751286465
682.0,0.1306509192409071
681.0,0.1302990263261221
680.0,0.12977172098820566
679.0,0.1286022185125162
678.0,0.12679569072295926
677.0,0.12476505354983503
676.0,0.12291674334934943
675.0,0.12101887660626365
674.0,0.11907213473291511
673.0,0.1169634899723202
672.0,0.11560117444331386
671.0,0.11322735694556196
670.0,0.11424311893073247
669.0,0.1145256971708426
668.0,0.11339648571328764
667.0,0.11272036546997688
666.0,0.11153968196461372
665.0,0.10997041383658313
664.0,0.10851829616048003
663.0,0.1075158206353124
662.0,0.1061827760325369
661.0,0.10485381062400778
660.0,0.1038045895457893
659.0,0.10314322726279568
658.0,0.10270287794050348
657.0,0.10231793820358015
656.0,0.10171372141087698
655.0,0.10089114180660053
654.0,0.10001543745060903
653.0,0.09935981601739963
652.0,0.09892328427374508
651.0,0.09826930827078129
650.0,0.0972358560759139
649.0,0.0964759355287379
648.0,0.09625905937846135
647.0,0.09631326826349751
646.0,0.0960964733098364
645.0,0.09571734235437201
644.0,0.09539263618455207
643.0,0.09490603167212863
642.0,0.09420411963213149
641.0,0.0935033402006471
640.0,0.09301884677114591
639.0,0.09307265269104414
638.0,0.0937727369476411
637.0,0.09550084460218011
636.0,0.09816040794877057
635.0,0.10111034407341357
634.0,0.10341867249426717
633.0,0.10435649517592083
632.0,0.1038045895457893
631.0,0.10198826120249849
630.0,0.09946901754724413
629.0,0.09718153191774648
628.0,0.0955549589230904
627.0,0.09452793807529569
626.0,0.09388054245443844
625.0,0.0935033402006471
624.0,0.09296504751658308
623.0,0.09210516458371698
622.0,0.09113982698272349
621.0,0.09060445403289452
620.0,0.0905509530187334
619.0,0.09033701484598189
618.0,0.08948231448273347
617.0,0.08841629901892434
616.0,0.0877779434675845
615.0,0.08745911720936239
614.0,0.0872466963286771
613.0,0.08714052483764512
612.0,0.08714052483764512
611.0,0.0870343792958963
610.0,0.08661005636824437
609.0,0.08602728844902896
608.0,0.08560394787021397
607.0,0.08528671302637614
606.0,0.08496970974083906
605.0,0.08465293767580806
604.0,0.08428366205400617
603.0,0.08344078069888616
602.0,0.08202211740709164
601.0,0.08034671768963575
600.0,0.07925073872429178
599.0,0.07883394936226118
598.0,0.07883394936226118
597.0,0.0788860261633193
596.0,0.07878187880504961
595.0,0.07831352451639795
594.0,0.07748213975538865
593.0,0.07649693305789551
592.0,0.07525564752005143
591.0,0.07355465218161061
590.0,0.07211658966929302
589.0,0.07186029312488018
588.0,0.07304051161972436
587.0,0.07448164182257
586.0,0.07468790850035045
585.0,0.07329750581735506
584.0,0.07093887591523451
583.0,0.068389593637038
582.0,0.06661395809694559
581.0,0.06605739725873905
580.0,0.06575411897692884
579.0,0.06403953101083348
578.0,0.06048074738138154
577.0,0.0567528748621382
576.0,0.05389176956309405
575.0,0.050902874887084115
574.0,0.04595055323640551
573.0,0.03876880295533702
572.0,0.03147035562516054
571.0,0.027750864037404455
570.0,0.028956208163971375
569.0,0.031984286006358165
568.0,0.03376437590141812
567.0,0.033905220553829274
566.0,0.032686081712916426
565.0,0.029978734171634214
564.0,0.025764722556973707
563.0,0.021819483062586187
562.0,0.019769308608968306
561.0,0.018906576854070378
560.0,0.017457417697056554
559.0,0.015247721884586563
558.0,0.014079779876432497
557.0,0.015742798294583915
556.0,0.02013307743509718
555.0,0.02516604495145991
554.0,0.028306761050139073
553.0,0.029141943003497595
552.0,0.029188389127482228
551.0,0.029885677714903025
550.0,0.03058408764601861
549.0,0.02932775731028059
548.0,0.025258095499050004
547.0,0.020178569969774962
546.0,0.016915227262211507
545.0,0.01646391839700767
544.0,0.017502630802287644
543.0,0.018045555530026514
542.0,0.017321806616515723
541.0,0.016418813294209356
540.0,0.017412209298337533
539.0,0.02122621566987748
538.0,0.02553436426275746
537.0,0.02682594731702781
536.0,0.023879381700184332
535.0,0.0190880622231564
534.0,0.015877917138889863
533.0,0.01596801972881945
532.0,0.01899731005860028
531.0,0.022413561996148967
530.0,0.02282532397981263
529.0,0.018543833477873584
528.0,0.012021084124518078
527.0,0.007976972236149349
526.0,0.008640997362049818
525.0,0.011619434777991433
524.0,0.013765869865004277
523.0,0.014843078722943437
522.0,0.016103208673694303
521.0,0.017638298366853045
520.0,0.018181392829336396
519.0,0.017321806616515723
518.0,0.016103208673694303
517.0,0.015877917138889863
516.0,0.017457417697056554
515.0,0.020952673052035298
514.0,0.02521206778644225
513.0,0.02826040911222183
512.0,0.029095501846216454
511.0,0.028353117935693284
510.0,0.027797161620935595
509.0,0.02872415126189476
508.0,0.030957032694186815
507.0,0.0329671178412978
506.0,0.03352973627071565
505.0,0.0329671178412978
504.0,0.03263926003405038
503.0,0.032873418923587305
502.0,0.03273290844021437
501.0,0.031563752288295444
500.0,0.02969962459782227
499.0,0.027288159452933503
498.0,0.024430342106337877
497.0,0.022688026603074007
496.0,0.02461415101053266
495.0,0.029932203450862893
494.0,0.03385826726096752
493.0,0.03175060589208267
492.0,0.024798037742147727
491.0,0.018861217359339655
490.0,0.017638298366853045
489.0,0.019769308608968306
488.0,0.022367834754000393
487.0,0.02406295751688936
486.0,0.024292536462819925
485.0,0.02277955336461468
484.0,0.02067930261797568
483.0,0.02036058777709271
482.0,0.022733787572707387
481.0,0.026041313893296225
480.0,0.02863136320857662
479.0,0.031003673351687855
478.0,0.034516075754861264
477.0,0.038721320914956836
476.0,0.041436116778032606
475.0,0.04072004986906119
474.0,0.0371573187987575
473.0,0.033482823553208085
472.0,0.03235843591698884
471.0,0.033060836978886954
470.0,0.03170388495374454
469.0,0.025672564576383117
468.0,0.01781925440359733
467.0,0.013990068146738865
466.0,0.017141057687924732
465.0,0.02512002699306959
464.0,0.03338901331806565
463.0,0.038816290187564384
462.0,0.040243327009005014
461.0,0.03838909190871931
460.0,0.03541041251009669
459.0,0.033201453616638954
458.0,0.03189079887180224
457.0,0.030397735151460825
456.0,0.02839947976994095
455.0,0.02664120011360227
454.0,0.025304128090317013
453.0,0.023879381700184332
452.0,0.02277955336461468
451.0,0.02204787879853809
450.0,0.02140867317992523
