cm-1,A
4000.0,0.0221849739168134
3999.0,0.022230681908425698
3998.0,0.02227639471115217
3997.0,0.02227639471115217
3996.0,0.02227639471115217
3995.0,0.02227639471115217
3994.0,0.02227639471115217
3993.0,0.022322112326006227
3992.0,0.022322112326006227
3991.0,0.022230681908425698
3990.0,0.0221849739168134
3989.0,0.022139270735302752
3988.0,0.022139270735302752
3987.0,0.0221849739168134
3986.0,0.022230681908425698
3985.0,0.022230681908425698
3984.0,0.022230681908425698
3983.0,0.022230681908425698
3982.0,0.022230681908425698
3981.0,0.022230681908425698
3980.0,0.02227639471115217
3979.0,0.02227639471115217
3978.0,0.02227639471115217
3977.0,0.02227639471115217
3976.0,0.02227639471115217
3975.0,0.022322112326006227
3974.0,0.022413561996148967
3973.0,0.02245929405346514
3972.0,0.02245929405346514
3971.0,0.022413561996148967
3970.0,0.022367834754000393
3969.0,0.022367834754000393
3968.0,0.022367834754000393
3967.0,0.022367834754000393
3966.0,0.022367834754000393
3965.0,0.022367834754000393
3964.0,0.022413561996148967
3963.0,0.022413561996148967
3962.0,0.022413561996148967
3961.0,0.02245929405346514
3960.0,0.02245929405346514
3959.0,0.022505030926963654
3958.0,0.02255077261765881
3957.0,0.02255077261765881
3956.0,0.02255077261765881
3955.0,0.02255077261765881
3954.0,0.02255077261765881
3953.0,0.02255077261765881
3952.0,0.02259651912656535
3951.0,0.022688026603074007
3950.0,0.022733787572707387
3949.0,0.02277955336461468
3948.0,0.02282532397981263
3947.0,0.02291687968414724
3946.0,0.02296266477531872
3945.0,0.02296266477531872
3944.0,0.02282532397981263
3943.0,0.02277955336461468
3942.0,0.02277955336461468
3941.0,0.02277955336461468
3940.0,0.022733787572707387
3939.0,0.022688026603074007
3938.0,0.022688026603074007
3937.0,0.02277955336461468
3936.0,0.02296266477531872
3935.0,0.023100049017062307
3934.0,0.02314585342378117
3933.0,0.02314585342378117
3932.0,0.023191662661933732
3931.0,0.02314585342378117
3930.0,0.02314585342378117
3929.0,0.02314585342378117
3928.0,0.023191662661933732
3927.0,0.023191662661933732
3926.0,0.02314585342378117
3925.0,0.02314585342378117
3924.0,0.023191662661933732
3923.0,0.023283295636617574
3922.0,0.023283295636617574
3921.0,0.023283295636617574
3920.0,0.023283295636617574
3919.0,0.023237476732539397
3918.0,0.02314585342378117
3917.0,0.02300845469384938
3916.0,0.02296266477531872
3915.0,0.02296266477531872
3914.0,0.02296266477531872
3913.0,0.02296266477531872
3912.0,0.02291687968414724
3911.0,0.02291687968414724
3910.0,0.023054249440757957
3909.0,0.023237476732539397
3908.0,0.02342078135989012
3907.0,0.02355831062115543
3906.0,0.023604163388120325
3905.0,0.02365002099672653
3904.0,0.023833499868024743
3903.0,0.02406295751688936
3902.0,0.024108863598207186
3901.0,0.024017056287453542
3900.0,0.023787622882622816
3899.0,0.023604163388120325
3898.0,0.02351246269481
3897.0,0.023466619608062178
3896.0,0.023466619608062178
3895.0,0.023466619608062178
3894.0,0.023329119375188556
3893.0,0.02314585342378117
3892.0,0.02300845469384938
3891.0,0.02300845469384938
3890.0,0.023191662661933732
3889.0,0.02342078135989012
3888.0,0.02342078135989012
3887.0,0.023283295636617574
3886.0,0.023329119375188556
3885.0,0.023695883447997224
3884.0,0.02406295751688936
3883.0,0.024154774532432866
3882.0,0.023925268380126097
3881.0,0.02365002099672653
3880.0,0.02355831062115543
3879.0,0.02365002099672653
3878.0,0.023741750742954926
3877.0,0.023741750742954926
3876.0,0.023604163388120325
3875.0,0.02365002099672653
3874.0,0.023925268380126097
3873.0,0.024154774532432866
3872.0,0.023971159908874107
3871.0,0.02355831062115543
3870.0,0.02342078135989012
3869.0,0.02365002099672653
3868.0,0.024017056287453542
3867.0,0.024108863598207186
3866.0,0.023925268380126097
3865.0,0.023833499868024743
3864.0,0.023879381700184332
3863.0,0.023833499868024743
3862.0,0.02365002099672653
3861.0,0.02342078135989012
3860.0,0.023283295636617574
3859.0,0.023283295636617574
3858.0,0.02351246269481
3857.0,0.023879381700184332
3856.0,0.02406295751688936
3855.0,0.023971159908874107
3854.0,0.024154774532432866
3853.0,0.024476287039668643
3852.0,0.024476287039668643
3851.0,0.024246610963712723
3850.0,0.023925268380126097
3849.0,0.023695883447997224
3848.0,0.02355831062115543
3847.0,0.023604163388120325
3846.0,0.023695883447997224
3845.0,0.023787622882622816
3844.0,0.023925268380126097
3843.0,0.024154774532432866
3842.0,0.024292536462819925
3841.0,0.024292536462819925
3840.0,0.024154774532432866
3839.0,0.024108863598207186
3838.0,0.024108863598207186
3837.0,0.024154774532432866
3836.0,0.024200690320592466
3835.0,0.024108863598207186
3834.0,0.023971159908874107
3833.0,0.023879381700184332
3832.0,0.023879381700184332
3831.0,0.024017056287453542
3830.0,0.024154774532432866
3829.0,0.024154774532432866
3828.0,0.023971159908874107
3827.0,0.023787622882622816
3826.0,0.023833499868024743
3825.0,0.024154774532432866
3824.0,0.024338466818941473
3823.0,0.024108863598207186
3822.0,0.023879381700184332
3821.0,0.024017056287453542
3820.0,0.024338466818941473
3819.0,0.024476287039668643
3818.0,0.024246610963712723
3817.0,0.023925268380126097
3816.0,0.023833499868024743
3815.0,0.023925268380126097
3814.0,0.023925268380126097
3813.0,0.023787622882622816
3812.0,0.02365002099672653
3811.0,0.02365002099672653
3810.0,0.023787622882622816
3809.0,0.023787622882622816
3808.0,0.023741750742954926
3807.0,0.023925268380126097
3806.0,0.02438440203310499
3805.0,0.02484402159331056
3804.0,0.024936003904763915
3803.0,0.024660115394541604
3802.0,0.024568191490736968
3801.0,0.024660115394541604
3800.0,0.02475205875931885
3799.0,0.024568191490736968
3798.0,0.024200690320592466
3797.0,0.023925268380126097
3796.0,0.023879381700184332
3795.0,0.023925268380126097
3794.0,0.023879381700184332
3793.0,0.023787622882622816
3792.0,0.023741750742954926
3791.0,0.023741750742954926
3790.0,0.023879381700184332
3789.0,0.023971159908874107
3788.0,0.024017056287453542
3787.0,0.023971159908874107
3786.0,0.023879381700184332
3785.0,0.023925268380126097
3784.0,0.02406295751688936
3783.0,0.024200690320592466
3782.0,0.024154774532432866
3781.0,0.024017056287453542
3780.0,0.023879381700184332
3779.0,0.023879381700184332
3778.0,0.023971159908874107
3777.0,0.024017056287453542
3776.0,0.023971159908874107
3775.0,0.023971159908874107
3774.0,0.024108863598207186
3773.0,0.024200690320592466
3772.0,0.024154774532432866
3771.0,0.02406295751688936
3770.0,0.024154774532432866
3769.0,0.024338466818941473
3768.0,0.02438440203310499
3767.0,0.024292536462819925
3766.0,0.024154774532432866
3765.0,0.024200690320592466
3764.0,0.024430342106337877
3763.0,0.024660115394541604
3762.0,0.024706084643793647
3761.0,0.02461415101053266
3760.0,0.024660115394541604
3759.0,0.024706084643793647
3758.0,0.02475205875931885
3757.0,0.024798037742147727
3756.0,0.024890010313838973
3755.0,0.02498200236711723
3754.0,0.02498200236711723
3753.0,0.024890010313838973
3752.0,0.024936003904763915
3751.0,0.02521206778644225
3750.0,0.025350165561278004
3749.0,0.02539620791296726
3748.0,0.02562649291857677
3747.0,0.02562649291857677
3746.0,0.02521206778644225
3745.0,0.02484402159331056
3744.0,0.02484402159331056
3743.0,0.024890010313838973
3742.0,0.02484402159331056
3741.0,0.024706084643793647
3740.0,0.024706084643793647
3739.0,0.02484402159331056
3738.0,0.024798037742147727
3737.0,0.02461415101053266
3736.0,0.024522236834125355
3735.0,0.02461415101053266
3734.0,0.024568191490736968
3733.0,0.024246610963712723
3732.0,0.023971159908874107
3731.0,0.023879381700184332
3730.0,0.023971159908874107
3729.0,0.023971159908874107
3728.0,0.023971159908874107
3727.0,0.02406295751688936
3726.0,0.024292536462819925
3725.0,0.024430342106337877
3724.0,0.02438440203310499
3723.0,0.024338466818941473
3722.0,0.024338466818941473
3721.0,0.024430342106337877
3720.0,0.024430342106337877
3719.0,0.024430342106337877
3718.0,0.024430342106337877
3717.0,0.024568191490736968
3716.0,0.024706084643793647
3715.0,0.024798037742147727
3714.0,0.024706084643793647
3713.0,0.024660115394541604
3712.0,0.024936003904763915
3711.0,0.025304128090317013
3710.0,0.025304128090317013
3709.0,0.02498200236711723
3708.0,0.02461415101053266
3707.0,0.024338466818941473
3706.0,0.024292536462819925
3705.0,0.024338466818941473
3704.0,0.024430342106337877
3703.0,0.024476287039668643
3702.0,0.024568191490736968
3701.0,0.024660115394541604
3700.0,0.024706084643793647
3699.0,0.024706084643793647
3698.0,0.024660115394541604
3697.0,0.024706084643793647
3696.0,0.024890010313838973
3695.0,0.02516604495145991
3694.0,0.02544225514642018
3693.0,0.025672564576383117
3692.0,0.025902996205869
3691.0,0.026087429580295085
3690.0,0.026225806029419818
3689.0,0.026318081496016443
3688.0,0.02636422658259252
3687.0,0.026410376572743033
3686.0,0.026456531467510258
3685.0,0.026502691267936695
3684.0,0.02654885597506529
3683.0,0.026687379547098322
3682.0,0.02682594731702781
3681.0,0.02691835039863255
3680.0,0.027195677663422346
3679.0,0.027658283674251827
3678.0,0.027936083991977778
3677.0,0.02798240132598462
3676.0,0.02826040911222183
3675.0,0.02863136320857662
3674.0,0.028956208163971375
3673.0,0.029095501846216454
3672.0,0.028863370523193765
3671.0,0.02863136320857662
3670.0,0.028770552723758724
3669.0,0.029002634427514717
3668.0,0.02904906565457588
3667.0,0.02890978686288448
3666.0,0.028816959143838528
3665.0,0.028770552723758724
3664.0,0.028863370523193765
3663.0,0.029002634427514717
3662.0,0.029281296279810798
3661.0,0.02960662792039992
3660.0,0.029932203450862893
3659.0,0.03025802323714588
3658.0,0.030397735151460825
3657.0,0.030537492025363155
3656.0,0.030863766403287585
3655.0,0.03137697904301118
3654.0,0.03193753992355086
3653.0,0.03235843591698884
3652.0,0.032545631817259224
3651.0,0.03273290844021437
3650.0,0.033295223342125535
3649.0,0.03399914237121604
3648.0,0.03428102975577918
3647.0,0.03423403581731388
3646.0,0.034046110897937076
3645.0,0.033905220553829274
3644.0,0.0338113190438627
3643.0,0.0338113190438627
3642.0,0.033905220553829274
3641.0,0.03414006319292828
3640.0,0.03432802877989327
3639.0,0.034469056377139484
3638.0,0.03470420418834386
3637.0,0.03489241415094413
3636.0,0.03498654972775217
3635.0,0.03512779136222477
3634.0,0.03545753392086315
3633.0,0.03597620715996652
3632.0,0.03644826642590382
3631.0,0.036542739883292485
3630.0,0.03658998431977123
3629.0,0.0371573187987575
3628.0,0.03777276864991497
3627.0,0.03800971255993524
3626.0,0.038057116858612794
3625.0,0.03810452633214956
3624.0,0.03829421599749461
3623.0,0.038673844065289176
3622.0,0.039006291057664066
3621.0,0.03938654235209116
3620.0,0.03986232513620536
3619.0,0.040529297924893015
3618.0,0.041101805289228244
3617.0,0.04153168163305643
3616.0,0.04172287445230238
3615.0,0.04181850243505214
3614.0,0.041914151478914974
3613.0,0.04210551278710151
3612.0,0.04229695845116854
3611.0,0.042392712939904875
3610.0,0.04244059810252043
3609.0,0.04263219156847242
3608.0,0.04301563225723992
3607.0,0.0433514207947967
3606.0,0.04359142880416744
3605.0,0.04368746915880539
3604.0,0.0437835307566099
3603.0,0.0439276630048171
3602.0,0.044167989767578186
3601.0,0.04455278942230456
3600.0,0.04503426894157925
3599.0,0.04541983725624266
3598.0,0.045660991397539874
3597.0,0.04595055323640551
3596.0,0.04624030826677128
3595.0,0.04662694927330402
3594.0,0.0469171560879138
3593.0,0.04720755695590784
3592.0,0.04754660357696672
3591.0,0.047885915093007325
3590.0,0.048225491918274965
3589.0,0.0486139051197072
3588.0,0.049148541111453614
3587.0,0.04968383607539972
3586.0,0.04997609347667353
3585.0,0.050073556332087765
3584.0,0.05021979163799939
3583.0,0.05036607620073763
3582.0,0.0506099933550872
3581.0,0.050902874887084115
3580.0,0.051244819831730126
3579.0,0.05153812993871654
3578.0,0.05188057561946402
3577.0,0.05217431555754937
3576.0,0.052468254304406825
3575.0,0.05281143447390635
3574.0,0.05310580489767336
3573.0,0.0534986094304124
3572.0,0.05394093961487645
3571.0,0.05443294655761144
3570.0,0.054876229877880656
3569.0,0.055270639696704205
3568.0,0.055764156206519866
3567.0,0.056456022846545606
3566.0,0.057000406633959555
3565.0,0.057198533682059516
3564.0,0.057198533682059516
3563.0,0.057198533682059516
3562.0,0.05729763111133224
3561.0,0.05754547365752294
3560.0,0.05784307153250956
3559.0,0.058190526991161784
3558.0,0.058538260652670315
3557.0,0.0588862729628985
3556.0,0.05923456436878238
3555.0,0.05953332233647113
3554.0,0.05988213325228142
3553.0,0.06028111764589528
3552.0,0.06068046892176193
3551.0,0.06108018775522828
3550.0,0.061380218497318895
3549.0,0.06163040254819374
3548.0,0.06193081377661436
3547.0,0.062331685600995
3546.0,0.06283329628496737
3545.0,0.06328524178879635
3544.0,0.06363708040225546
3543.0,0.06378795567975115
3542.0,0.06388856832514578
3541.0,0.06403953101083348
3540.0,0.06419054619006714
3539.0,0.06439198148213077
3538.0,0.06474471821595262
3537.0,0.06509774167768612
3536.0,0.06550154875643233
3535.0,0.06580465065211571
3534.0,0.06600683616875758
3533.0,0.06620911585658007
3532.0,0.06646209802829528
3531.0,0.06686717627326577
3530.0,0.06732334137759932
3529.0,0.06777998612288094
3528.0,0.06823711151882228
3527.0,0.06859298644342648
3526.0,0.0688982543673613
3525.0,0.0691018855898955
3524.0,0.06940751155740177
3523.0,0.06971335275448043
3522.0,0.06996838504902692
3521.0,0.07017251876930874
3520.0,0.07037674848475972
3519.0,0.07058107428570715
3518.0,0.07088774334533943
3517.0,0.07119462910671581
3516.0,0.07155293679081787
3515.0,0.07186029312488018
3514.0,0.07211658966929302
3513.0,0.07242434530888953
3512.0,0.07273231918911849
3511.0,0.07309189829456408
3510.0,0.07350321072677968
3509.0,0.07386342893255127
3508.0,0.07417242537525759
3507.0,0.07437854520917098
3506.0,0.07458476291575367
3505.0,0.07489427319033615
3504.0,0.07530729697981409
3503.0,0.07577241873988227
3502.0,0.07613452481449845
3501.0,0.0763933569825408
3500.0,0.07649693305789551
3499.0,0.07665234350217442
3498.0,0.07680780957933253
3497.0,0.07711890879170658
3496.0,0.07753405470158659
3495.0,0.07800156869172903
3494.0,0.07836553894629472
3493.0,0.07862570458152551
3492.0,0.07883394936226118
3491.0,0.079094395835976
3490.0,0.07935499859321249
3489.0,0.07977228854307139
3488.0,0.08013774644446192
3487.0,0.08045124103115198
3486.0,0.08071265949561734
3485.0,0.0809742354126397
3484.0,0.0812883346176787
3483.0,0.08160266115629988
3482.0,0.08191721535781271
3481.0,0.08223199755224364
3480.0,0.08254700807033655
3479.0,0.08280969148843575
3478.0,0.08312512146131668
3477.0,0.08354605145007499
3476.0,0.08402008585977572
3475.0,0.08449463824562353
3474.0,0.08491689834879956
3473.0,0.08523386307414738
3472.0,0.08549817717268593
3471.0,0.08576265223225898
3470.0,0.08602728844902896
3469.0,0.0862920860195171
3468.0,0.08661005636824437
3467.0,0.08692825969074924
3466.0,0.0872466963286771
3465.0,0.08756536662442538
3464.0,0.0877779434675845
3463.0,0.0880970039559672
3462.0,0.0884695376928375
3461.0,0.08884239126002336
3460.0,0.0892689019566193
3459.0,0.08969583193143116
3458.0,0.0900697402471693
3457.0,0.09044397075882471
3456.0,0.0908185240221473
3455.0,0.09113982698272349
3454.0,0.09146136782804049
3453.0,0.0917295005042762
3452.0,0.09205147838772776
3451.0,0.09237369515673355
3450.0,0.09274991711867164
3449.0,0.09312646527792956
3448.0,0.09361107884716913
3447.0,0.09420411963213149
3446.0,0.09463593123310776
3445.0,0.09490603167212863
3444.0,0.09512223303659528
3443.0,0.09533854208447545
3442.0,0.09566320779750503
3441.0,0.09604229147682952
3440.0,0.09636748391576244
3439.0,0.09663866374468144
3438.0,0.09696430321150284
3437.0,0.09729018703012282
3436.0,0.09761631556752848
3435.0,0.09794268919153337
3434.0,0.09826930827078129
3433.0,0.09859617317474823
3432.0,0.09886874864462802
3431.0,0.09914149529800831
3430.0,0.09935981601739963
3429.0,0.09957824654226233
3428.0,0.09979678698310646
3427.0,0.10007011727213588
3426.0,0.10028890542885538
3425.0,0.1005625457138224
3424.0,0.10078158214862709
3423.0,0.10100072911021085
3422.0,0.1012199867101744
3421.0,0.10138450258381404
3420.0,0.10154908080162528
3419.0,0.10165883427249067
3418.0,0.10165883427249067
3417.0,0.10171372141087698
3416.0,0.10171372141087698
3415.0,0.1017686154869033
3414.0,0.10182351650232357
3413.0,0.10193333935836524
3412.0,0.10204318999304807
3411.0,0.10209812573177213
3410.0,0.10215306842042837
3409.0,0.1022080180607754
3408.0,0.10231793820358015
3407.0,0.10242788617426934
3406.0,0.10248287059947447
3405.0,0.10253786198693682
3404.0,0.10253786198693682
3403.0,0.10253786198693682
3402.0,0.10259286033841963
3401.0,0.10264786565568684
3400.0,0.10281292341984649
3399.0,0.10303309806684524
3398.0,0.10325338439259446
3397.0,0.1033635694704158
3396.0,0.10341867249426717
3395.0,0.1033635694704158
3394.0,0.10341867249426717
3393.0,0.10352889952072264
3392.0,0.10374943753836186
3391.0,0.10391491457671487
3390.0,0.10391491457671487
3389.0,0.10385974855798041
3388.0,0.10374943753836186
3387.0,0.10369429253391926
3386.0,0.10363915453068362
3385.0,0.10363915453068362
3384.0,0.10369429253391926
3383.0,0.10369429253391926
3382.0,0.10374943753836186
3381.0,0.10369429253391926
3380.0,0.10363915453068362
3379.0,0.10358402352687701
3378.0,0.10352889952072264
3377.0,0.10352889952072264
3376.0,0.10352889952072264
3375.0,0.10352889952072264
3374.0,0.10347378251044459
3373.0,0.10341867249426717
3372.0,0.1033635694704158
3371.0,0.10330847343711591
3370.0,0.10325338439259446
3369.0,0.10325338439259446
3368.0,0.10325338439259446
3367.0,0.10330847343711591
3366.0,0.1033635694704158
3365.0,0.1033635694704158
3364.0,0.10325338439259446
3363.0,0.10314322726279568
3362.0,0.10292299679057959
3361.0,0.10270287794050348
3360.0,0.10253786198693682
3359.0,0.10248287059947447
3358.0,0.10242788617426934
3357.0,0.10237290870955862
3356.0,0.10226297465457268
3355.0,0.1022080180607754
3354.0,0.10209812573177213
3353.0,0.10193333935836524
3352.0,0.10182351650232357
3351.0,0.10165883427249067
3350.0,0.10149421446564144
3349.0,0.10132965703447017
3348.0,0.10116516193172598
3347.0,0.10105553313349058
3346.0,0.10089114180660053
3345.0,0.10072681268239614
3344.0,0.1005625457138224
3343.0,0.10045306890913297
3342.0,0.10028890542885538
3341.0,0.10007011727213588
3340.0,0.09985143928065598
3339.0,0.09963287134352972
3338.0,0.09946901754724413
3337.0,0.09935981601739963
3336.0,0.09919606518963042
3335.0,0.09903237608087578
3334.0,0.09881421986284966
3333.0,0.09859617317474823
3332.0,0.09837823590664274
3331.0,0.09810596802617932
3330.0,0.0978882765519955
3329.0,0.09767069414168117
3328.0,0.09745322068600859
3327.0,0.0972358560759139
3326.0,0.09696430321150284
3325.0,0.09669292003582619
3324.0,0.0964759355287379
3323.0,0.09631326826349751
3322.0,0.0960964733098364
3321.0,0.09582563171583658
3320.0,0.0955549589230904
3319.0,0.09523037409340485
3318.0,0.09496007192378841
3317.0,0.09468993788391455
3316.0,0.09447395156495153
3315.0,0.09431203228814788
3314.0,0.09415017335768128
3313.0,0.09398837472858723
3312.0,0.09388054245443844
3311.0,0.09371884422784693
3310.0,0.0935033402006471
3309.0,0.09323411045927221
3308.0,0.09291125492570451
3307.0,0.09258863922541383
3306.0,0.09231997575758011
3305.0,0.09210516458371698
3304.0,0.09189045960744768
3303.0,0.0917295005042762
3302.0,0.09156860103399356
3301.0,0.09130056764777605
3300.0,0.0910326995816122
3299.0,0.09076499663169257
3298.0,0.09049745859458458
3297.0,0.09033701484598189
3296.0,0.09012318200960712
3295.0,0.08996287644694911
3294.0,0.08980263003399913
3293.0,0.08964244272712252
3292.0,0.08948231448273347
3291.0,0.0892689019566193
3290.0,0.08900228368935714
3289.0,0.08878910686244668
3288.0,0.08857603462370545
3287.0,0.08836306687055773
3286.0,0.0881502035005799
3285.0,0.08793744441149753
3284.0,0.0877779434675845
3283.0,0.08761850108119962
3282.0,0.08745911720936239
3281.0,0.0872466963286771
3280.0,0.08698131625203986
3279.0,0.0867160982395816
3278.0,0.08645104209348209
3277.0,0.086239113587677
3276.0,0.08608023504853413
3275.0,0.08602728844902896
3274.0,0.08592141461088798
3273.0,0.08576265223225898
3272.0,0.0854453014823664
3271.0,0.08523386307414738
3270.0,0.08502252755566908
3269.0,0.08486409337798806
3268.0,0.08475850269380558
3267.0,0.08460016478773014
3266.0,0.08444188458847957
3265.0,0.08423093401631587
3264.0,0.08407278830288423
3263.0,0.0839147001562972
3262.0,0.08375666953466032
3261.0,0.08354605145007499
3260.0,0.08344078069888616
3259.0,0.08333553545860273
3258.0,0.08328292240118751
3257.0,0.08312512146131668
3256.0,0.08291480935943274
3255.0,0.08270459905431071
3254.0,0.08249449044745338
3253.0,0.0823369756726251
3252.0,0.08212704480115218
3251.0,0.08191721535781271
3250.0,0.08165507103772507
3249.0,0.08139308485501817
3248.0,0.08118360963962057
3247.0,0.08102656950704579
3246.0,0.08092190762392604
3245.0,0.08081727095749947
3244.0,0.08071265949561734
3243.0,0.08060807322614072
3242.0,0.08045124103115198
3241.0,0.08029446545087904
3240.0,0.08008551934056851
3239.0,0.07987667370927598
3238.0,0.07961575782164254
3237.0,0.0794071379151915
3236.0,0.07919861817434581
3235.0,0.07893810920972144
3234.0,0.07867775641617802
3233.0,0.07841755960658348
3232.0,0.0781575185941421
3231.0,0.07784567476894111
3230.0,0.07763790321520991
3229.0,0.07743023101428781
3228.0,0.07727454200674
3227.0,0.07706704344478843
3226.0,0.07685964397479927
3225.0,0.07660053384128362
3224.0,0.07628980560343712
3223.0,0.07608277688689435
3222.0,0.07587584681417514
3221.0,0.07566901529132153
3220.0,0.07546228222451012
3219.0,0.07525564752005143
3218.0,0.07494587968815725
3217.0,0.07458476291575367
3216.0,0.07427547306393745
3215.0,0.07391491307485598
3214.0,0.07365755337434488
3213.0,0.07334892291111106
3212.0,0.07304051161972436
3211.0,0.07273231918911849
3210.0,0.07242434530888953
3209.0,0.07211658966929302
3208.0,0.07186029312488018
3207.0,0.07170658776779781
3206.0,0.07145053299833615
3205.0,0.07124579782334672
3204.0,0.07093887591523451
3203.0,0.07068327324650436
3202.0,0.07037674848475972
3201.0,0.07012147634321675
3200.0,0.06981534770138009
3199.0,0.06950943469373039
3198.0,0.0692037370166998
3197.0,0.06894915322260897
3196.0,0.06869471857832687
3195.0,0.0684912781333824
3194.0,0.06828793294324442
3193.0,0.0680846829187538
3192.0,0.0678307540792078
3191.0,0.0675769736232612
3190.0,0.06722192993944942
3189.0,0.06691783763020887
3188.0,0.06656333217371957
3187.0,0.06625970050306473
3186.0,0.0659562809644747
3185.0,0.06565307326174441
3184.0,0.0654005617819271
3183.0,0.06509774167768612
3182.0,0.06484555278383164
3181.0,0.06454311928839007
3180.0,0.06424089625468832
3179.0,0.06398920428479049
3178.0,0.06378795567975115
3177.0,0.06358680028852026
3176.0,0.06338573802478864
3175.0,0.06313454102437754
3174.0,0.06283329628496737
3173.0,0.06253226035662252
3172.0,0.062281556382736136
3171.0,0.06208109735221967
3170.0,0.061880730805688344
3169.0,0.061680456657844385
3168.0,0.06143024377893891
3167.0,0.0611301784870133
3166.0,0.060880282351513104
3165.0,0.06063052992534024
3164.0,0.06038092104330195
3163.0,0.060131455540490375
3162.0,0.05988213325228142
3161.0,0.05963295401433477
3160.0,0.05943371350990989
3159.0,0.05923456436878238
3158.0,0.05898575629443026
3157.0,0.058737090681050264
3156.0,0.05848856736559682
3155.0,0.05824018618530458
3154.0,0.05799194697768684
3153.0,0.05769424710410598
3152.0,0.05744631966579017
3151.0,0.0571489934456626
3150.0,0.056950888991593285
3149.0,0.05680236993107379
3148.0,0.05660442349104544
3147.0,0.05635711724787096
3146.0,0.05606053552778367
3145.0,0.055764156206519866
3144.0,0.05551732784983132
3143.0,0.05536929814372171
3142.0,0.055172003656783764
3141.0,0.0549747987575373
3140.0,0.05477768336465916
3139.0,0.05462990550969615
3138.0,0.05448217792216048
3137.0,0.05438372077326825
3136.0,0.05428528594013993
3135.0,0.054088483180726676
3134.0,0.05394093961487645
3133.0,0.05374429280060267
3132.0,0.053596866100945384
3131.0,0.053449489430144714
3130.0,0.05330216275425803
3129.0,0.05310580489767336
3128.0,0.05290953578037816
3127.0,0.052762392129333646
3126.0,0.05256627811294923
3125.0,0.052419250695677544
3124.0,0.05222329153526162
3123.0,0.05207638016827354
3122.0,0.05192951848105887
3121.0,0.05178270644002936
3120.0,0.05163594401163074
3119.0,0.05148923116234294
3118.0,0.05129369109514803
3117.0,0.05114709380028648
3116.0,0.05100054597304693
3115.0,0.05085404758005607
3114.0,0.05075640943173498
3113.0,0.05065879322950262
3112.0,0.05056119896349576
3111.0,0.05051241005349638
3110.0,0.050414848673348
3109.0,0.05036607620073763
3108.0,0.050317309204795935
3107.0,0.05026854768429301
3106.0,0.050171041064686284
3105.0,0.05002482217034632
3104.0,0.04987865248862655
3103.0,0.04978123335813667
3102.0,0.04963514562387683
3101.0,0.04948910701400333
3100.0,0.04934311749548925
3099.0,0.049148541111453614
3098.0,0.048954051864180226
3097.0,0.04866248120408234
3096.0,0.048468209457651845
3095.0,0.04827402457540786
3094.0,0.04807992647970649
3093.0,0.047934409814949674
3092.0,0.0478374257855374
3091.0,0.04774046340917959
3090.0,0.047691990337874746
3089.0,0.047595060422975566
3088.0,0.047595060422975566
3087.0,0.04754660357696672
3086.0,0.04754660357696672
3085.0,0.04749815213697639
3084.0,0.04749815213697639
3083.0,0.04744970610179822
3082.0,0.04740126547022694
3081.0,0.04730440041308315
3080.0,0.04715914332429838
3079.0,0.04701393480294458
3078.0,0.0469171560879138
3077.0,0.04682039893436585
3076.0,0.04667530361081473
3075.0,0.04657860031896477
3074.0,0.046481918555007384
3073.0,0.04643358574299339
3072.0,0.04633693625290869
3071.0,0.04624030826677128
3070.0,0.04609540658654021
3069.0,0.045902279520810385
3068.0,0.04575749056067524
3067.0,0.045612749855485024
3066.0,0.045516282844447975
3065.0,0.04537162249272897
3064.0,0.04522701031028298
3063.0,0.04508244626504121
3062.0,0.044937930324967956
3061.0,0.04484161307420642
3060.0,0.044793462458058375
3059.0,0.044793462458058375
3058.0,0.04484161307420642
3057.0,0.04484161307420642
3056.0,0.044793462458058375
3055.0,0.04464904263234004
3054.0,0.044456557540257124
3053.0,0.04421607108308856
3052.0,0.0439276630048171
3051.0,0.04363944632667782
3050.0,0.0433514207947967
3049.0,0.042967683653061695
3048.0,0.04253638427006878
3047.0,0.04210551278710151
3046.0,0.04172287445230238
3045.0,0.041340572947066834
3044.0,0.04105406750606355
3043.0,0.04081545726880842
3042.0,0.04057697805689475
3041.0,0.04038628892895613
3040.0,0.04019568349166214
3039.0,0.040005161671583744
3038.0,0.03986232513620536
3037.0,0.039767126871487646
3036.0,0.039719535563357944
3035.0,0.03962436858984186
3034.0,0.03952922246570112
3033.0,0.03943409718180235
3032.0,0.039338992729018196
3031.0,0.03924390909822728
3030.0,0.03914884628031379
3029.0,0.03910132267333921
3028.0,0.039006291057664066
3027.0,0.038958783046687984
3026.0,0.03886378261277468
3025.0,0.03876880295533702
3024.0,0.03876880295533702
3023.0,0.03876880295533702
3022.0,0.038816290187564384
3021.0,0.038911280232103884
3020.0,0.038911280232103884
3019.0,0.038958783046687984
3018.0,0.039006291057664066
3017.0,0.03905380426616856
3016.0,0.03910132267333921
3015.0,0.03924390909822728
3014.0,0.03938654235209116
3013.0,0.03948165721929198
3012.0,0.03962436858984186
3011.0,0.03967194946985697
3010.0,0.039719535563357944
3009.0,0.039767126871487646
3008.0,0.039767126871487646
3007.0,0.03981472339538916
3006.0,0.03986232513620536
3005.0,0.03995754427315856
3004.0,0.0400527842915015
3003.0,0.04019568349166214
3002.0,0.0402909757535701
3001.0,0.04038628892895613
3000.0,0.04043395336207234
2999.0,0.04043395336207234
2998.0,0.040481623027001756
2997.0,0.040529297924893015
2996.0,0.04062466342415694
2995.0,0.04076775094900409
2994.0,0.04086316882962593
2993.0,0.041006334969674096
2992.0,0.041149548320321694
2991.0,0.04129280891271536
2990.0,0.041483896576958834
2989.0,0.04167506835594681
2988.0,0.04186632432376469
2987.0,0.042057664554595586
2986.0,0.04224908912272074
2985.0,0.04244059810252043
2984.0,0.04263219156847242
2983.0,0.04287180232318688
2982.0,0.04315950984076644
2981.0,0.04344740808260106
2980.0,0.0437835307566099
2979.0,0.044167989767578186
2978.0,0.04455278942230456
2977.0,0.044937930324967956
2976.0,0.045323413081356456
2975.0,0.04570923829887308
2974.0,0.04599883231842972
2973.0,0.04638525830935958
2972.0,0.04686877481655505
2971.0,0.04740126547022694
2970.0,0.047934409814949674
2969.0,0.04841965509660828
2968.0,0.04885683989244738
2967.0,0.049294465226138895
2966.0,0.04968383607539972
2965.0,0.050073556332087765
2964.0,0.050463626623857394
2963.0,0.050805225762017736
2962.0,0.05114709380028648
2961.0,0.05144033789103841
2960.0,0.05163594401163074
2959.0,0.05178270644002936
2958.0,0.0518316382728683
2957.0,0.051684859310652254
2956.0,0.05139145012356372
2955.0,0.051049389754451946
2954.0,0.050707598587974356
2953.0,0.05026854768429301
2952.0,0.04978123335813667
2951.0,0.049245818406496555
2950.0,0.04866248120408234
2949.0,0.04803141550708934
2948.0,0.047352830241056854
2947.0,0.04657860031896477
2946.0,0.04585401117045196
2945.0,0.04503426894157925
2944.0,0.044312249686494276
2943.0,0.04363944632667782
2942.0,0.04301563225723992
2941.0,0.04244059810252043
2940.0,0.04186632432376469
2939.0,0.04129280891271536
2938.0,0.04072004986906119
2937.0,0.040243327009005014
2936.0,0.03986232513620536
2935.0,0.03957679292217042
2934.0,0.039338992729018196
2933.0,0.03905380426616856
2932.0,0.03876880295533702
2931.0,0.038531444649213764
2930.0,0.03829421599749461
2929.0,0.038151940981675736
2928.0,0.038057116858612794
2927.0,0.03796231343498735
2926.0,0.03782014709123227
2925.0,0.03772539537668518
2924.0,0.03763066432997886
2923.0,0.03753595394209874
2922.0,0.03744126420403626
2921.0,0.037346595106788616
2920.0,0.037251946641359446
2919.0,0.0371100126082089
2918.0,0.03701541568300293
2917.0,0.0369681249461018
2916.0,0.0369681249461018
2915.0,0.03701541568300293
2914.0,0.037062711569998186
2913.0,0.03701541568300293
2912.0,0.0369681249461018
2911.0,0.03692083935817303
2910.0,0.03692083935817303
2909.0,0.03692083935817303
2908.0,0.03701541568300293
2907.0,0.03701541568300293
2906.0,0.03701541568300293
2905.0,0.0369681249461018
2904.0,0.03692083935817303
2903.0,0.036873558918095295
2902.0,0.036873558918095295
2901.0,0.036873558918095295
2900.0,0.036873558918095295
2899.0,0.03692083935817303
2898.0,0.03692083935817303
2897.0,0.03701541568300293
2896.0,0.037062711569998186
2895.0,0.0371573187987575
2894.0,0.037251946641359446
2893.0,0.037299268295658994
2892.0,0.037299268295658994
2891.0,0.037346595106788616
2890.0,0.037299268295658994
2889.0,0.037251946641359446
2888.0,0.0371573187987575
2887.0,0.03701541568300293
2886.0,0.03692083935817303
2885.0,0.03682628362474838
2884.0,0.036731748473764814
2883.0,0.03663723389626394
2882.0,0.03649550058570927
2881.0,0.03630659476198117
2880.0,0.036117771071222604
2879.0,0.03597620715996652
2878.0,0.03578752703018084
2877.0,0.03559892883726867
2876.0,0.03541041251009669
2875.0,0.03522197797762394
2874.0,0.03512779136222477
2873.0,0.03503362516890207
2872.0,0.03498654972775217
2871.0,0.03498654972775217
2870.0,0.03498654972775217
2869.0,0.0349394793888016
2868.0,0.03489241415094413
2867.0,0.03479829897408804
2866.0,0.03470420418834386
2865.0,0.03456310022373987
2864.0,0.034469056377139484
2863.0,0.03442204208947208
2862.0,0.03437503289075727
2861.0,0.03432802877989327
2860.0,0.03428102975577918
2859.0,0.03423403581731388
2858.0,0.034187046963396917
2857.0,0.03409308450480819
2856.0,0.03399914237121604
2855.0,0.03385826726096752
2854.0,0.03376437590141812
2853.0,0.03367050483612166
2852.0,0.03352973627071565
2851.0,0.03334211579824231
2850.0,0.03310770413286357
2849.0,0.032920265855503006
2848.0,0.032686081712916426
2847.0,0.03245202378113787
2846.0,0.03226486821611996
2845.0,0.03207779326948268
2844.0,0.031984286006358165
2843.0,0.03189079887180224
2842.0,0.03175060589208267
2841.0,0.03161045815293173
2840.0,0.03142366482450232
2839.0,0.03128362253321426
2838.0,0.031190286087141805
2837.0,0.031096969696171817
2836.0,0.031003673351687855
2835.0,0.030910397045078586
2834.0,0.030770520137356927
2833.0,0.03067729388779794
2832.0,0.03063068826647264
2831.0,0.03058408764601861
2830.0,0.030537492025363155
2829.0,0.030444315779156517
2828.0,0.030397735151460825
2827.0,0.03030458888152676
2826.0,0.03025802323714588
2825.0,0.030211462585061133
2824.0,0.030118356253500123
2823.0,0.030071810571884017
2822.0,0.029978734171634214
2821.0,0.029932203450862893
2820.0,0.029932203450862893
2819.0,0.029932203450862893
2818.0,0.029885677714903025
2817.0,0.029792641193145286
2816.0,0.029746130405213123
2815.0,0.029746130405213123
2814.0,0.02969962459782227
2813.0,0.029653123769906697
2812.0,0.029560137048236124
2811.0,0.029513651152349718
2810.0,0.029467170231675777
2809.0,0.02942069428514915
2808.0,0.02942069428514915
2807.0,0.02942069428514915
2806.0,0.02942069428514915
2805.0,0.029374223311705583
2804.0,0.029374223311705583
2803.0,0.029281296279810798
2802.0,0.029234840219232394
2801.0,0.029141943003497595
2800.0,0.02904906565457588
2799.0,0.029002634427514717
2798.0,0.028956208163971375
2797.0,0.02890978686288448
2796.0,0.028863370523193765
2795.0,0.028863370523193765
2794.0,0.028816959143838528
2793.0,0.028816959143838528
2792.0,0.028770552723758724
2791.0,0.028677754757187035
2790.0,0.02863136320857662
2789.0,0.02858497661500481
2788.0,0.02858497661500481
2787.0,0.02858497661500481
2786.0,0.028538594975413334
2785.0,0.028445846553939003
2784.0,0.02839947976994095
2783.0,0.028306761050139073
2782.0,0.02826040911222183
2781.0,0.028214062120885508
2780.0,0.028214062120885508
2779.0,0.028214062120885508
2778.0,0.028167720075074953
2777.0,0.028167720075074953
2776.0,0.028167720075074953
2775.0,0.028167720075074953
2774.0,0.028167720075074953
2773.0,0.02812138297373412
2772.0,0.028075050815808744
2771.0,0.028075050815808744
2770.0,0.028028723600243666
2769.0,0.028028723600243666
2768.0,0.02798240132598462
2767.0,0.027889771597169544
2766.0,0.027843464140506313
2765.0,0.027797161620935595
2764.0,0.027797161620935595
2763.0,0.027843464140506313
2762.0,0.027797161620935595
2761.0,0.027750864037404455
2760.0,0.027750864037404455
2759.0,0.027750864037404455
2758.0,0.027750864037404455
2757.0,0.027750864037404455
2756.0,0.0277045713888604
2755.0,0.027658283674251827
2754.0,0.027612000892527133
2753.0,0.027612000892527133
2752.0,0.027658283674251827
2751.0,0.027658283674251827
2750.0,0.027658283674251827
2749.0,0.027612000892527133
2748.0,0.02751945012352408
2747.0,0.02747318213414429
2746.0,0.027426919073445077
2745.0,0.027426919073445077
2744.0,0.02738066094037661
2743.0,0.02738066094037661
2742.0,0.027334407733889066
2741.0,0.02724191609646076
2740.0,0.027195677663422346
2739.0,0.027149444152769986
2738.0,0.027149444152769986
2737.0,0.027149444152769986
2736.0,0.027149444152769986
2735.0,0.027149444152769986
2734.0,0.027149444152769986
2733.0,0.027056991894431892
2732.0,0.02696455931306696
2731.0,0.026872146400301444
2730.0,0.02677975314776626
2729.0,0.026687379547098322
2728.0,0.02664120011360227
2727.0,0.02664120011360227
2726.0,0.02664120011360227
2725.0,0.026687379547098322
2724.0,0.026733563891471412
2723.0,0.026733563891471412
2722.0,0.026687379547098322
2721.0,0.02664120011360227
2720.0,0.026595025589939425
2719.0,0.026595025589939425
2718.0,0.026595025589939425
2717.0,0.02654885597506529
2716.0,0.026502691267936695
2715.0,0.026456531467510258
2714.0,0.026456531467510258
2713.0,0.026410376572743033
2712.0,0.026410376572743033
2711.0,0.026318081496016443
2710.0,0.026271941311972746
2709.0,0.02617967564731627
2708.0,0.02613355016462182
2707.0,0.026087429580295085
2706.0,0.026087429580295085
2705.0,0.026087429580295085
2704.0,0.026087429580295085
2703.0,0.026041313893296225
2702.0,0.025995203102585407
2701.0,0.025995203102585407
2700.0,0.025995203102585407
2699.0,0.026041313893296225
2698.0,0.025995203102585407
2697.0,0.025902996205869
2696.0,0.025764722556973707
2695.0,0.025672564576383117
2694.0,0.02562649291857677
2693.0,0.025672564576383117
2692.0,0.025718641122169483
2691.0,0.025764722556973707
2690.0,0.025764722556973707
2689.0,0.025672564576383117
2688.0,0.02562649291857677
2687.0,0.02558042614771394
2686.0,0.02553436426275746
2685.0,0.02553436426275746
2684.0,0.02553436426275746
2683.0,0.02558042614771394
2682.0,0.02562649291857677
2681.0,0.02562649291857677
2680.0,0.02562649291857677
2679.0,0.02562649291857677
2678.0,0.02562649291857677
2677.0,0.02558042614771394
2676.0,0.02553436426275746
2675.0,0.025488307262671706
2674.0,0.02553436426275746
2673.0,0.02558042614771394
2672.0,0.02562649291857677
2671.0,0.02562649291857677
2670.0,0.02558042614771394
2669.0,0.02553436426275746
2668.0,0.025488307262671706
2667.0,0.02544225514642018
2666.0,0.02544225514642018
2665.0,0.02539620791296726
2664.0,0.025350165561278004
2663.0,0.025304128090317013
2662.0,0.025258095499050004
2661.0,0.02521206778644225
2660.0,0.02512002699306959
2659.0,0.025074013910237447
2658.0,0.025074013910237447
2657.0,0.025074013910237447
2656.0,0.025074013910237447
2655.0,0.025074013910237447
2654.0,0.02512002699306959
2653.0,0.02516604495145991
2652.0,0.02516604495145991
2651.0,0.02516604495145991
2650.0,0.02512002699306959
2649.0,0.025074013910237447
2648.0,0.025028005701930978
2647.0,0.025028005701930978
2646.0,0.025028005701930978
2645.0,0.025074013910237447
2644.0,0.025074013910237447
2643.0,0.025074013910237447
2642.0,0.025074013910237447
2641.0,0.025074013910237447
2640.0,0.025074013910237447
2639.0,0.025074013910237447
2638.0,0.025074013910237447
2637.0,0.025074013910237447
2636.0,0.02512002699306959
2635.0,0.02516604495145991
2634.0,0.02521206778644225
2633.0,0.025258095499050004
2632.0,0.025258095499050004
2631.0,0.025304128090317013
2630.0,0.025258095499050004
2629.0,0.02521206778644225
2628.0,0.02512002699306959
2627.0,0.025074013910237447
2626.0,0.025074013910237447
2625.0,0.025074013910237447
2624.0,0.02512002699306959
2623.0,0.02516604495145991
2622.0,0.02516604495145991
2621.0,0.02516604495145991
2620.0,0.02516604495145991
2619.0,0.02516604495145991
2618.0,0.02512002699306959
2617.0,0.025074013910237447
2616.0,0.025028005701930978
2615.0,0.02498200236711723
2614.0,0.024936003904763915
2613.0,0.024890010313838973
2612.0,0.02484402159331056
2611.0,0.024890010313838973
2610.0,0.024936003904763915
2609.0,0.02498200236711723
2608.0,0.02498200236711723
2607.0,0.024936003904763915
2606.0,0.024890010313838973
2605.0,0.02484402159331056
2604.0,0.024798037742147727
2603.0,0.02475205875931885
2602.0,0.024706084643793647
2601.0,0.024706084643793647
2600.0,0.02475205875931885
2599.0,0.024798037742147727
2598.0,0.024798037742147727
2597.0,0.024798037742147727
2596.0,0.024798037742147727
2595.0,0.02484402159331056
2594.0,0.02484402159331056
2593.0,0.02484402159331056
2592.0,0.02484402159331056
2591.0,0.024890010313838973
2590.0,0.024936003904763915
2589.0,0.024936003904763915
2588.0,0.02498200236711723
2587.0,0.025028005701930978
2586.0,0.025074013910237447
2585.0,0.025074013910237447
2584.0,0.025074013910237447
2583.0,0.02498200236711723
2582.0,0.024890010313838973
2581.0,0.02484402159331056
2580.0,0.02484402159331056
2579.0,0.024890010313838973
2578.0,0.02484402159331056
2577.0,0.02484402159331056
2576.0,0.02484402159331056
2575.0,0.024890010313838973
2574.0,0.024936003904763915
2573.0,0.024936003904763915
2572.0,0.024936003904763915
2571.0,0.024890010313838973
2570.0,0.024798037742147727
2569.0,0.02475205875931885
2568.0,0.024798037742147727
2567.0,0.024798037742147727
2566.0,0.02484402159331056
2565.0,0.024890010313838973
2564.0,0.02484402159331056
2563.0,0.02484402159331056
2562.0,0.024798037742147727
2561.0,0.024798037742147727
2560.0,0.02475205875931885
2559.0,0.02475205875931885
2558.0,0.02475205875931885
2557.0,0.024798037742147727
2556.0,0.024798037742147727
2555.0,0.024798037742147727
2554.0,0.02484402159331056
2553.0,0.02484402159331056
2552.0,0.02484402159331056
2551.0,0.024890010313838973
2550.0,0.02484402159331056
2549.0,0.02484402159331056
2548.0,0.02484402159331056
2547.0,0.02484402159331056
2546.0,0.02484402159331056
2545.0,0.024798037742147727
2544.0,0.024798037742147727
2543.0,0.024798037742147727
2542.0,0.024798037742147727
2541.0,0.024798037742147727
2540.0,0.024798037742147727
2539.0,0.024798037742147727
2538.0,0.024798037742147727
2537.0,0.02484402159331056
2536.0,0.02484402159331056
2535.0,0.02484402159331056
2534.0,0.02484402159331056
2533.0,0.024798037742147727
2532.0,0.02475205875931885
2531.0,0.024660115394541604
2530.0,0.02461415101053266
2529.0,0.02461415101053266
2528.0,0.02461415101053266
2527.0,0.024660115394541604
2526.0,0.024660115394541604
2525.0,0.024660115394541604
2524.0,0.02461415101053266
2523.0,0.02461415101053266
2522.0,0.02461415101053266
2521.0,0.024568191490736968
2520.0,0.024568191490736968
2519.0,0.024568191490736968
2518.0,0.024568191490736968
2517.0,0.02461415101053266
2516.0,0.02461415101053266
2515.0,0.02461415101053266
2514.0,0.024522236834125355
2513.0,0.024476287039668643
2512.0,0.024476287039668643
2511.0,0.024476287039668643
2510.0,0.024476287039668643
2509.0,0.024430342106337877
2508.0,0.024338466818941473
2507.0,0.024292536462819925
2506.0,0.024292536462819925
2505.0,0.024292536462819925
2504.0,0.02438440203310499
2503.0,0.024430342106337877
2502.0,0.024476287039668643
2501.0,0.024430342106337877
2500.0,0.02438440203310499
2499.0,0.024338466818941473
2498.0,0.024292536462819925
2497.0,0.024246610963712723
2496.0,0.024200690320592466
2495.0,0.024154774532432866
2494.0,0.024108863598207186
2493.0,0.02406295751688936
2492.0,0.02406295751688936
2491.0,0.02406295751688936
2490.0,0.02406295751688936
2489.0,0.024017056287453542
2488.0,0.023971159908874107
2487.0,0.023971159908874107
2486.0,0.023971159908874107
2485.0,0.023925268380126097
2484.0,0.023925268380126097
2483.0,0.023879381700184332
2482.0,0.023833499868024743
2481.0,0.023787622882622816
2480.0,0.023741750742954926
2479.0,0.023741750742954926
2478.0,0.023741750742954926
2477.0,0.023695883447997224
2476.0,0.023695883447997224
2475.0,0.023695883447997224
2474.0,0.023695883447997224
2473.0,0.02365002099672653
2472.0,0.023604163388120325
2471.0,0.02355831062115543
2470.0,0.02351246269481
2469.0,0.02351246269481
2468.0,0.02351246269481
2467.0,0.02351246269481
2466.0,0.02351246269481
2465.0,0.02342078135989012
2464.0,0.023374947949272418
2463.0,0.023329119375188556
2462.0,0.023329119375188556
2461.0,0.023329119375188556
2460.0,0.023329119375188556
2459.0,0.023329119375188556
2458.0,0.023329119375188556
2457.0,0.023374947949272418
2456.0,0.023374947949272418
2455.0,0.023374947949272418
2454.0,0.023329119375188556
2453.0,0.023329119375188556
2452.0,0.023283295636617574
2451.0,0.023237476732539397
2450.0,0.023191662661933732
2449.0,0.02314585342378117
2448.0,0.023191662661933732
2447.0,0.023237476732539397
2446.0,0.023283295636617574
2445.0,0.023283295636617574
2444.0,0.023283295636617574
2443.0,0.023283295636617574
2442.0,0.023329119375188556
2441.0,0.023329119375188556
2440.0,0.023329119375188556
2439.0,0.023329119375188556
2438.0,0.023374947949272418
2437.0,0.02342078135989012
2436.0,0.023466619608062178
2435.0,0.02351246269481
2434.0,0.02351246269481
2433.0,0.023466619608062178
2432.0,0.023466619608062178
2431.0,0.02342078135989012
2430.0,0.02342078135989012
2429.0,0.023466619608062178
2428.0,0.02351246269481
2427.0,0.02355831062115543
2426.0,0.023604163388120325
2425.0,0.023604163388120325
2424.0,0.02355831062115543
2423.0,0.02351246269481
2422.0,0.02351246269481
2421.0,0.02351246269481
2420.0,0.023604163388120325
2419.0,0.023695883447997224
2418.0,0.023787622882622816
2417.0,0.023833499868024743
2416.0,0.023879381700184332
2415.0,0.023879381700184332
2414.0,0.023925268380126097
2413.0,0.023925268380126097
2412.0,0.023971159908874107
2411.0,0.024017056287453542
2410.0,0.024017056287453542
2409.0,0.023971159908874107
2408.0,0.023925268380126097
2407.0,0.023879381700184332
2406.0,0.023925268380126097
2405.0,0.023971159908874107
2404.0,0.024017056287453542
2403.0,0.02406295751688936
2402.0,0.024108863598207186
2401.0,0.024108863598207186
2400.0,0.02406295751688936
2399.0,0.024108863598207186
2398.0,0.024108863598207186
2397.0,0.024154774532432866
2396.0,0.024200690320592466
2395.0,0.024292536462819925
2394.0,0.024338466818941473
2393.0,0.02438440203310499
2392.0,0.02438440203310499
2391.0,0.02438440203310499
2390.0,0.024338466818941473
2389.0,0.024246610963712723
2388.0,0.024108863598207186
2387.0,0.023879381700184332
2386.0,0.02365002099672653
2385.0,0.023237476732539397
2384.0,0.022688026603074007
2383.0,0.02204787879853809
2382.0,0.021317434843055594
2381.0,0.02058821736556471
2380.0,0.019996628416253603
2379.0,0.01954210772389997
2378.0,0.019360432556262852
2377.0,0.01949668180660491
2376.0,0.019996628416253603
2375.0,0.02058821736556471
2374.0,0.0209982515252789
2373.0,0.020907099361673565
2372.0,0.02022406727031445
2371.0,0.019133445417920836
2370.0,0.017728766960431575
2369.0,0.01628352608625061
2368.0,0.01547268665620738
2367.0,0.015742798294583915
2366.0,0.017050711425501408
2365.0,0.018679826740892747
2364.0,0.020087589665283012
2363.0,0.02067930261797568
2362.0,0.02004210665933459
2361.0,0.018725167293411005
2360.0,0.017909760704207134
2359.0,0.01781925440359733
2358.0,0.017774008325325275
2357.0,0.017502630802287644
2356.0,0.017412209298337533
2355.0,0.01759307113620534
2354.0,0.01768353030793479
2353.0,0.01759307113620534
2352.0,0.017321806616515723
2351.0,0.016870075265299933
2350.0,0.016373712875465518
2349.0,0.016103208673694303
2348.0,0.016193358021584725
2347.0,0.016554142658660398
2346.0,0.016960383953898095
2345.0,0.017231422748988034
2344.0,0.017367005605150476
2343.0,0.017186237868137555
2342.0,0.016509028184833463
2341.0,0.015652742414136167
2340.0,0.015607721475734415
2339.0,0.016373712875465518
2338.0,0.01727661233145472
2337.0,0.017547848615010242
2336.0,0.017412209298337533
2335.0,0.01727661233145472
2334.0,0.017095882207371904
2333.0,0.016599261819461697
2332.0,0.016058141016111804
2331.0,0.015922966097169144
2330.0,0.01628352608625061
2329.0,0.016915227262211507
2328.0,0.017638298366853045
2327.0,0.018136109008649592
2326.0,0.018271974638383703
2325.0,0.018136109008649592
2324.0,0.017955020928509757
2323.0,0.018045555530026514
2322.0,0.018362575344230914
2321.0,0.018861217359339655
2320.0,0.019315025636685412
2319.0,0.019632973815224997
2318.0,0.019769308608968306
2317.0,0.019723858922159776
2316.0,0.019632973815224997
2315.0,0.019451260640229506
2314.0,0.019178833355664393
2313.0,0.018951941086827073
2312.0,0.018861217359339655
2311.0,0.018861217359339655
2310.0,0.018861217359339655
2309.0,0.018861217359339655
2308.0,0.01899731005860028
2307.0,0.0192242260373785
2306.0,0.019451260640229506
2305.0,0.019632973815224997
2304.0,0.019769308608968306
2303.0,0.019860222254245663
2302.0,0.019996628416253603
2301.0,0.02013307743509718
2300.0,0.02036058777709271
2299.0,0.020633757603838898
2298.0,0.020861530453190058
2297.0,0.021089422824428272
2296.0,0.02122621566987748
2295.0,0.021363051615525652
2294.0,0.0214542995372613
2293.0,0.02159120737696063
2292.0,0.021728158389364705
2291.0,0.021956506090037076
2290.0,0.0221849739168134
2289.0,0.022367834754000393
2288.0,0.02255077261765881
2287.0,0.022642270454698687
2286.0,0.02277955336461468
2285.0,0.02282532397981263
2284.0,0.02282532397981263
2283.0,0.02277955336461468
2282.0,0.022733787572707387
2281.0,0.022642270454698687
2280.0,0.022505030926963654
2279.0,0.02245929405346514
2278.0,0.022367834754000393
2277.0,0.02227639471115217
2276.0,0.022230681908425698
2275.0,0.022230681908425698
2274.0,0.0221849739168134
2273.0,0.0221849739168134
2272.0,0.022139270735302752
2271.0,0.02204787879853809
2270.0,0.021956506090037076
2269.0,0.021910826943857264
2268.0,0.021865152601710403
2267.0,0.021865152601710403
2266.0,0.021910826943857264
2265.0,0.021910826943857264
2264.0,0.021956506090037076
2263.0,0.02200219004126036
2262.0,0.02200219004126036
2261.0,0.021956506090037076
2260.0,0.021956506090037076
2259.0,0.02200219004126036
2258.0,0.02204787879853809
2257.0,0.022093572362881675
2256.0,0.022093572362881675
2255.0,0.022139270735302752
2254.0,0.022139270735302752
2253.0,0.022093572362881675
2252.0,0.022093572362881675
2251.0,0.02204787879853809
2250.0,0.02204787879853809
2249.0,0.02200219004126036
2248.0,0.02200219004126036
2247.0,0.02204787879853809
2246.0,0.02204787879853809
2245.0,0.02204787879853809
2244.0,0.02200219004126036
2243.0,0.02200219004126036
2242.0,0.021956506090037076
2241.0,0.021910826943857264
2240.0,0.021865152601710403
2239.0,0.021773818325474092
2238.0,0.021773818325474092
2237.0,0.021728158389364705
2236.0,0.021728158389364705
2235.0,0.021728158389364705
2234.0,0.021773818325474092
2233.0,0.021728158389364705
2232.0,0.02168250325324883
2231.0,0.021636852916117055
2230.0,0.02159120737696063
2229.0,0.021545566634771474
2228.0,0.02159120737696063
2227.0,0.021636852916117055
2226.0,0.02168250325324883
2225.0,0.02168250325324883
2224.0,0.02159120737696063
2223.0,0.021545566634771474
2222.0,0.021499930688540836
2221.0,0.021499930688540836
2220.0,0.0214542995372613
2219.0,0.02140867317992523
2218.0,0.021363051615525652
2217.0,0.021317434843055594
2216.0,0.021317434843055594
2215.0,0.021363051615525652
2214.0,0.02140867317992523
2213.0,0.02140867317992523
2212.0,0.02140867317992523
2211.0,0.02140867317992523
2210.0,0.0214542995372613
2209.0,0.02140867317992523
2208.0,0.021317434843055594
2207.0,0.02122621566987748
2206.0,0.0211806132671577
2205.0,0.021089422824428272
2204.0,0.021089422824428272
2203.0,0.021043834782408455
2202.0,0.0209982515252789
2201.0,0.0209982515252789
2200.0,0.020952673052035298
2199.0,0.020952673052035298
2198.0,0.020907099361673565
2197.0,0.02081596632558158
2196.0,0.020770406977844713
2195.0,0.020724852408976924
2194.0,0.02067930261797568
2193.0,0.020633757603838898
2192.0,0.02058821736556471
2191.0,0.020542681902151694
2190.0,0.020542681902151694
2189.0,0.020542681902151694
2188.0,0.02058821736556471
2187.0,0.020633757603838898
2186.0,0.02067930261797568
2185.0,0.020724852408976924
2184.0,0.020724852408976924
2183.0,0.020724852408976924
2182.0,0.020724852408976924
2181.0,0.020724852408976924
2180.0,0.020724852408976924
2179.0,0.020724852408976924
2178.0,0.02067930261797568
2177.0,0.020633757603838898
2176.0,0.020542681902151694
2175.0,0.020497151212598652
2174.0,0.020497151212598652
2173.0,0.020542681902151694
2172.0,0.02058821736556471
2171.0,0.020633757603838898
2170.0,0.02067930261797568
2169.0,0.02067930261797568
2168.0,0.02067930261797568
2167.0,0.020633757603838898
2166.0,0.020633757603838898
2165.0,0.020633757603838898
2164.0,0.020633757603838898
2163.0,0.020633757603838898
2162.0,0.020633757603838898
2161.0,0.020633757603838898
2160.0,0.020633757603838898
2159.0,0.02067930261797568
2158.0,0.020724852408976924
2157.0,0.020724852408976924
2156.0,0.020724852408976924
2155.0,0.020770406977844713
2154.0,0.020770406977844713
2153.0,0.020724852408976924
2152.0,0.02067930261797568
2151.0,0.020724852408976924
2150.0,0.020770406977844713
2149.0,0.02081596632558158
2148.0,0.020861530453190058
2147.0,0.020861530453190058
2146.0,0.020861530453190058
2145.0,0.02081596632558158
2144.0,0.02081596632558158
2143.0,0.02081596632558158
2142.0,0.02081596632558158
2141.0,0.02081596632558158
2140.0,0.020861530453190058
2139.0,0.020861530453190058
2138.0,0.020861530453190058
2137.0,0.020861530453190058
2136.0,0.020861530453190058
2135.0,0.02081596632558158
2134.0,0.02081596632558158
2133.0,0.02081596632558158
2132.0,0.020770406977844713
2131.0,0.020770406977844713
2130.0,0.020724852408976924
2129.0,0.020724852408976924
2128.0,0.020724852408976924
2127.0,0.020770406977844713
2126.0,0.02081596632558158
2125.0,0.02081596632558158
2124.0,0.02081596632558158
2123.0,0.02081596632558158
2122.0,0.02081596632558158
2121.0,0.020770406977844713
2120.0,0.020724852408976924
2119.0,0.02067930261797568
2118.0,0.02067930261797568
2117.0,0.020633757603838898
2116.0,0.02058821736556471
2115.0,0.02058821736556471
2114.0,0.02058821736556471
2113.0,0.020633757603838898
2112.0,0.02067930261797568
2111.0,0.02067930261797568
2110.0,0.020633757603838898
2109.0,0.020542681902151694
2108.0,0.020497151212598652
2107.0,0.020497151212598652
2106.0,0.020497151212598652
2105.0,0.020497151212598652
2104.0,0.020497151212598652
2103.0,0.020497151212598652
2102.0,0.02045162529590483
2101.0,0.02036058777709271
2100.0,0.020315076172974234
2099.0,0.02026956933771462
2098.0,0.02022406727031445
2097.0,0.02022406727031445
2096.0,0.020178569969774962
2095.0,0.020178569969774962
2094.0,0.020178569969774962
2093.0,0.02013307743509718
2092.0,0.02013307743509718
2091.0,0.020087589665283012
2090.0,0.019996628416253603
2089.0,0.01990568621470623
2088.0,0.019860222254245663
2087.0,0.019814763052665052
2086.0,0.019769308608968306
2085.0,0.019678413991243593
2084.0,0.019678413991243593
2083.0,0.019678413991243593
2082.0,0.019678413991243593
2081.0,0.019678413991243593
2080.0,0.01958753839310856
2079.0,0.01949668180660491
2078.0,0.019451260640229506
2077.0,0.019360432556262852
2076.0,0.019269623464054586
2075.0,0.0192242260373785
2074.0,0.019178833355664393
2073.0,0.0190880622231564
2072.0,0.019042683770379876
2071.0,0.01899731005860028
2070.0,0.01899731005860028
2069.0,0.018951941086827073
2068.0,0.018906576854070378
2067.0,0.018861217359339655
2066.0,0.018815862601645694
2065.0,0.018725167293411005
2064.0,0.018679826740892747
2063.0,0.01858915983411169
2062.0,0.018543833477873584
2061.0,0.018498511851753108
2060.0,0.01840788278591865
2059.0,0.018271974638383703
2058.0,0.018136109008649592
2057.0,0.01800028587012159
2056.0,0.017955020928509757
2055.0,0.017909760704207134
2054.0,0.017909760704207134
2053.0,0.017864505196230507
2052.0,0.017864505196230507
2051.0,0.01781925440359733
2050.0,0.017774008325325275
2049.0,0.01768353030793479
2048.0,0.017638298366853045
2047.0,0.01759307113620534
2046.0,0.017547848615010242
2045.0,0.017502630802287644
2044.0,0.017457417697056554
2043.0,0.017457417697056554
2042.0,0.017412209298337533
2041.0,0.017367005605150476
2040.0,0.017321806616515723
2039.0,0.01727661233145472
2038.0,0.01727661233145472
2037.0,0.017231422748988034
2036.0,0.017186237868137555
2035.0,0.017095882207371904
2034.0,0.017050711425501408
2033.0,0.017005545341335804
2032.0,0.016960383953898095
2031.0,0.016915227262211507
2030.0,0.016915227262211507
2029.0,0.016870075265299933
2028.0,0.016915227262211507
2027.0,0.016915227262211507
2026.0,0.016915227262211507
2025.0,0.016915227262211507
2024.0,0.016870075265299933
2023.0,0.016870075265299933
2022.0,0.016870075265299933
2021.0,0.016824927962187042
2020.0,0.01677978535189717
2019.0,0.01677978535189717
2018.0,0.016824927962187042
2017.0,0.01677978535189717
2016.0,0.016734647433454652
2015.0,0.016689514205884493
2014.0,0.016599261819461697
2013.0,0.016554142658660398
2012.0,0.016599261819461697
2011.0,0.016644385668211692
2010.0,0.016734647433454652
2009.0,0.016734647433454652
2008.0,0.016734647433454652
2007.0,0.016689514205884493
2006.0,0.016689514205884493
2005.0,0.016644385668211692
2004.0,0.016644385668211692
2003.0,0.016689514205884493
2002.0,0.016734647433454652
2001.0,0.016734647433454652
2000.0,0.01677978535189717
1999.0,0.016870075265299933
1998.0,0.016960383953898095
1997.0,0.017005545341335804
1996.0,0.017050711425501408
1995.0,0.017141057687924732
1994.0,0.017231422748988034
1993.0,0.01727661233145472
1992.0,0.017321806616515723
1991.0,0.017321806616515723
1990.0,0.017321806616515723
1989.0,0.01727661233145472
1988.0,0.017231422748988034
1987.0,0.017186237868137555
1986.0,0.017186237868137555
1985.0,0.017141057687924732
1984.0,0.017095882207371904
1983.0,0.017095882207371904
1982.0,0.017095882207371904
1981.0,0.017141057687924732
1980.0,0.017186237868137555
1979.0,0.017231422748988034
1978.0,0.01727661233145472
1977.0,0.01727661233145472
1976.0,0.017321806616515723
1975.0,0.017412209298337533
1974.0,0.017412209298337533
1973.0,0.017412209298337533
1972.0,0.017412209298337533
1971.0,0.017412209298337533
1970.0,0.017502630802287644
1969.0,0.017547848615010242
1968.0,0.017638298366853045
1967.0,0.01768353030793479
1966.0,0.017728766960431575
1965.0,0.017774008325325275
1964.0,0.017864505196230507
1963.0,0.01800028587012159
1962.0,0.018136109008649592
1961.0,0.018226681372252695
1960.0,0.01831727262871463
1959.0,0.01840788278591865
1958.0,0.018543833477873584
1957.0,0.018634490921455527
1956.0,0.018679826740892747
1955.0,0.018770512579999288
1954.0,0.018815862601645694
1953.0,0.018815862601645694
1952.0,0.018861217359339655
1951.0,0.018906576854070378
1950.0,0.018951941086827073
1949.0,0.018906576854070378
1948.0,0.018861217359339655
1947.0,0.018861217359339655
1946.0,0.018815862601645694
1945.0,0.018770512579999288
1944.0,0.018679826740892747
1943.0,0.018498511851753108
1942.0,0.018271974638383703
1941.0,0.017955020928509757
1940.0,0.01768353030793479
1939.0,0.017457417697056554
1938.0,0.01727661233145472
1937.0,0.017095882207371904
1936.0,0.016915227262211507
1935.0,0.016734647433454652
1934.0,0.016599261819461697
1933.0,0.016418813294209356
1932.0,0.016238439713835096
1931.0,0.016103208673694303
1930.0,0.015922966097169144
1929.0,0.015742798294583915
1928.0,0.015562705203923999
1927.0,0.015427684378367834
1926.0,0.015337693809893471
1925.0,0.015292705517326866
1924.0,0.015202742910707112
1923.0,0.015067833932588037
1922.0,0.014888020460646079
1921.0,0.014708281407112
1920.0,0.014573525916998342
1919.0,0.014438812226654996
1918.0,0.014259258949925524
1917.0,0.014124642691606404
1916.0,0.013945219230304673
1915.0,0.01385553528947936
1914.0,0.013765869865004277
1913.0,0.013676222949234651
1912.0,0.013586594534531482
1911.0,0.013541787262693505
1910.0,0.013452186585275916
1909.0,0.013317820220494436
1908.0,0.013138729709955221
1907.0,0.013004460275618523
1906.0,0.012870232340102872
1905.0,0.012691326268817527
1904.0,0.01260190086298274
1903.0,0.012512493866907004
1902.0,0.012423105273012602
1901.0,0.012289056869694281
1900.0,0.012110390002254778
1899.0,0.012021084124518078
1898.0,0.011931796607364653
1897.0,0.011797899741219142
1896.0,0.011664044143949504
1895.0,0.011574829993696856
1894.0,0.011441043121384498
1893.0,0.011307297450183107
1892.0,0.011218156546359825
1891.0,0.011129033935354915
1890.0,0.010995384301463185
1889.0,0.01077272626946324
1888.0,0.010594681998483901
1887.0,0.01046119667949763
1886.0,0.010327752376126709
1885.0,0.010149890396819572
1884.0,0.01001654169860089
1883.0,0.009927665307847056
1882.0,0.009883233932095559
1881.0,0.009794384815193347
1880.0,0.009705553871561357
1879.0,0.009616741093766423
1878.0,0.009527946474380489
1877.0,0.009439170005980158
1876.0,0.00939478857608056
1875.0,0.00939478857608056
1874.0,0.009350411681145587
1873.0,0.009261671492462709
1872.0,0.009172949432521227
1871.0,0.009172949432521227
1870.0,0.00908424549391551
1869.0,0.008995559669244813
1868.0,0.008906891951112605
1867.0,0.008818242332126802
1866.0,0.008685301823389224
1865.0,0.008552401996197112
1864.0,0.008419542825660153
1863.0,0.008375265465994541
1862.0,0.008330992620051436
1861.0,0.008286724286910463
1860.0,0.008242460465651913
1859.0,0.008198201155356077
1858.0,0.008109696063975047
1857.0,0.008021209005416363
1856.0,0.007976972236149349
1855.0,0.007976972236149349
1854.0,0.007976972236149349
1853.0,0.007976972236149349
1852.0,0.008021209005416363
1851.0,0.008109696063975047
1850.0,0.008242460465651913
1849.0,0.008242460465651913
1848.0,0.008286724286910463
1847.0,0.008286724286910463
1846.0,0.008286724286910463
1845.0,0.008198201155356077
1844.0,0.008109696063975047
1843.0,0.008153946355103248
1842.0,0.008198201155356077
1841.0,0.008242460465651913
1840.0,0.008286724286910463
1839.0,0.008330992620051436
1838.0,0.008330992620051436
1837.0,0.008286724286910463
1836.0,0.008198201155356077
1835.0,0.008198201155356077
1834.0,0.008286724286910463
1833.0,0.008375265465994541
1832.0,0.008552401996197112
1831.0,0.008685301823389224
1830.0,0.008685301823389224
1829.0,0.008596697419959609
1828.0,0.00850811108984062
1827.0,0.008552401996197112
1826.0,0.008596697419959609
1825.0,0.008463824699968647
1824.0,0.008242460465651913
1823.0,0.008109696063975047
1822.0,0.007976972236149349
1821.0,0.007800070204414977
1820.0,0.0075790439479759275
1819.0,0.0074464821678643656
1818.0,0.007313960837872058
1817.0,0.007181479933320523
1816.0,0.007004901568658406
1815.0,0.00696076819309055
1814.0,0.006872514894289861
1813.0,0.006784279525863024
1812.0,0.006651960076740071
1811.0,0.006475596832934416
1810.0,0.00625524344553785
1809.0,0.005946936412324799
1808.0,0.005638848091999105
1807.0,0.00541891874010525
1806.0,0.0052870145684298375
1805.0,0.005155150446602086
1804.0,0.005067263269958211
1803.0,0.005023326350308999
1802.0,0.004935465843858511
1801.0,0.004671990922590297
1800.0,0.0043648054024501
1799.0,0.004145520125434121
1798.0,0.00401400208620073
1797.0,0.003794893821675638
1796.0,0.0035758960449088217
1795.0,0.0034445503666347133
1794.0,0.0033132443998284966
1793.0,0.0030070181092942683
1792.0,0.0026573093983774942
1791.0,0.002395212539545666
1790.0,0.0022205691343961664
1789.0,0.0020459959305969555
1788.0,0.001915112063444413
1787.0,0.001915112063444413
1786.0,0.0017842676290416026
1785.0,0.0015226969634936083
1784.0,0.0012612837441823288
1783.0,0.0011741809597138886
1782.0,0.0010870956412141197
1781.0,0.000869458712629001
1780.0,0.0006519307932786322
1779.0,0.000521466320689834
1778.0,0.00043451177401765406
1777.0,0.00030411258916074324
1776.0,0.00017375254558760211
1775.0,0.00021720154586435392
1774.0,0.00030411258916074324
1773.0,8.686758342868472e-05
1772.0,-0.00021709297223004853
1771.0,-0.0002604985473904087
1770.0,-0.0002604985473904087
1769.0,-0.0003472966853634851
1768.0,-0.0004774613744551459
1767.0,-0.0003906892499099257
1766.0,-8.685021164911433e-05
1765.0,0.00017375254558760211
1764.0,0.0005649501236701937
1763.0,0.0011306361176557367
1762.0,0.0016970599014589638
1761.0,0.0021332737608552588
1760.0,0.0026573093983774942
1759.0,0.0035321097382827737
1758.0,0.00458420145758498
1757.0,0.005550862985963967
1756.0,0.006607862550997545
1755.0,0.007976972236149349
1754.0,0.009572341514736404
1753.0,0.011307297450183107
1752.0,0.013631406429727155
1751.0,0.016870075265299933
1750.0,0.020770406977844713
1749.0,0.02484402159331056
1748.0,0.02942069428514915
1747.0,0.03470420418834386
1746.0,0.04057697805689475
1745.0,0.047352830241056854
1744.0,0.05531996611868961
1743.0,0.06424089625468832
1742.0,0.07365755337434488
1741.0,0.08449463824562353
1740.0,0.09783387072894878
1739.0,0.11176432672943282
1738.0,0.12297438413275108
1737.0,0.13153190097901324
1736.0,0.14122226269455074
1735.0,0.15801519540988607
1734.0,0.18157614490792118
1733.0,0.20141840527145227
1732.0,0.21552535623748348
1731.0,0.22951619056889205
1730.0,0.24557521072274135
1729.0,0.26256879948541756
1728.0,0.2788491562503159
1727.0,0.2946495371142881
1726.0,0.3109576609718283
1725.0,0.32873456705284165
1724.0,0.34794715175189506
1723.0,0.36713795989977016
1722.0,0.3836295277087305
1721.0,0.396206295863037
1720.0,0.4069355683412825
1719.0,0.4205594028602029
1718.0,0.43949558480494333
1717.0,0.45593195564972433
1716.0,0.4634415574284698
1715.0,0.46483251488505584
1714.0,0.4623068056326092
1713.0,0.4546928835341759
1712.0,0.44225225835853177
1711.0,0.42631630690620215
1710.0,0.4082677610481644
1709.0,0.38859536228840663
1708.0,0.3673402867060864
1707.0,0.3436142809413123
1706.0,0.31812587787135316
1705.0,0.29550630299070124
1704.0,0.2787666299827225
1703.0,0.2656803191409931
1702.0,0.25181197299379954
1701.0,0.23388471677858602
1700.0,0.21631076365268354
1699.0,0.20502425594886842
1698.0,0.1976368256904526
1697.0,0.189767482004916
1696.0,0.18065351591954726
1695.0,0.17276000049435458
1694.0,0.1674910872937636
1693.0,0.16354928627984533
1692.0,0.15976840504189105
1691.0,0.15564710368910672
1690.0,0.1515645446685292
1689.0,0.1482525808667361
1688.0,0.1456332219591303
1687.0,0.14302956651750764
1686.0,0.14014147951900724
1685.0,0.13739163603505822
1684.0,0.13554825284181704
1683.0,0.13406733180681396
1682.0,0.13235576609690147
1681.0,0.13053358991913355
1680.0,0.12854382597704617
1679.0,0.12638880300353272
1678.0,0.12412880927263426
1677.0,0.12193801870998744
1676.0,0.11981544717356662
1675.0,0.11781711236973003
1674.0,0.11611154211151953
1673.0,0.11469533241103202
1672.0,0.11317099532301778
1671.0,0.11142740314240007
1670.0,0.10969078310005154
1669.0,0.10835105612944096
1668.0,0.1071265931112344
1667.0,0.10585015323207791
1666.0,0.10441172433373724
1665.0,0.10292299679057959
1664.0,0.10149421446564144
1663.0,0.10007011727213588
1662.0,0.09886874864462802
1661.0,0.09777947172068524
1660.0,0.09680145295702158
1659.0,0.09566320779750503
1658.0,0.09452793807529569
1657.0,0.09334178232840018
1656.0,0.09215885741705532
1655.0,0.09065796163869155
1654.0,0.08942895151874142
1653.0,0.0892689019566193
1652.0,0.08916223500731646
1651.0,0.08873582900163002
1650.0,0.08820340956274775
1649.0,0.08756536662442538
1648.0,0.08692825969074924
1647.0,0.08618614761628329
1646.0,0.08549817717268593
1645.0,0.08470571697731355
1644.0,0.08396738981143059
1643.0,0.08312512146131668
1642.0,0.08223199755224364
1641.0,0.08144546944972642
1640.0,0.08066036321258663
1639.0,0.07972010536705154
1638.0,0.07878187880504961
1637.0,0.07789763319239285
1636.0,0.07732643214144574
1635.0,0.07670415934449615
1634.0,0.0759792995259323
1633.0,0.07530729697981409
1632.0,0.07453319930846214
1631.0,0.07360609973031784
1630.0,0.07268097504034388
1629.0,0.07191154033502922
1628.0,0.07124579782334672
1627.0,0.07052998382251041
1626.0,0.06976434723371505
1625.0,0.0691018855898955
1624.0,0.06844043290919477
1623.0,0.06788152797087754
1622.0,0.06737405597821788
1621.0,0.06696850489759454
1620.0,0.06661395809694559
1619.0,0.06641148980334699
1618.0,0.06676587128519196
1617.0,0.06788152797087754
1616.0,0.0690000580438479
1615.0,0.06930561233546473
1614.0,0.06894915322260897
1613.0,0.06828793294324442
1612.0,0.06742477650170953
1611.0,0.0663102910421054
1610.0,0.06509774167768612
1609.0,0.06373765809652254
1608.0,0.062331685600995
1607.0,0.060880282351513104
1606.0,0.05948351506743288
1605.0,0.058190526991161784
1604.0,0.056950888991593285
1603.0,0.05581353871631256
1602.0,0.05462990550969615
1601.0,0.05354773498692689
1600.0,0.05256627811294923
1599.0,0.0515870342213991
1598.0,0.050707598587974356
1597.0,0.049927370249842395
1596.0,0.049294465226138895
1595.0,0.04871106272232795
1594.0,0.048225491918274965
1593.0,0.0478374257855374
1592.0,0.04749815213697639
1591.0,0.04720755695590784
1590.0,0.04701393480294458
1589.0,0.04696554274964315
1588.0,0.047062332249019345
1587.0,0.04744970610179822
1586.0,0.04832256265669943
1585.0,0.04982994019179987
1584.0,0.05207638016827354
1583.0,0.0549255115212699
1582.0,0.058190526991161784
1581.0,0.06133019897732073
1580.0,0.06378795567975115
1579.0,0.06524912533642091
1578.0,0.06545105233385295
1577.0,0.06408986356949264
1576.0,0.061580354206806964
1575.0,0.05898575629443026
1574.0,0.05690137699451481
1573.0,0.05502409158795207
1572.0,0.05325306496641513
1571.0,0.05129369109514803
1570.0,0.049245818406496555
1569.0,0.04754660357696672
1568.0,0.04628861957244457
1567.0,0.045323413081356456
1566.0,0.044456557540257124
1565.0,0.043495409683302455
1564.0,0.042584285277331047
1563.0,0.0417706858116178
1562.0,0.041101805289228244
1561.0,0.040481623027001756
1560.0,0.040005161671583744
1559.0,0.039719535563357944
1558.0,0.039338992729018196
1557.0,0.03886378261277468
1556.0,0.038531444649213764
1555.0,0.038151940981675736
1554.0,0.03772539537668518
1553.0,0.03739392707587297
1552.0,0.0371573187987575
1551.0,0.03682628362474838
1550.0,0.036401037402758574
1549.0,0.03592902944204468
1548.0,0.03555179208333925
1547.0,0.03526907894637077
1546.0,0.03512779136222477
1545.0,0.03498654972775217
1544.0,0.03479829897408804
1543.0,0.03442204208947208
1542.0,0.03399914237121604
1541.0,0.03376437590141812
1540.0,0.03362357691107709
1539.0,0.0332483359486222
1538.0,0.0329671178412978
1537.0,0.032873418923587305
1536.0,0.032873418923587305
1535.0,0.0329671178412978
1534.0,0.033201453616638954
1533.0,0.033482823553208085
1532.0,0.03357665405630694
1531.0,0.03352973627071565
1530.0,0.03352973627071565
1529.0,0.03357665405630694
1528.0,0.03357665405630694
1527.0,0.033482823553208085
1526.0,0.0332483359486222
1525.0,0.0329671178412978
1524.0,0.032592443402527316
1523.0,0.032218091924200776
1522.0,0.03184406285002961
1521.0,0.031657169041054534
1520.0,0.03147035562516054
1519.0,0.03133029827960798
1518.0,0.031236951802751545
1517.0,0.031096969696171817
1516.0,0.030910397045078586
1515.0,0.0307239045110681
1514.0,0.030863766403287585
1513.0,0.03142366482450232
1512.0,0.03249882527715853
1511.0,0.034046110897937076
1510.0,0.03597620715996652
1509.0,0.038911280232103884
1508.0,0.044986096961949995
1507.0,0.05502409158795207
1506.0,0.061680456657844385
1505.0,0.06253226035662252
1504.0,0.060530669156469985
1503.0,0.056950888991593285
1502.0,0.05237025261564554
1501.0,0.04740126547022694
1500.0,0.042584285277331047
1499.0,0.03824678581321739
1498.0,0.034516075754861264
1497.0,0.031563752288295444
1496.0,0.029374223311705583
1495.0,0.027889771597169544
1494.0,0.026872146400301444
1493.0,0.02636422658259252
1492.0,0.026041313893296225
1491.0,0.025764722556973707
1490.0,0.025488307262671706
1489.0,0.025350165561278004
1488.0,0.02521206778644225
1487.0,0.02498200236711723
1486.0,0.024798037742147727
1485.0,0.02484402159331056
1484.0,0.025074013910237447
1483.0,0.02539620791296726
1482.0,0.025764722556973707
1481.0,0.02617967564731627
1480.0,0.02664120011360227
1479.0,0.027010773144651168
1478.0,0.027426919073445077
1477.0,0.02798240132598462
1476.0,0.02849221828874393
1475.0,0.028816959143838528
1474.0,0.02904906565457588
1473.0,0.02960662792039992
1472.0,0.03030458888152676
1471.0,0.030863766403287585
1470.0,0.03142366482450232
1469.0,0.032218091924200776
1468.0,0.0332483359486222
1467.0,0.03461012978487776
1466.0,0.036542739883292485
1465.0,0.03938654235209116
1464.0,0.042392712939904875
1463.0,0.044937930324967956
1462.0,0.04711073508906982
1461.0,0.049294465226138895
1460.0,0.0515870342213991
1459.0,0.054186873412661596
1458.0,0.05784307153250956
1457.0,0.06223143295006417
1456.0,0.06504729218214189
1455.0,0.06620911585658007
1454.0,0.06681652082538614
1453.0,0.06722192993944942
1452.0,0.06732334137759932
1451.0,0.06706985716921054
1450.0,0.06671522765130522
1449.0,0.06641148980334699
1448.0,0.06605739725873905
1447.0,0.06560255921901192
1446.0,0.06524912533642091
1445.0,0.06504729218214189
1444.0,0.06489597884855036
1443.0,0.06459351024765114
1442.0,0.06424089625468832
1441.0,0.06383825908884244
1440.0,0.06313454102437754
1439.0,0.06203099704854709
1438.0,0.06028111764589528
1437.0,0.05779345772290467
1436.0,0.05477768336465916
1435.0,0.05197846685889629
1434.0,0.04939177521576932
1433.0,0.04667530361081473
1432.0,0.04368746915880539
1431.0,0.040481623027001756
1430.0,0.037299268295658994
1429.0,0.034516075754861264
1428.0,0.032311649546687526
1427.0,0.0307239045110681
1426.0,0.029467170231675777
1425.0,0.028445846553939003
1424.0,0.0277045713888604
1423.0,0.02738066094037661
1422.0,0.02751945012352408
1421.0,0.028306761050139073
1420.0,0.030537492025363155
1419.0,0.03475124903287918
1418.0,0.040338629726504704
1417.0,0.04696554274964315
1416.0,0.05522131887649295
1415.0,0.06565307326174441
1414.0,0.07867775641617802
1413.0,0.09420411963213149
1412.0,0.11125903931710734
1411.0,0.1270865583796048
1410.0,0.13870460647330418
1409.0,0.14496568332411575
1408.0,0.1455724942121388
1407.0,0.14086170270546927
1406.0,0.1320613491092153
1405.0,0.12136332697348307
1404.0,0.11131515334030118
1403.0,0.10308815917397474
1402.0,0.09658441423091357
1401.0,0.09092559859909577
1400.0,0.0854453014823664
1399.0,0.08018997982980403
1398.0,0.07577241873988227
1397.0,0.07216786713341827
1396.0,0.06879647454924775
1395.0,0.06519865825346338
1394.0,0.061830653609679764
1393.0,0.05908526241971446
1392.0,0.05690137699451481
1391.0,0.0549255115212699
1390.0,0.05300765925162776
1389.0,0.051244819831730126
1388.0,0.04953778109440221
1387.0,0.048128442871635535
1386.0,0.04715914332429838
1385.0,0.04667530361081473
1384.0,0.04667530361081473
1383.0,0.047062332249019345
1382.0,0.047934409814949674
1381.0,0.049294465226138895
1380.0,0.051098239029786274
1379.0,0.05330216275425803
1378.0,0.05566540802921782
1377.0,0.05824018618530458
1376.0,0.06118017497378969
1375.0,0.06444235490698613
1374.0,0.0676277178520861
1373.0,0.07012147634321675
1372.0,0.07175781684269089
1371.0,0.07252697900472405
1370.0,0.07237303755504598
1369.0,0.07109230975604719
1368.0,0.0684912781333824
1367.0,0.06484555278383164
1366.0,0.06063052992534024
1365.0,0.055912320584565744
1364.0,0.05051241005349638
1363.0,0.04469717723830824
1362.0,0.03938654235209116
1361.0,0.03522197797762394
1360.0,0.032124554451966825
1359.0,0.029746130405213123
1358.0,0.027843464140506313
1357.0,0.02636422658259252
1356.0,0.02521206778644225
1355.0,0.02438440203310499
1354.0,0.023925268380126097
1353.0,0.023879381700184332
1352.0,0.024200690320592466
1351.0,0.024890010313838973
1350.0,0.026041313893296225
1349.0,0.0277045713888604
1348.0,0.029792641193145286
1347.0,0.03226486821611996
1346.0,0.03517488211661135
1345.0,0.038341651362284734
1344.0,0.041579471947481794
1343.0,0.04460091336073302
1342.0,0.04720755695590784
1341.0,0.049148541111453614
1340.0,0.05002482217034632
1339.0,0.049294465226138895
1338.0,0.04701393480294458
1337.0,0.04363944632667782
1336.0,0.03962436858984186
1335.0,0.03550466044490741
1334.0,0.03170388495374454
1333.0,0.028538594975413334
1332.0,0.026087429580295085
1331.0,0.024430342106337877
1330.0,0.023604163388120325
1329.0,0.023466619608062178
1328.0,0.023879381700184332
1327.0,0.024706084643793647
1326.0,0.025995203102585407
1325.0,0.027612000892527133
1324.0,0.029513651152349718
1323.0,0.03151705144606498
1322.0,0.03367050483612166
1321.0,0.03592902944204468
1320.0,0.03824678581321739
1319.0,0.04057697805689475
1318.0,0.04282386959515394
1317.0,0.044986096961949995
1316.0,0.04720755695590784
1315.0,0.04953778109440221
1314.0,0.05207638016827354
1313.0,0.05482695382609992
1312.0,0.05784307153250956
1311.0,0.06098022355133348
1310.0,0.06424089625468832
1309.0,0.06767846801070698
1308.0,0.07119462910671581
1307.0,0.07463633264589853
1306.0,0.07794959783282618
1305.0,0.0812883346176787
1304.0,0.08486409337798806
1303.0,0.08884239126002336
1302.0,0.0935572061829677
1301.0,0.09919606518963042
1300.0,0.10579474085791629
1299.0,0.11311464101399138
1298.0,0.12113366304327466
1297.0,0.1295960947209729
1296.0,0.1384058553561347
1295.0,0.1472760892087941
1294.0,0.15602015552184012
1293.0,0.16475346000368907
1292.0,0.17340694606595197
1291.0,0.18177410638604452
1290.0,0.189767482004916
1289.0,0.19749993223560658
1288.0,0.20502425594886842
1287.0,0.21190236661970263
1286.0,0.21817284706757212
1285.0,0.22395292881822026
1284.0,0.22936887222219338
1283.0,0.23418248469008174
1282.0,0.23822246249182188
1281.0,0.24176959154225042
1280.0,0.24496406623222855
1279.0,0.24764419584649922
1278.0,0.2501091587285782
1277.0,0.25266589038409504
1276.0,0.25586354759875274
1275.0,0.2596373105057561
1274.0,0.264480941184829
1273.0,0.27099729072781
1272.0,0.2794272796357391
1271.0,0.2896287357392373
1270.0,0.30120374820956886
1269.0,0.31425826139773627
1268.0,0.32873456705284165
1267.0,0.34371009880864034
1266.0,0.3589226866746258
1265.0,0.37417328671428884
1264.0,0.389020620077003
1263.0,0.40274371707485823
1262.0,0.41487781369318455
1261.0,0.4256214355869177
1260.0,0.4345063701311376
1259.0,0.4410515540219604
1258.0,0.4452686233240335
1257.0,0.4484280263257463
1256.0,0.4513649401852484
1255.0,0.45432185020797444
1254.0,0.4576726172260257
1253.0,0.4621809049267258
1252.0,0.4682656907234497
1251.0,0.4754740633736243
1250.0,0.48333244090095717
1249.0,0.4925489390980302
1248.0,0.5027938192960455
1247.0,0.5134278494816436
1246.0,0.5237482039929664
1245.0,0.5340226317141772
1244.0,0.5439377755450485
1243.0,0.5523769022397138
1242.0,0.558304864359283
1241.0,0.5620909644605017
1240.0,0.5630426693305504
1239.0,0.5601937886066697
1238.0,0.5528419686577808
1237.0,0.541966807503494
1236.0,0.5278288533076367
1235.0,0.509900994936695
1234.0,0.48932096896779
1233.0,0.4673729987711088
1232.0,0.44502654166676026
1231.0,0.422853015172475
1230.0,0.4011001129361169
1229.0,0.3805935891132226
1228.0,0.3614109167072832
1227.0,0.3432312207339834
1226.0,0.3258740172572918
1225.0,0.30962669308394086
1224.0,0.2946495371142881
1223.0,0.28050298338941837
1222.0,0.2672043017106709
1221.0,0.25492520841794253
1220.0,0.24359212745104175
1219.0,0.23299263605019593
1218.0,0.2231535913047007
1217.0,0.21431433171909875
1216.0,0.20620961530918125
1215.0,0.19866490432545336
1214.0,0.19158644859963192
1213.0,0.1851533313955367
1212.0,0.17920761891179637
1211.0,0.17373078060627378
1210.0,0.1685141607513425
1209.0,0.1637391971415132
1208.0,0.15920410115290617
1207.0,0.15490195998574308
1206.0,0.15076490868527737
1205.0,0.14691047014813452
1204.0,0.14321071124668383
1203.0,0.1397219002477652
1202.0,0.13626089265478303
1201.0,0.13294519952329842
1200.0,0.12971317100740865
1199.0,0.12656313677796316
1198.0,0.12337808396572703
1197.0,0.12033079436794658
1196.0,0.1174754620451195
1195.0,0.11469533241103202
1194.0,0.1120452961911984
1193.0,0.10952309103982927
1192.0,0.10718217569042365
1191.0,0.10496440254767725
1190.0,0.10292299679057959
1189.0,0.10116516193172598
1188.0,0.09974214156222239
1187.0,0.09865067458435761
1186.0,0.09794268919153337
1185.0,0.09767069414168117
1184.0,0.09799710864927058
1183.0,0.09870518283443275
1182.0,0.09990609845660159
1181.0,0.10154908080162528
1180.0,0.10347378251044459
1179.0,0.10546241500425357
1178.0,0.10740457717110186
1177.0,0.10907622851098608
1176.0,0.11036219959333216
1175.0,0.11103465569966264
1174.0,0.11086644403327606
1173.0,0.1098585399354226
1172.0,0.10790539730951965
1171.0,0.10507502264045665
1170.0,0.10149421446564144
1169.0,0.09750757884139638
1168.0,0.0935033402006471
1167.0,0.08969583193143116
1166.0,0.0862920860195171
1165.0,0.08333553545860273
1164.0,0.08092190762392604
1163.0,0.07899019850296574
1162.0,0.07743023101428781
1161.0,0.07623803917129979
1160.0,0.07535895258283709
1159.0,0.07473949048056472
1158.0,0.07448164182257
1157.0,0.07468790850035045
1156.0,0.07535895258283709
1155.0,0.07654873036034848
1154.0,0.07831352451639795
1153.0,0.08066036321258663
1152.0,0.08354605145007499
1151.0,0.08708744882390307
1150.0,0.09124698081546634
1149.0,0.09598811640261173
1148.0,0.10127481841050656
1147.0,0.10701544928928342
1146.0,0.11317099532301778
1145.0,0.11964380058076385
1144.0,0.12638880300353272
1143.0,0.13318119707395182
1142.0,0.1399616101928065
1141.0,0.1466060225493342
1140.0,0.15304467498017615
1139.0,0.1590787998012282
1138.0,0.1646899991309374
1137.0,0.1699248335702499
1136.0,0.1748985884019969
1135.0,0.17953580942231584
1134.0,0.18402399902801458
1133.0,0.18849202005467336
1132.0,0.19314197048118253
1131.0,0.1981848314185628
1130.0,0.2037726859705613
1129.0,0.2100669190682496
1128.0,0.2173840679683965
1127.0,0.22562904015008334
1126.0,0.23485320989197467
1125.0,0.2450404122782901
1124.0,0.25594183412116456
1123.0,0.2669633170664205
1122.0,0.27769521312567225
1121.0,0.28777133038046476
1120.0,0.29662263148765056
1119.0,0.30346888003039285
1118.0,0.30803489723263966
1117.0,0.3101585908624953
1116.0,0.3098925605436693
1115.0,0.3073293008436311
1114.0,0.3031196283172377
1113.0,0.298518364379073
1112.0,0.2949063894521269
1111.0,0.29328221766324125
1110.0,0.29439283659539495
1109.0,0.29912329162309637
1108.0,0.3073293008436311
1107.0,0.3183970012691315
1106.0,0.3318937620672686
1105.0,0.34746358140697464
1104.0,0.36471736200178806
1103.0,0.3828947694976219
1102.0,0.40153779952584956
1101.0,0.4203307064452797
1100.0,0.43889861635094407
1099.0,0.4561801948573423
1098.0,0.47146893936458834
1097.0,0.4846561069116191
1096.0,0.49566508819753574
1095.0,0.5034854813022549
1094.0,0.5080782874138492
1093.0,0.5097605147537128
1092.0,0.5089185865768129
1091.0,0.5050110263168319
1090.0,0.4983930775811707
1089.0,0.4903942953884439
1088.0,0.4812229310732252
1087.0,0.4706980022120195
1086.0,0.4589202322233712
1085.0,0.44660248987612006
1084.0,0.4336803784751886
1083.0,0.4198736745884175
1082.0,0.4049449102406961
1081.0,0.38933983691012
1080.0,0.3732491463166068
1079.0,0.3567447749752284
1078.0,0.3400837999301498
1077.0,0.3237637832366884
1076.0,0.30803489723263966
1075.0,0.2928558116575548
1074.0,0.2784366816425192
1073.0,0.26536016101230064
1072.0,0.2534436385896308
1071.0,0.24267990345332757
1070.0,0.23284413391781955
1069.0,0.2240256688706308
1068.0,0.21616785661555893
1067.0,0.2088709992727138
1066.0,0.20217868863597643
1065.0,0.1962698290254561
1064.0,0.19097927951632743
1063.0,0.18628560811885508
1062.0,0.1821703002543944
1061.0,0.1788141173911546
1060.0,0.17619984625012197
1059.0,0.1743791749964998
1058.0,0.17340694606595197
1057.0,0.17327747983100794
1056.0,0.17405485679615196
1055.0,0.1754836719927908
1054.0,0.1775703762206431
1053.0,0.18039026724841478
1052.0,0.18375870000821704
1051.0,0.18742084459095332
1050.0,0.19131649087103075
1049.0,0.19531548509305963
1048.0,0.19935164463601196
1047.0,0.20307892466983124
1046.0,0.20641913263184408
1045.0,0.2093630380682967
1044.0,0.21183162885883222
1043.0,0.2135325232597176
1042.0,0.21424320003735708
1041.0,0.21417208000413446
1040.0,0.21339052735134012
1039.0,0.21190236661970263
1038.0,0.20999647960951062
1037.0,0.20795868928791772
1036.0,0.20579088365350362
1035.0,0.20349504844670374
1034.0,0.20114226825251436
1033.0,0.19880216554085117
1032.0,0.19661117501638659
1031.0,0.1944311824514442
1030.0,0.19232969876951622
1029.0,0.19037295810595034
1028.0,0.18869315991866387
1027.0,0.18762148884580565
1026.0,0.18768839086887623
1025.0,0.18990195931885712
1024.0,0.19545169161194398
1023.0,0.20523320205917894
1022.0,0.22025924882325953
1021.0,0.24055880286630238
1020.0,0.26520017041115307
1019.0,0.29098458302788277
1018.0,0.3131850454926832
1017.0,0.32670256024036415
1016.0,0.32771737521107935
1015.0,0.31551370781126575
1014.0,0.29387989029729633
1013.0,0.2688949487840795
1012.0,0.24511677174783242
1011.0,0.22497239990115525
1010.0,0.20866029603486047
1009.0,0.19572423287090612
1008.0,0.18521985425419518
1007.0,0.17665620917935154
1006.0,0.16960382351653092
1005.0,0.16386585053462532
1004.0,0.15920410115290617
1003.0,0.15521228117215347
1002.0,0.1517492853229574
1001.0,0.14861933203440336
1000.0,0.14587621789883287
999.0,0.14333151638846497
998.0,0.1409818561111058
997.0,0.1388241644869712
996.0,0.13697470377052956
995.0,0.13537027545448765
994.0,0.13394907599072514
993.0,0.13276828548110586
992.0,0.13170831198214428
991.0,0.13076828026902376
990.0,0.12988884463559924
989.0,0.12924505510985984
988.0,0.12877744324029283
987.0,0.12836869546244634
986.0,0.1280186461566306
985.0,0.12778543660241448
984.0,0.1276688787697493
983.0,0.12761061158217912
982.0,0.12761061158217912
981.0,0.1276688787697493
980.0,0.12784372725170723
979.0,0.1280769681176266
978.0,0.1282519810081284
977.0,0.1283103343144847
976.0,0.12836869546244634
975.0,0.1283103343144847
974.0,0.1281352979118051
973.0,0.12784372725170723
972.0,0.12731939284807026
971.0,0.12656313677796316
970.0,0.12551818230053358
969.0,0.12430223801979201
968.0,0.12291674334934943
967.0,0.1213058996038916
966.0,0.11958660012208333
965.0,0.11793105556385153
964.0,0.11628179803604044
963.0,0.11469533241103202
962.0,0.11305829401658474
961.0,0.11159583226295333
960.0,0.11025022473596224
959.0,0.10902040301031102
958.0,0.10784972209863586
957.0,0.10673771411200872
956.0,0.10579474085791629
955.0,0.10490910306560064
954.0,0.10408045468998406
953.0,0.10330847343711591
952.0,0.10259286033841963
951.0,0.10187842445889239
950.0,0.1012199867101744
949.0,0.10072681268239614
948.0,0.10023419805561384
947.0,0.09968750301627338
946.0,0.09914149529800831
945.0,0.09865067458435761
944.0,0.09821485469640057
943.0,0.09777947172068524
942.0,0.09745322068600859
941.0,0.09718153191774648
940.0,0.09691001300805646
939.0,0.09658441423091357
938.0,0.09620485725896466
937.0,0.09593394808549704
936.0,0.09566320779750503
935.0,0.09539263618455207
934.0,0.0950141189006366
933.0,0.09468993788391455
932.0,0.09425807260839858
931.0,0.0937727369476411
930.0,0.09328794305703592
929.0,0.09280368972839836
928.0,0.09237369515673355
927.0,0.0919441259012328
926.0,0.09140776115243066
925.0,0.09092559859909577
924.0,0.09049745859458458
923.0,0.0900697402471693
922.0,0.08964244272712252
921.0,0.08932224525729482
920.0,0.08910891135547172
919.0,0.08894897967187343
918.0,0.08884239126002336
917.0,0.08884239126002336
916.0,0.08900228368935714
915.0,0.08937559511079884
914.0,0.08990945440593179
913.0,0.0908185240221473
912.0,0.09210516458371698
911.0,0.0937727369476411
910.0,0.09582563171583658
909.0,0.09821485469640057
908.0,0.10094593200182911
907.0,0.10397008760377302
906.0,0.10723776538418317
905.0,0.1106422631110684
904.0,0.11407366019856902
903.0,0.11736163830396129
902.0,0.12033079436794658
901.0,0.12308968865537295
900.0,0.12546020292898974
899.0,0.12737762097471172
898.0,0.1287190271420271
897.0,0.12971317100740865
896.0,0.13035765534840538
895.0,0.13070959579060148
894.0,0.13076828026902376
893.0,0.13070959579060148
892.0,0.13070959579060148
891.0,0.1308269726783169
890.0,0.13123804178794973
889.0,0.1320613491092153
888.0,0.13324021650489182
887.0,0.13477754370982087
886.0,0.1366771398795441
885.0,0.1390633792999063
884.0,0.14200450443907608
883.0,0.1455724942121388
882.0,0.14978275820161047
881.0,0.15490195998574308
880.0,0.16102504504453208
879.0,0.16793838540927308
878.0,0.17535358528164813
877.0,0.1831623690979649
876.0,0.19084446825281964
875.0,0.1976368256904526
874.0,0.20266319922465015
873.0,0.20537255533549192
872.0,0.20509389348319607
871.0,0.20169471797802352
870.0,0.19558794086228604
869.0,0.1878891587969005
868.0,0.17953580942231584
867.0,0.17121125181504682
866.0,0.16342272515935097
865.0,0.1565803347950816
864.0,0.15082636690117335
863.0,0.14605855411951008
862.0,0.14224547794055775
861.0,0.13930272594796111
860.0,0.13721290176465573
859.0,0.13560759484941132
858.0,0.13442229258007088
857.0,0.13365357725039817
856.0,0.13324021650489182
855.0,0.13306318226836056
854.0,0.13294519952329842
853.0,0.13294519952329842
852.0,0.13300418688935212
851.0,0.1331221856625011
850.0,0.1331221856625011
849.0,0.1331221856625011
848.0,0.1331221856625011
847.0,0.13306318226836056
846.0,0.13306318226836056
845.0,0.13318119707395182
844.0,0.13341732293645103
843.0,0.13353543402825974
842.0,0.13359450162194508
841.0,0.13359450162194508
840.0,0.13341732293645103
839.0,0.13300418688935212
838.0,0.13229686672990226
837.0,0.1314731132317961
836.0,0.1305922506177981
835.0,0.12971317100740865
834.0,0.1286022185125162
833.0,0.12737762097471172
832.0,0.1260984021355387
831.0,0.12476505354983503
830.0,0.12349349573411894
829.0,0.12245589228405596
828.0,0.12165057778222454
827.0,0.12084675381575383
826.0,0.1201016756699902
825.0,0.11952940719622163
824.0,0.1190150095132465
823.0,0.11855827805860697
822.0,0.11810202642698875
821.0,0.11781711236973003
820.0,0.11770319906234805
819.0,0.11770319906234805
818.0,0.11770319906234805
817.0,0.11770319906234805
816.0,0.11770319906234805
815.0,0.11764625361128611
814.0,0.11758931562603192
813.0,0.11764625361128611
812.0,0.11776015198117662
811.0,0.11787408022996826
810.0,0.11793105556385153
809.0,0.11804502866039956
808.0,0.11815903167507247
807.0,0.11815903167507247
806.0,0.11793105556385153
805.0,0.11758931562603192
804.0,0.1170772093974013
803.0,0.1163953390777075
802.0,0.11560117444331386
801.0,0.114865033936566
800.0,0.11469533241103202
799.0,0.11565785235294102
798.0,0.11810202642698875
797.0,0.12211057462851604
796.0,0.12720296001040166
795.0,0.13212021654162043
794.0,0.13560759484941132
793.0,0.1370342410222376
792.0,0.13632033212410222
791.0,0.13388996015562338
790.0,0.13041629228657614
789.0,0.12656313677796316
788.0,0.12262865413022594
787.0,0.11878658374498086
786.0,0.11520463605101905
785.0,0.11193288659256306
784.0,0.10918790104487552
783.0,0.10673771411200872
782.0,0.10457745396059215
781.0,0.10281292341984649
780.0,0.1014393550602879
779.0,0.10017949757290379
778.0,0.09886874864462802
777.0,0.09750757884139638
776.0,0.09620485725896466
775.0,0.0950141189006366
774.0,0.09393445524476318
773.0,0.09296504751658308
772.0,0.0919441259012328
771.0,0.09060445403289452
770.0,0.08910891135547172
769.0,0.08772478950118767
768.0,0.08645104209348209
767.0,0.08518101955252688
766.0,0.08396738981143059
765.0,0.08291480935943274
764.0,0.08196966321511989
763.0,0.08092190762392604
762.0,0.07977228854307139
761.0,0.07857365898473456
760.0,0.07732643214144574
759.0,0.0759792995259323
758.0,0.07463633264589853
757.0,0.07329750581735506
756.0,0.07196279359311708
755.0,0.07032568205141221
754.0,0.0685421293109949
753.0,0.06691783763020887
752.0,0.0655520510510299
751.0,0.06434161389936577
750.0,0.06313454102437754
749.0,0.06208109735221967
748.0,0.06128018521761747
747.0,0.06078036414518184
746.0,0.06093025007657582
745.0,0.06223143295006417
744.0,0.06509774167768612
743.0,0.07001940948448526
742.0,0.07758597585436577
741.0,0.0884695376928375
740.0,0.10292299679057959
739.0,0.12061736282565727
738.0,0.14110204276799654
737.0,0.16399254087446846
736.0,0.1886261029461067
735.0,0.21417208000413446
734.0,0.24033215531036944
733.0,0.2678475819347863
732.0,0.2974833025618495
731.0,0.3298469548078198
730.0,0.3658251282373999
729.0,0.40660315769979327
728.0,0.45247142354021785
727.0,0.5012760292520952
726.0,0.5472937734889711
725.0,0.5825283067967071
724.0,0.5977386175453199
723.0,0.5882119954561311
722.0,0.5553307690614755
721.0,0.5070999888912966
720.0,0.45481663178459386
719.0,0.4078232426041333
718.0,0.36926710718280353
717.0,0.3382819423053407
716.0,0.3133637307377066
715.0,0.29362364416030995
714.0,0.2784366816425192
713.0,0.2670436304243753
712.0,0.2584544832237907
711.0,0.25150187338626306
710.0,0.2454987706130829
709.0,0.2398037705448659
708.0,0.23418248469008174
707.0,0.22855951336008817
706.0,0.22329881601158919
705.0,0.21853185715820178
704.0,0.21417208000413446
703.0,0.20964445358561346
702.0,0.2046066650687106
701.0,0.19921420967223735
700.0,0.19375217280420953
699.0,0.188357978546849
698.0,0.18309616062433975
697.0,0.17815907279954568
696.0,0.17386038206408516
695.0,0.1701175535565067
694.0,0.1667891197173912
693.0,0.1637391971415132
692.0,0.16096212661169407
691.0,0.15851539066460685
690.0,0.15645578805436489
689.0,0.15496400648658493
688.0,0.1538485234711846
687.0,0.15279763601907614
686.0,0.1515645446685292
685.0,0.1503963419175529
684.0,0.14966014541652073
683.0,0.1494762911210057
682.0,0.14978275820161047
681.0,0.15033494452126717
680.0,0.15064201833870117
679.0,0.1500894416985039
678.0,0.14861933203440336
677.0,0.14691047014813452
676.0,0.14526898278605782
675.0,0.14357322752975565
674.0,0.14182386201765573
673.0,0.14014147951900724
672.0,0.13864483980673992
671.0,0.13768969004572962
670.0,0.13763006287711765
669.0,0.13846558914096208
668.0,0.13978181533124334
667.0,0.13960209487268727
666.0,0.13655817138629134
665.0,0.13276828548110586
664.0,0.13035765534840538
663.0,0.1290696416513042
662.0,0.1282519810081284
661.0,0.1275523522109867
660.0,0.1270865583796048
659.0,0.12650501774383094
658.0,0.12551818230053358
657.0,0.12424442074194553
656.0,0.12314735239865637
655.0,0.12234075588839133
654.0,0.12176553132495593
653.0,0.12124847982699793
652.0,0.1207320431753871
651.0,0.1202162199095842
650.0,0.11981544717356662
649.0,0.11981544717356662
648.0,0.12004441487725082
647.0,0.1199871616332282
646.0,0.11941504393502012
645.0,0.11850122038501709
644.0,0.11758931562603192
643.0,0.11690664142431006
642.0,0.11662251025166115
641.0,0.1169634899723202
640.0,0.11804502866039956
639.0,0.11964380058076385
638.0,0.12165057778222454
637.0,0.12424442074194553
636.0,0.1275523522109867
635.0,0.13135556160517425
634.0,0.13489602535887202
633.0,0.13715334001706125
632.0,0.13709378643700187
631.0,0.13424477592854833
630.0,0.12971317100740865
629.0,0.1252863112422209
628.0,0.12216810850710624
627.0,0.12044539906102569
626.0,0.11981544717356662
625.0,0.11958660012208333
624.0,0.11947222180119477
623.0,0.11918640771920863
622.0,0.11867241589944855
621.0,0.11787408022996826
620.0,0.11684980031672243
619.0,0.11560117444331386
618.0,0.11458223488906394
617.0,0.11424311893073247
616.0,0.11435612816423602
615.0,0.11435612816423602
614.0,0.11401718864502697
613.0,0.1137349409702435
612.0,0.11367851344052027
611.0,0.11339648571328764
610.0,0.11266406960083297
609.0,0.11165198982195101
608.0,0.11092250734993603
607.0,0.1106422631110684
606.0,0.11058623595729111
605.0,0.11025022473596224
604.0,0.10929960230112479
603.0,0.10762709260156367
602.0,0.10612732120491852
601.0,0.10585015323207791
600.0,0.10679324694015202
599.0,0.10773839308446487
598.0,0.1075158206353124
597.0,0.1061827760325369
596.0,0.10435649517592083
595.0,0.1022080180607754
594.0,0.10001543745060903
593.0,0.09810596802617932
592.0,0.09669292003582619
591.0,0.09528445472131919
590.0,0.09371884422784693
589.0,0.09237369515673355
588.0,0.09140776115243066
587.0,0.09044397075882471
586.0,0.08905559425002108
585.0,0.08735289378168276
584.0,0.08533956941077814
583.0,0.08301995267961781
582.0,0.08024221949810584
581.0,0.07737832847680104
580.0,0.07422394616325367
579.0,0.07022356719509815
578.0,0.06529959828457499
577.0,0.05978244440026481
576.0,0.05448217792216048
575.0,0.05085404758005607
574.0,0.04987865248862655
573.0,0.05026854768429301
572.0,0.049927370249842395
571.0,0.047691990337874746
570.0,0.04411991377462465
569.0,0.039909932095080425
568.0,0.03522197797762394
567.0,0.03063068826647264
566.0,0.027288159452933503
565.0,0.025304128090317013
564.0,0.02461415101053266
563.0,0.025810808881832736
562.0,0.02890978686288448
561.0,0.03240522732811035
560.0,0.03437503289075727
559.0,0.03456310022373987
558.0,0.03423403581731388
557.0,0.03385826726096752
556.0,0.03235843591698884
555.0,0.029141943003497595
554.0,0.02617967564731627
553.0,0.025672564576383117
552.0,0.02738066094037661
551.0,0.028770552723758724
550.0,0.02839947976994095
549.0,0.027056991894431892
548.0,0.026225806029419818
547.0,0.02613355016462182
546.0,0.025995203102585407
545.0,0.025856900097785074
544.0,0.026733563891471412
543.0,0.029002634427514717
542.0,0.031190286087141805
541.0,0.03170388495374454
540.0,0.03128362253321426
539.0,0.032545631817259224
538.0,0.03663723389626394
537.0,0.041436116778032606
536.0,0.04344740808260106
535.0,0.041436116778032606
534.0,0.0371100126082089
533.0,0.03301397488206215
532.0,0.02969962459782227
531.0,0.026087429580295085
530.0,0.022230681908425698
529.0,0.02004210665933459
528.0,0.021499930688540836
527.0,0.025488307262671706
526.0,0.02798240132598462
525.0,0.026225806029419818
524.0,0.0221849739168134
523.0,0.02036058777709271
522.0,0.02277955336461468
521.0,0.02682594731702781
520.0,0.029141943003497595
519.0,0.02904906565457588
518.0,0.027889771597169544
517.0,0.026872146400301444
516.0,0.02664120011360227
515.0,0.028028723600243666
514.0,0.03142366482450232
513.0,0.03484535401307465
512.0,0.03522197797762394
511.0,0.03128362253321426
510.0,0.025995203102585407
509.0,0.02438440203310499
508.0,0.028816959143838528
507.0,0.03635381351515665
506.0,0.041197296600497646
505.0,0.040529297924893015
504.0,0.03692083935817303
503.0,0.03526907894637077
502.0,0.03796231343498735
501.0,0.043735497301724546
500.0,0.04934311749548925
499.0,0.05173378011970464
498.0,0.04963514562387683
497.0,0.04464904263234004
496.0,0.04043395336207234
495.0,0.03905380426616856
494.0,0.03910132267333921
493.0,0.03800971255993524
492.0,0.03625938114211591
491.0,0.03663723389626394
490.0,0.03957679292217042
489.0,0.041197296600497646
488.0,0.03848398855105106
487.0,0.033295223342125535
486.0,0.03058408764601861
485.0,0.032218091924200776
484.0,0.03545753392086315
483.0,0.03658998431977123
482.0,0.03414006319292828
481.0,0.02904906565457588
480.0,0.02342078135989012
479.0,0.019133445417920836
478.0,0.017412209298337533
477.0,0.01840788278591865
476.0,0.021819483062586187
475.0,0.02710321556345563
474.0,0.03273290844021437
473.0,0.03692083935817303
472.0,0.03862637240519895
471.0,0.038721320914956836
470.0,0.03838909190871931
469.0,0.03767802727041558
468.0,0.03522197797762394
467.0,0.02969962459782227
466.0,0.021636852916117055
465.0,0.01381070026317599
464.0,0.009483555971770974
463.0,0.010327752376126709
462.0,0.015877917138889863
461.0,0.024430342106337877
460.0,0.03475124903287918
459.0,0.04503426894157925
458.0,0.051684859310652254
457.0,0.05153812993871654
456.0,0.044986096961949995
455.0,0.03583468937826462
454.0,0.028214062120885508
453.0,0.023879381700184332
452.0,0.02259651912656535
451.0,0.023833499868024743
450.0,0.025949097207122573
