cm-1,A
4000.0,0.0020459959305969555
3999.0,0.0021332737608552588
3998.0,0.0022205691343961664
3997.0,0.002351545103793873
3996.0,0.002395212539545666
3995.0,0.002395212539545666
3994.0,0.002395212539545666
3993.0,0.002395212539545666
3992.0,0.002395212539545666
3991.0,0.002395212539545666
3990.0,0.002351545103793873
3989.0,0.0022642234021015284
3988.0,0.0021332737608552588
3987.0,0.0020459959305969555
3986.0,0.0020023635919956817
3985.0,0.001915112063444413
3984.0,0.0018714928717336043
3983.0,0.0018278780605593958
3982.0,0.0018714928717336043
3981.0,0.001915112063444413
3980.0,0.0020023635919956817
3979.0,0.002089632653256679
3978.0,0.0021769192542746563
3977.0,0.0021769192542746563
3976.0,0.0022205691343961664
3975.0,0.0022642234021015284
3974.0,0.0023078820582733695
3973.0,0.0022642234021015284
3972.0,0.0022205691343961664
3971.0,0.0021769192542746563
3970.0,0.0021769192542746563
3969.0,0.0022205691343961664
3968.0,0.0022205691343961664
3967.0,0.0021769192542746563
3966.0,0.002089632653256679
3965.0,0.0020023635919956817
3964.0,0.0019587356365717845
3963.0,0.0019587356365717845
3962.0,0.0020023635919956817
3961.0,0.0020459959305969555
3960.0,0.002089632653256679
3959.0,0.002089632653256679
3958.0,0.0020459959305969555
3957.0,0.0020023635919956817
3956.0,0.0020023635919956817
3955.0,0.0020459959305969555
3954.0,0.0021332737608552588
3953.0,0.0022205691343961664
3952.0,0.0023078820582733695
3951.0,0.002351545103793873
3950.0,0.002351545103793873
3949.0,0.002351545103793873
3948.0,0.002395212539545666
3947.0,0.0024388843664115978
3946.0,0.002482560585275184
3945.0,0.0025262411970197185
3944.0,0.0025262411970197185
3943.0,0.002569926202528716
3942.0,0.002613615602686581
3941.0,0.002613615602686581
3940.0,0.0025262411970197185
3939.0,0.002395212539545666
3938.0,0.0022205691343961664
3937.0,0.0021332737608552588
3936.0,0.002089632653256679
3935.0,0.002089632653256679
3934.0,0.0021769192542746563
3933.0,0.0022205691343961664
3932.0,0.0022642234021015284
3931.0,0.0022205691343961664
3930.0,0.0021769192542746563
3929.0,0.0021769192542746563
3928.0,0.0022205691343961664
3927.0,0.0022642234021015284
3926.0,0.0022642234021015284
3925.0,0.0022205691343961664
3924.0,0.0022205691343961664
3923.0,0.0022205691343961664
3922.0,0.0022642234021015284
3921.0,0.0022205691343961664
3920.0,0.0021769192542746563
3919.0,0.0021332737608552588
3918.0,0.002089632653256679
3917.0,0.0020459959305969555
3916.0,0.0020023635919956817
3915.0,0.0020023635919956817
3914.0,0.002089632653256679
3913.0,0.0021332737608552588
3912.0,0.0021769192542746563
3911.0,0.0022205691343961664
3910.0,0.0022205691343961664
3909.0,0.0023078820582733695
3908.0,0.002482560585275184
3907.0,0.0026573093983774942
3906.0,0.0027884171674950053
3905.0,0.0027884171674950053
3904.0,0.0027447101798967477
3903.0,0.0027447101798967477
3902.0,0.0027884171674950053
3901.0,0.0027884171674950053
3900.0,0.002701007590486082
3899.0,0.002569926202528716
3898.0,0.0024388843664115978
3897.0,0.002351545103793873
3896.0,0.002351545103793873
3895.0,0.002395212539545666
3894.0,0.002395212539545666
3893.0,0.002351545103793873
3892.0,0.0022642234021015284
3891.0,0.002089632653256679
3890.0,0.0020459959305969555
3889.0,0.0021332737608552588
3888.0,0.0021769192542746563
3887.0,0.0022205691343961664
3886.0,0.0022205691343961664
3885.0,0.002395212539545666
3884.0,0.002613615602686581
3883.0,0.0028321285541661467
3882.0,0.0028758443407954637
3881.0,0.0027884171674950053
3880.0,0.0026573093983774942
3879.0,0.002613615602686581
3878.0,0.0026573093983774942
3877.0,0.0027884171674950053
3876.0,0.0028758443407954637
3875.0,0.0028758443407954637
3874.0,0.0029632891174733444
3873.0,0.003050751504618754
3872.0,0.0031819781204844855
3871.0,0.0031382315093266833
3870.0,0.0030070181092942683
3869.0,0.0028758443407954637
3868.0,0.0028321285541661467
3867.0,0.0027447101798967477
3866.0,0.0025262411970197185
3865.0,0.002351545103793873
3864.0,0.0023078820582733695
3863.0,0.0023078820582733695
3862.0,0.0022642234021015284
3861.0,0.0022205691343961664
3860.0,0.0021769192542746563
3859.0,0.0021769192542746563
3858.0,0.0023078820582733695
3857.0,0.0024388843664115978
3856.0,0.002482560585275184
3855.0,0.002395212539545666
3854.0,0.002395212539545666
3853.0,0.002569926202528716
3852.0,0.0026573093983774942
3851.0,0.002613615602686581
3850.0,0.002482560585275184
3849.0,0.0023078820582733695
3848.0,0.0022205691343961664
3847.0,0.0022205691343961664
3846.0,0.0023078820582733695
3845.0,0.0024388843664115978
3844.0,0.002569926202528716
3843.0,0.002701007590486082
3842.0,0.0028758443407954637
3841.0,0.0030070181092942683
3840.0,0.003050751504618754
3839.0,0.003050751504618754
3838.0,0.0029195645282691363
3837.0,0.0027884171674950053
3836.0,0.002701007590486082
3835.0,0.002701007590486082
3834.0,0.0027447101798967477
3833.0,0.0027447101798967477
3832.0,0.002701007590486082
3831.0,0.0026573093983774942
3830.0,0.0026573093983774942
3829.0,0.0026573093983774942
3828.0,0.0026573093983774942
3827.0,0.002613615602686581
3826.0,0.002569926202528716
3825.0,0.002701007590486082
3824.0,0.0028321285541661467
3823.0,0.0028321285541661467
3822.0,0.0027884171674950053
3821.0,0.0027884171674950053
3820.0,0.0028321285541661467
3819.0,0.0028758443407954637
3818.0,0.0028321285541661467
3817.0,0.002613615602686581
3816.0,0.0024388843664115978
3815.0,0.002351545103793873
3814.0,0.0022642234021015284
3813.0,0.0021769192542746563
3812.0,0.002089632653256679
3811.0,0.0021332737608552588
3810.0,0.0023078820582733695
3809.0,0.0025262411970197185
3808.0,0.0026573093983774942
3807.0,0.002701007590486082
3806.0,0.0027447101798967477
3805.0,0.0029195645282691363
3804.0,0.0030944893043338695
3803.0,0.0030070181092942683
3802.0,0.0028758443407954637
3801.0,0.0027884171674950053
3800.0,0.0027884171674950053
3799.0,0.0028321285541661467
3798.0,0.0027884171674950053
3797.0,0.002701007590486082
3796.0,0.002613615602686581
3795.0,0.0025262411970197185
3794.0,0.0024388843664115978
3793.0,0.0023078820582733695
3792.0,0.0021769192542746563
3791.0,0.0021332737608552588
3790.0,0.0021332737608552588
3789.0,0.0021769192542746563
3788.0,0.0022205691343961664
3787.0,0.0022205691343961664
3786.0,0.0022205691343961664
3785.0,0.0023078820582733695
3784.0,0.002351545103793873
3783.0,0.002395212539545666
3782.0,0.0023078820582733695
3781.0,0.0021769192542746563
3780.0,0.0020023635919956817
3779.0,0.0019587356365717845
3778.0,0.0020023635919956817
3777.0,0.0021332737608552588
3776.0,0.0022205691343961664
3775.0,0.002351545103793873
3774.0,0.0025262411970197185
3773.0,0.002701007590486082
3772.0,0.0027447101798967477
3771.0,0.0026573093983774942
3770.0,0.0025262411970197185
3769.0,0.002482560585275184
3768.0,0.002569926202528716
3767.0,0.0026573093983774942
3766.0,0.002701007590486082
3765.0,0.002701007590486082
3764.0,0.0026573093983774942
3763.0,0.0026573093983774942
3762.0,0.002613615602686581
3761.0,0.002569926202528716
3760.0,0.002613615602686581
3759.0,0.0026573093983774942
3758.0,0.0026573093983774942
3757.0,0.0026573093983774942
3756.0,0.002701007590486082
3755.0,0.0028758443407954637
3754.0,0.003050751504618754
3753.0,0.0031819781204844855
3752.0,0.0032694845648473247
3751.0,0.0033570086445275926
3750.0,0.0032694845648473247
3749.0,0.0031382315093266833
3748.0,0.0031819781204844855
3747.0,0.0032694845648473247
3746.0,0.0031382315093266833
3745.0,0.0027884171674950053
3744.0,0.0025262411970197185
3743.0,0.002482560585275184
3742.0,0.002569926202528716
3741.0,0.002613615602686581
3740.0,0.002701007590486082
3739.0,0.0027884171674950053
3738.0,0.0028758443407954637
3737.0,0.0029195645282691363
3736.0,0.003050751504618754
3735.0,0.0031819781204844855
3734.0,0.0032257291386954545
3733.0,0.0030070181092942683
3732.0,0.002613615602686581
3731.0,0.0023078820582733695
3730.0,0.0021332737608552588
3729.0,0.002089632653256679
3728.0,0.0021332737608552588
3727.0,0.0021769192542746563
3726.0,0.0023078820582733695
3725.0,0.0023078820582733695
3724.0,0.0022205691343961664
3723.0,0.0020459959305969555
3722.0,0.0020023635919956817
3721.0,0.0020459959305969555
3720.0,0.0021769192542746563
3719.0,0.0022205691343961664
3718.0,0.0022205691343961664
3717.0,0.0022642234021015284
3716.0,0.0023078820582733695
3715.0,0.002395212539545666
3714.0,0.002351545103793873
3713.0,0.0022642234021015284
3712.0,0.0022642234021015284
3711.0,0.002351545103793873
3710.0,0.002351545103793873
3709.0,0.0022205691343961664
3708.0,0.0020459959305969555
3707.0,0.0018714928717336043
3706.0,0.0017406615763013722
3705.0,0.0016534626036355249
3704.0,0.001609869681952425
3703.0,0.0015662811355310335
3702.0,0.0015226969634936083
3701.0,0.0014791171649619628
3700.0,0.001348404001626502
3699.0,0.0012612837441823288
3698.0,0.0010870956412141197
3697.0,0.0010000277816797354
3696.0,0.0009565003968372565
3695.0,0.0010870956412141197
3694.0,0.0012612837441823288
3693.0,0.0013919706849057079
3692.0,0.001348404001626502
3691.0,0.0012177301682640973
3690.0,0.0009565003968372565
3689.0,0.0007389288868995258
3688.0,0.0005649501236701937
3687.0,0.0005649501236701937
3686.0,0.0006954276616513155
3685.0,0.000869458712629001
3684.0,0.0010435595295137379
3683.0,0.0011741809597138886
3682.0,0.001304841688344327
3681.0,0.0013919706849057079
3680.0,0.0015226969634936083
3679.0,0.0016534626036355249
3678.0,0.0016534626036355249
3677.0,0.0014355417390583547
3676.0,0.0012177301682640973
3675.0,0.0011741809597138886
3674.0,0.001304841688344327
3673.0,0.0014791171649619628
3672.0,0.0014791171649619628
3671.0,0.001348404001626502
3670.0,0.0011741809597138886
3669.0,0.0010435595295137379
3668.0,0.0009129773741116676
3667.0,0.0007389288868995258
3666.0,0.0005649501236701937
3665.0,0.00043451177401765406
3664.0,0.0003910410285830057
3663.0,0.0003910410285830057
3662.0,0.00043451177401765406
3661.0,0.000521466320689834
3660.0,0.0006084382809090627
3659.0,0.0006954276616513155
3658.0,0.0008259444115150671
3657.0,0.0009565003968372565
3656.0,0.0011741809597138886
3655.0,0.0014355417390583547
3654.0,0.0016534626036355249
3653.0,0.0018278780605593958
3652.0,0.0018278780605593958
3651.0,0.0017842676290416026
3650.0,0.001915112063444413
3649.0,0.0021769192542746563
3648.0,0.0022642234021015284
3647.0,0.0021769192542746563
3646.0,0.0020459959305969555
3645.0,0.001915112063444413
3644.0,0.0018278780605593958
3643.0,0.0017406615763013722
3642.0,0.0017406615763013722
3641.0,0.0018278780605593958
3640.0,0.001915112063444413
3639.0,0.0019587356365717845
3638.0,0.0020023635919956817
3637.0,0.002089632653256679
3636.0,0.0022205691343961664
3635.0,0.002351545103793873
3634.0,0.002482560585275184
3633.0,0.0026573093983774942
3632.0,0.0027884171674950053
3631.0,0.0026573093983774942
3630.0,0.002395212539545666
3629.0,0.0023078820582733695
3628.0,0.002351545103793873
3627.0,0.0024388843664115978
3626.0,0.0025262411970197185
3625.0,0.002613615602686581
3624.0,0.002701007590486082
3623.0,0.0027884171674950053
3622.0,0.0028321285541661467
3621.0,0.0028321285541661467
3620.0,0.0028758443407954637
3619.0,0.0030070181092942683
3618.0,0.0031382315093266833
3617.0,0.0031382315093266833
3616.0,0.0031382315093266833
3615.0,0.0030944893043338695
3614.0,0.0031382315093266833
3613.0,0.0032257291386954545
3612.0,0.0033570086445275926
3611.0,0.0034007772998332353
3610.0,0.0034445503666347133
3609.0,0.0034445503666347133
3608.0,0.0035321097382827737
3607.0,0.0035758960449088217
3606.0,0.0035758960449088217
3605.0,0.0035758960449088217
3604.0,0.0035758960449088217
3603.0,0.0036634819042162814
3602.0,0.0037510854308679953
3601.0,0.0038825238627120395
3600.0,0.003926345514724705
3599.0,0.003926345514724705
3598.0,0.0038387066319929275
3597.0,0.003707281458678491
3596.0,0.0035758960449088217
3595.0,0.0035321097382827737
3594.0,0.003488327845821315
3593.0,0.003488327845821315
3592.0,0.003488327845821315
3591.0,0.0034445503666347133
3590.0,0.0034007772998332353
3589.0,0.0033570086445275926
3588.0,0.003488327845821315
3587.0,0.0035758960449088217
3586.0,0.0035321097382827737
3585.0,0.0034445503666347133
3584.0,0.0033570086445275926
3583.0,0.0033570086445275926
3582.0,0.0034007772998332353
3581.0,0.0034445503666347133
3580.0,0.0034445503666347133
3579.0,0.0034007772998332353
3578.0,0.0033132443998284966
3577.0,0.0032257291386954545
3576.0,0.0030944893043338695
3575.0,0.0030070181092942683
3574.0,0.0030070181092942683
3573.0,0.0031382315093266833
3572.0,0.0033132443998284966
3571.0,0.003488327845821315
3570.0,0.0035758960449088217
3569.0,0.0035321097382827737
3568.0,0.0035321097382827737
3567.0,0.003707281458678491
3566.0,0.003926345514724705
3565.0,0.00401400208620073
3564.0,0.003970171588923321
3563.0,0.0038387066319929275
3562.0,0.0036634819042162814
3561.0,0.0035758960449088217
3560.0,0.0035321097382827737
3559.0,0.003488327845821315
3558.0,0.0034445503666347133
3557.0,0.0034445503666347133
3556.0,0.003488327845821315
3555.0,0.003488327845821315
3554.0,0.0035758960449088217
3553.0,0.0036634819042162814
3552.0,0.0037510854308679953
3551.0,0.003794893821675638
3550.0,0.003794893821675638
3549.0,0.0037510854308679953
3548.0,0.0038387066319929275
3547.0,0.003970171588923321
3546.0,0.004145520125434121
3545.0,0.004145520125434121
3544.0,0.003970171588923321
3543.0,0.0037510854308679953
3542.0,0.003619686766589858
3541.0,0.0036634819042162814
3540.0,0.003707281458678491
3539.0,0.003794893821675638
3538.0,0.0037510854308679953
3537.0,0.0036634819042162814
3536.0,0.0036634819042162814
3535.0,0.003707281458678491
3534.0,0.003794893821675638
3533.0,0.0038387066319929275
3532.0,0.003794893821675638
3531.0,0.003707281458678491
3530.0,0.003619686766589858
3529.0,0.003619686766589858
3528.0,0.003619686766589858
3527.0,0.0036634819042162814
3526.0,0.003707281458678491
3525.0,0.003794893821675638
3524.0,0.0038825238627120395
3523.0,0.0038825238627120395
3522.0,0.0038825238627120395
3521.0,0.0037510854308679953
3520.0,0.0036634819042162814
3519.0,0.0036634819042162814
3518.0,0.0037510854308679953
3517.0,0.003926345514724705
3516.0,0.0040578370074493275
3515.0,0.004101676353562844
3514.0,0.00401400208620073
3513.0,0.0038825238627120395
3512.0,0.003794893821675638
3511.0,0.003794893821675638
3510.0,0.0038387066319929275
3509.0,0.003970171588923321
3508.0,0.0040578370074493275
3507.0,0.004189368323957332
3506.0,0.004277078004534696
3505.0,0.004320939488377862
3504.0,0.004320939488377862
3503.0,0.004277078004534696
3502.0,0.004233220950025984
3501.0,0.004233220950025984
3500.0,0.004189368323957332
3499.0,0.004101676353562844
3498.0,0.00401400208620073
3497.0,0.003926345514724705
3496.0,0.0038825238627120395
3495.0,0.003926345514724705
3494.0,0.0040578370074493275
3493.0,0.004145520125434121
3492.0,0.004189368323957332
3491.0,0.004145520125434121
3490.0,0.0040578370074493275
3489.0,0.00401400208620073
3488.0,0.00401400208620073
3487.0,0.00401400208620073
3486.0,0.003970171588923321
3485.0,0.003926345514724705
3484.0,0.003926345514724705
3483.0,0.003926345514724705
3482.0,0.003970171588923321
3481.0,0.00401400208620073
3480.0,0.00401400208620073
3479.0,0.0040578370074493275
3478.0,0.004145520125434121
3477.0,0.004233220950025984
3476.0,0.004320939488377862
3475.0,0.004452550524862486
3474.0,0.004540313378935901
3473.0,0.004671990922590297
3472.0,0.004715892310740433
3471.0,0.004671990922590297
3470.0,0.00458420145758498
3469.0,0.004408675747646695
3468.0,0.004277078004534696
3467.0,0.004233220950025984
3466.0,0.004277078004534696
3465.0,0.0043648054024501
3464.0,0.004408675747646695
3463.0,0.0043648054024501
3462.0,0.0043648054024501
3461.0,0.0043648054024501
3460.0,0.004320939488377862
3459.0,0.0043648054024501
3458.0,0.004408675747646695
3457.0,0.0044964297349936455
3456.0,0.00458420145758498
3455.0,0.004540313378935901
3454.0,0.004408675747646695
3453.0,0.004233220950025984
3452.0,0.004189368323957332
3451.0,0.004233220950025984
3450.0,0.004408675747646695
3449.0,0.00458420145758498
3448.0,0.004759798137184523
3447.0,0.00489154225525934
3446.0,0.00489154225525934
3445.0,0.00484762310854614
3444.0,0.004803708402820517
3443.0,0.004759798137184523
3442.0,0.004671990922590297
3441.0,0.00458420145758498
3440.0,0.0044964297349936455
3439.0,0.004452550524862486
3438.0,0.004540313378935901
3437.0,0.004671990922590297
3436.0,0.004759798137184523
3435.0,0.004759798137184523
3434.0,0.004715892310740433
3433.0,0.004715892310740433
3432.0,0.004715892310740433
3431.0,0.004715892310740433
3430.0,0.004715892310740433
3429.0,0.004671990922590297
3428.0,0.004628093971837721
3427.0,0.00458420145758498
3426.0,0.00458420145758498
3425.0,0.004628093971837721
3424.0,0.004671990922590297
3423.0,0.004628093971837721
3422.0,0.004452550524862486
3421.0,0.004277078004534696
3420.0,0.004101676353562844
3419.0,0.00401400208620073
3418.0,0.0040578370074493275
3417.0,0.004101676353562844
3416.0,0.004189368323957332
3415.0,0.004233220950025984
3414.0,0.004320939488377862
3413.0,0.004452550524862486
3412.0,0.00458420145758498
3411.0,0.004671990922590297
3410.0,0.004759798137184523
3409.0,0.004803708402820517
3408.0,0.004803708402820517
3407.0,0.004759798137184523
3406.0,0.004671990922590297
3405.0,0.00458420145758498
3404.0,0.0044964297349936455
3403.0,0.004408675747646695
3402.0,0.004408675747646695
3401.0,0.0044964297349936455
3400.0,0.004628093971837721
3399.0,0.004715892310740433
3398.0,0.004803708402820517
3397.0,0.004803708402820517
3396.0,0.004759798137184523
3395.0,0.004715892310740433
3394.0,0.004671990922590297
3393.0,0.004628093971837721
3392.0,0.004628093971837721
3391.0,0.00458420145758498
3390.0,0.004540313378935901
3389.0,0.0044964297349936455
3388.0,0.004540313378935901
3387.0,0.00458420145758498
3386.0,0.004715892310740433
3385.0,0.004759798137184523
3384.0,0.004715892310740433
3383.0,0.004671990922590297
3382.0,0.004671990922590297
3381.0,0.004759798137184523
3380.0,0.00484762310854614
3379.0,0.00484762310854614
3378.0,0.004759798137184523
3377.0,0.004628093971837721
3376.0,0.0044964297349936455
3375.0,0.0043648054024501
3374.0,0.004277078004534696
3373.0,0.004189368323957332
3372.0,0.004145520125434121
3371.0,0.004145520125434121
3370.0,0.004189368323957332
3369.0,0.004320939488377862
3368.0,0.0044964297349936455
3367.0,0.004671990922590297
3366.0,0.004803708402820517
3365.0,0.004803708402820517
3364.0,0.004759798137184523
3363.0,0.004628093971837721
3362.0,0.0044964297349936455
3361.0,0.004408675747646695
3360.0,0.004320939488377862
3359.0,0.004320939488377862
3358.0,0.0043648054024501
3357.0,0.0043648054024501
3356.0,0.004452550524862486
3355.0,0.0044964297349936455
3354.0,0.004540313378935901
3353.0,0.0044964297349936455
3352.0,0.004408675747646695
3351.0,0.004277078004534696
3350.0,0.004145520125434121
3349.0,0.004101676353562844
3348.0,0.004101676353562844
3347.0,0.004145520125434121
3346.0,0.004189368323957332
3345.0,0.004145520125434121
3344.0,0.004101676353562844
3343.0,0.004145520125434121
3342.0,0.004233220950025984
3341.0,0.0043648054024501
3340.0,0.0044964297349936455
3339.0,0.004540313378935901
3338.0,0.004540313378935901
3337.0,0.004452550524862486
3336.0,0.004320939488377862
3335.0,0.004189368323957332
3334.0,0.00401400208620073
3333.0,0.0038825238627120395
3332.0,0.0038387066319929275
3331.0,0.0038825238627120395
3330.0,0.003970171588923321
3329.0,0.0040578370074493275
3328.0,0.004101676353562844
3327.0,0.004101676353562844
3326.0,0.004145520125434121
3325.0,0.004189368323957332
3324.0,0.004189368323957332
3323.0,0.004145520125434121
3322.0,0.004145520125434121
3321.0,0.004145520125434121
3320.0,0.004101676353562844
3319.0,0.00401400208620073
3318.0,0.003970171588923321
3317.0,0.0040578370074493275
3316.0,0.004320939488377862
3315.0,0.00458420145758498
3314.0,0.004759798137184523
3313.0,0.004759798137184523
3312.0,0.004628093971837721
3311.0,0.0044964297349936455
3310.0,0.004452550524862486
3309.0,0.004452550524862486
3308.0,0.0044964297349936455
3307.0,0.0044964297349936455
3306.0,0.0043648054024501
3305.0,0.004189368323957332
3304.0,0.003970171588923321
3303.0,0.0038825238627120395
3302.0,0.0038825238627120395
3301.0,0.003970171588923321
3300.0,0.00401400208620073
3299.0,0.00401400208620073
3298.0,0.003970171588923321
3297.0,0.003926345514724705
3296.0,0.0038387066319929275
3295.0,0.0038387066319929275
3294.0,0.003970171588923321
3293.0,0.004145520125434121
3292.0,0.0043648054024501
3291.0,0.0044964297349936455
3290.0,0.0044964297349936455
3289.0,0.004452550524862486
3288.0,0.004452550524862486
3287.0,0.004452550524862486
3286.0,0.004452550524862486
3285.0,0.004452550524862486
3284.0,0.0043648054024501
3283.0,0.004233220950025984
3282.0,0.004101676353562844
3281.0,0.003926345514724705
3280.0,0.003794893821675638
3279.0,0.003707281458678491
3278.0,0.0036634819042162814
3277.0,0.003707281458678491
3276.0,0.003794893821675638
3275.0,0.003794893821675638
3274.0,0.003794893821675638
3273.0,0.0038387066319929275
3272.0,0.0038825238627120395
3271.0,0.003970171588923321
3270.0,0.003970171588923321
3269.0,0.0038825238627120395
3268.0,0.003794893821675638
3267.0,0.0036634819042162814
3266.0,0.003619686766589858
3265.0,0.0035758960449088217
3264.0,0.0035758960449088217
3263.0,0.0035321097382827737
3262.0,0.0035758960449088217
3261.0,0.003619686766589858
3260.0,0.003707281458678491
3259.0,0.003794893821675638
3258.0,0.0038387066319929275
3257.0,0.003794893821675638
3256.0,0.003794893821675638
3255.0,0.0037510854308679953
3254.0,0.0037510854308679953
3253.0,0.003707281458678491
3252.0,0.0035758960449088217
3251.0,0.003488327845821315
3250.0,0.0034445503666347133
3249.0,0.0034445503666347133
3248.0,0.0034445503666347133
3247.0,0.003488327845821315
3246.0,0.003488327845821315
3245.0,0.0035321097382827737
3244.0,0.0035758960449088217
3243.0,0.0036634819042162814
3242.0,0.0036634819042162814
3241.0,0.0035758960449088217
3240.0,0.003488327845821315
3239.0,0.0034007772998332353
3238.0,0.0032694845648473247
3237.0,0.0031819781204844855
3236.0,0.0031382315093266833
3235.0,0.0032257291386954545
3234.0,0.0033570086445275926
3233.0,0.0034445503666347133
3232.0,0.0034445503666347133
3231.0,0.0033132443998284966
3230.0,0.0032257291386954545
3229.0,0.0032257291386954545
3228.0,0.0033132443998284966
3227.0,0.0034007772998332353
3226.0,0.0034445503666347133
3225.0,0.0034445503666347133
3224.0,0.0034007772998332353
3223.0,0.0034445503666347133
3222.0,0.003488327845821315
3221.0,0.0035758960449088217
3220.0,0.0036634819042162814
3219.0,0.003707281458678491
3218.0,0.0036634819042162814
3217.0,0.003619686766589858
3216.0,0.003488327845821315
3215.0,0.0033570086445275926
3214.0,0.0032257291386954545
3213.0,0.003050751504618754
3212.0,0.0028758443407954637
3211.0,0.0027884171674950053
3210.0,0.0027884171674950053
3209.0,0.0029195645282691363
3208.0,0.0030944893043338695
3207.0,0.0032257291386954545
3206.0,0.0032694845648473247
3205.0,0.0032694845648473247
3204.0,0.0032694845648473247
3203.0,0.0032257291386954545
3202.0,0.0031382315093266833
3201.0,0.003050751504618754
3200.0,0.0029195645282691363
3199.0,0.0027884171674950053
3198.0,0.0026573093983774942
3197.0,0.0025262411970197185
3196.0,0.002482560585275184
3195.0,0.002613615602686581
3194.0,0.0028758443407954637
3193.0,0.0030944893043338695
3192.0,0.0031819781204844855
3191.0,0.0031382315093266833
3190.0,0.0030070181092942683
3189.0,0.0029195645282691363
3188.0,0.0028758443407954637
3187.0,0.0028321285541661467
3186.0,0.0027447101798967477
3185.0,0.0026573093983774942
3184.0,0.002569926202528716
3183.0,0.002569926202528716
3182.0,0.002701007590486082
3181.0,0.0028758443407954637
3180.0,0.0029632891174733444
3179.0,0.0030070181092942683
3178.0,0.0029195645282691363
3177.0,0.0028321285541661467
3176.0,0.0027884171674950053
3175.0,0.0027884171674950053
3174.0,0.0028321285541661467
3173.0,0.0028758443407954637
3172.0,0.0028758443407954637
3171.0,0.0028321285541661467
3170.0,0.0027447101798967477
3169.0,0.002613615602686581
3168.0,0.0025262411970197185
3167.0,0.0024388843664115978
3166.0,0.0024388843664115978
3165.0,0.0025262411970197185
3164.0,0.002569926202528716
3163.0,0.002613615602686581
3162.0,0.002613615602686581
3161.0,0.002613615602686581
3160.0,0.0026573093983774942
3159.0,0.0026573093983774942
3158.0,0.0026573093983774942
3157.0,0.002613615602686581
3156.0,0.002569926202528716
3155.0,0.002569926202528716
3154.0,0.002569926202528716
3153.0,0.0025262411970197185
3152.0,0.0024388843664115978
3151.0,0.002351545103793873
3150.0,0.002395212539545666
3149.0,0.0024388843664115978
3148.0,0.0024388843664115978
3147.0,0.002351545103793873
3146.0,0.0022205691343961664
3145.0,0.002089632653256679
3144.0,0.0020023635919956817
3143.0,0.0020023635919956817
3142.0,0.0020023635919956817
3141.0,0.0019587356365717845
3140.0,0.0020023635919956817
3139.0,0.0020459959305969555
3138.0,0.0021769192542746563
3137.0,0.002351545103793873
3136.0,0.0024388843664115978
3135.0,0.002482560585275184
3134.0,0.0024388843664115978
3133.0,0.0023078820582733695
3132.0,0.002089632653256679
3131.0,0.001915112063444413
3130.0,0.0018714928717336043
3129.0,0.0019587356365717845
3128.0,0.0020459959305969555
3127.0,0.0021332737608552588
3126.0,0.0021769192542746563
3125.0,0.0021332737608552588
3124.0,0.0020459959305969555
3123.0,0.0020023635919956817
3122.0,0.001915112063444413
3121.0,0.001915112063444413
3120.0,0.001915112063444413
3119.0,0.0018714928717336043
3118.0,0.0017842676290416026
3117.0,0.0016970599014589638
3116.0,0.0016970599014589638
3115.0,0.0017406615763013722
3114.0,0.0017406615763013722
3113.0,0.0017406615763013722
3112.0,0.0016970599014589638
3111.0,0.0016970599014589638
3110.0,0.0017406615763013722
3109.0,0.0017406615763013722
3108.0,0.0017406615763013722
3107.0,0.0017406615763013722
3106.0,0.0017406615763013722
3105.0,0.0017406615763013722
3104.0,0.0017406615763013722
3103.0,0.0016970599014589638
3102.0,0.001609869681952425
3101.0,0.0015662811355310335
3100.0,0.001609869681952425
3099.0,0.0016534626036355249
3098.0,0.0016970599014589638
3097.0,0.0017842676290416026
3096.0,0.0018714928717336043
3095.0,0.001915112063444413
3094.0,0.0018714928717336043
3093.0,0.0017842676290416026
3092.0,0.0017842676290416026
3091.0,0.0018278780605593958
3090.0,0.0019587356365717845
3089.0,0.0020459959305969555
3088.0,0.0020023635919956817
3087.0,0.001915112063444413
3086.0,0.0018278780605593958
3085.0,0.0017842676290416026
3084.0,0.0017406615763013722
3083.0,0.0017406615763013722
3082.0,0.0016970599014589638
3081.0,0.0016970599014589638
3080.0,0.0017842676290416026
3079.0,0.0018714928717336043
3078.0,0.0019587356365717845
3077.0,0.0020023635919956817
3076.0,0.0020459959305969555
3075.0,0.0020023635919956817
3074.0,0.0020023635919956817
3073.0,0.0019587356365717845
3072.0,0.0018714928717336043
3071.0,0.0017842676290416026
3070.0,0.0017842676290416026
3069.0,0.0017842676290416026
3068.0,0.0017406615763013722
3067.0,0.0016970599014589638
3066.0,0.0016534626036355249
3065.0,0.001609869681952425
3064.0,0.0016534626036355249
3063.0,0.0016970599014589638
3062.0,0.0017842676290416026
3061.0,0.0018714928717336043
3060.0,0.001915112063444413
3059.0,0.0019587356365717845
3058.0,0.001915112063444413
3057.0,0.0018278780605593958
3056.0,0.0017406615763013722
3055.0,0.0016534626036355249
3054.0,0.001609869681952425
3053.0,0.0015226969634936083
3052.0,0.0014791171649619628
3051.0,0.0014355417390583547
3050.0,0.0013919706849057079
3049.0,0.001348404001626502
3048.0,0.001348404001626502
3047.0,0.001348404001626502
3046.0,0.001348404001626502
3045.0,0.001348404001626502
3044.0,0.001348404001626502
3043.0,0.001304841688344327
3042.0,0.0012612837441823288
3041.0,0.0012177301682640973
3040.0,0.0012612837441823288
3039.0,0.0012612837441823288
3038.0,0.0012177301682640973
3037.0,0.0010870956412141197
3036.0,0.0009565003968372565
3035.0,0.0009129773741116676
3034.0,0.0009129773741116676
3033.0,0.0009565003968372565
3032.0,0.0009129773741116676
3031.0,0.0008259444115150671
3030.0,0.0006519307932786322
3029.0,0.000521466320689834
3028.0,0.0003910410285830057
3027.0,0.00026065489343207737
3026.0,0.0001303078917322953
3025.0,0.0
3024.0,-0.00013026880522692963
3023.0,-0.0002604985473904087
3022.0,-0.0003472966853634851
3021.0,-0.0003906892499099257
3020.0,-0.0004774613744551459
3019.0,-0.0006075870628903246
3018.0,-0.0007810273534953893
3017.0,-0.0009977303577937136
3016.0,-0.0011710149414008164
3015.0,-0.001344230411601366
3014.0,-0.001474096691732818
3013.0,-0.0016039241497978196
3012.0,-0.001776967077439462
3011.0,-0.0019499410842680476
3010.0,-0.0021228462251614566
3009.0,-0.0022956825549340643
3008.0,-0.0024684501283323
3007.0,-0.002597980719908577
3006.0,-0.0027274726898296464
3005.0,-0.002900068611387585
3004.0,-0.0030725959676747294
3003.0,-0.0032450548131470747
3002.0,-0.0034174452021935586
3001.0,-0.0035897671891400584
3000.0,-0.003805073565025019
2999.0,-0.0039772418455368275
2998.0,-0.004063300397667113
2997.0,-0.004063300397667113
2996.0,-0.004020273253241502
2995.0,-0.003934206173708432
2994.0,-0.003891166236910326
2993.0,-0.0039772418455368275
2992.0,-0.004192356259714369
2991.0,-0.004536317851322913
2990.0,-0.004794110388711914
2989.0,-0.00488000724063431
2988.0,-0.004794110388711914
2987.0,-0.0045792939022115675
2986.0,-0.004364371107751008
2985.0,-0.004149341900058889
2984.0,-0.003891166236910326
2983.0,-0.0035897671891400584
2982.0,-0.0032881588260753603
2981.0,-0.002900068611387585
2980.0,-0.0024684501283323
2979.0,-0.0021228462251614566
2978.0,-0.001776967077439462
2977.0,-0.0013875234866409514
2976.0,-0.0009543984064577238
2975.0,-0.00043407747931878404
2974.0,0.00017375254558760211
2973.0,0.0008259444115150671
2972.0,0.0015662811355310335
2971.0,0.0024388843664115978
2970.0,0.0033570086445275926
2969.0,0.004320939488377862
2968.0,0.00537494623139545
2967.0,0.006475596832934416
2966.0,0.0075790439479759275
2965.0,0.008640997362049818
2964.0,0.00966114521239847
2963.0,0.010683695010048622
2962.0,0.011708658092512314
2961.0,0.012691326268817527
2960.0,0.013541787262693505
2959.0,0.014304140310157809
2958.0,0.014977917890464765
2957.0,0.015607721475734415
2956.0,0.016193358021584725
2955.0,0.016824927962187042
2954.0,0.017367005605150476
2953.0,0.017909760704207134
2952.0,0.01840788278591865
2951.0,0.018951941086827073
2950.0,0.019632973815224997
2949.0,0.020542681902151694
2948.0,0.02168250325324883
2947.0,0.023100049017062307
2946.0,0.02484402159331056
2945.0,0.02691835039863255
2944.0,0.029467170231675777
2943.0,0.032311649546687526
2942.0,0.03550466044490741
2941.0,0.038958783046687984
2940.0,0.04268010314465909
2939.0,0.04667530361081473
2938.0,0.05100054597304693
2937.0,0.05561604235915585
2936.0,0.06068046892176193
2935.0,0.06610796423578891
2934.0,0.0720140529005715
2933.0,0.07826151631540124
2932.0,0.08486409337798806
2931.0,0.0919441259012328
2930.0,0.09946901754724413
2929.0,0.10762709260156367
2928.0,0.1165089098110701
2927.0,0.12621453918179926
2926.0,0.13685565374733244
2925.0,0.14868048735125483
2924.0,0.16178077809237412
2923.0,0.17633018673186363
2922.0,0.19226207798589923
2921.0,0.20915209603456808
2920.0,0.22643295107394135
2919.0,0.24283180778572744
2918.0,0.25649023527157033
2917.0,0.26520017041115307
2916.0,0.26744542014856787
2915.0,0.263046046216854
2914.0,0.2532101678473877
2913.0,0.24003014244569276
2912.0,0.22577509513108107
2911.0,0.2119731159041962
2910.0,0.19948912310563194
2909.0,0.18842499412940672
2908.0,0.17887967622317635
2907.0,0.17056756638240134
2906.0,0.163359458427226
2905.0,0.15701652987778258
2904.0,0.1513798825658661
2903.0,0.1463626180414057
2902.0,0.1419442819496357
2901.0,0.1380476250785483
2900.0,0.13471831500438958
2899.0,0.13176713157753506
2898.0,0.12889429901441463
2897.0,0.12586622117202761
2896.0,0.12268625668776156
2895.0,0.11941504393502012
2894.0,0.11622503864474187
2893.0,0.1130019543289007
2892.0,0.1098585399354226
2891.0,0.10668218838388821
2890.0,0.1033635694704158
2889.0,0.09996076451267522
2888.0,0.09653017149282994
2887.0,0.09318028453345462
2886.0,0.08985603893548699
2885.0,0.08645104209348209
2884.0,0.08317771540408803
2883.0,0.07992887570247587
2882.0,0.07685964397479927
2881.0,0.07386342893255127
2880.0,0.0709900145060387
2879.0,0.0681862960408608
2878.0,0.06560255921901192
2877.0,0.06323500239005853
2876.0,0.0611301784870133
2875.0,0.05928434309333741
2874.0,0.05764465029232335
2873.0,0.05625823416868636
2872.0,0.055122694036304765
2871.0,0.05423607688882637
2870.0,0.05354773498692689
2869.0,0.053203972728539606
2868.0,0.0531548860393769
2867.0,0.05354773498692689
2866.0,0.05448217792216048
2865.0,0.05606053552778367
2864.0,0.05843887976392925
2863.0,0.061580354206806964
2862.0,0.06560255921901192
2861.0,0.07058107428570715
2860.0,0.07665234350217442
2859.0,0.08396738981143059
2858.0,0.09274991711867164
2857.0,0.10319830233507843
2856.0,0.11560117444331386
2855.0,0.13041629228657614
2854.0,0.14800825203784274
2853.0,0.16845014800424418
2852.0,0.19084446825281964
2851.0,0.21317762050081246
2850.0,0.23158391178366822
2849.0,0.24214865631442017
2848.0,0.24245214653075609
2847.0,0.2330669061627162
2846.0,0.21724080737600282
2845.0,0.19845909380968174
2844.0,0.17953580942231584
2843.0,0.1619068615544017
2842.0,0.14624096692523136
2841.0,0.13265038281120756
2840.0,0.12107626603243293
2839.0,0.11120293254331926
2838.0,0.10275789719463457
2837.0,0.09560907998763835
2836.0,0.08942895151874142
2835.0,0.08417821237960132
2834.0,0.07961575782164254
2833.0,0.0756173227980268
2832.0,0.07206531825882068
2831.0,0.06894915322260897
2830.0,0.06610796423578891
2829.0,0.06358680028852026
2828.0,0.06133019897732073
2827.0,0.05923456436878238
2826.0,0.05729763111133224
2825.0,0.05546797900801881
2824.0,0.053842605077627725
2823.0,0.05237025261564554
2822.0,0.05100054597304693
2821.0,0.04973253198641148
2820.0,0.048565334467987054
2819.0,0.047352830241056854
2818.0,0.04624030826677128
2817.0,0.0451788169482068
2816.0,0.044167989767578186
2815.0,0.04325545471730896
2814.0,0.042392712939904875
2813.0,0.041579471947481794
2812.0,0.04076775094900409
2811.0,0.03995754427315856
2810.0,0.03919637508823026
2809.0,0.038436537637930535
2808.0,0.03782014709123227
2807.0,0.037251946641359446
2806.0,0.03663723389626394
2805.0,0.03602339000339416
2804.0,0.03541041251009669
2803.0,0.03475124903287918
2802.0,0.034187046963396917
2801.0,0.03371743783253667
2800.0,0.033295223342125535
2799.0,0.032873418923587305
2798.0,0.03245202378113787
2797.0,0.03193753992355086
2796.0,0.03142366482450232
2795.0,0.030957032694186815
2794.0,0.030490901403433135
2793.0,0.03002526987828502
2792.0,0.02960662792039992
2791.0,0.029188389127482228
2790.0,0.028770552723758724
2789.0,0.028445846553939003
2788.0,0.028167720075074953
2787.0,0.027889771597169544
2786.0,0.02751945012352408
2785.0,0.02710321556345563
2784.0,0.026687379547098322
2783.0,0.026225806029419818
2782.0,0.025856900097785074
2781.0,0.02544225514642018
2780.0,0.025074013910237447
2779.0,0.024706084643793647
2778.0,0.024430342106337877
2777.0,0.024154774532432866
2776.0,0.023879381700184332
2775.0,0.02365002099672653
2774.0,0.02342078135989012
2773.0,0.023283295636617574
2772.0,0.02314585342378117
2771.0,0.02296266477531872
2770.0,0.02277955336461468
2769.0,0.022505030926963654
2768.0,0.022230681908425698
2767.0,0.02200219004126036
2766.0,0.021773818325474092
2765.0,0.02159120737696063
2764.0,0.0214542995372613
2763.0,0.021363051615525652
2762.0,0.02122621566987748
2761.0,0.021043834782408455
2760.0,0.020861530453190058
2759.0,0.020724852408976924
2758.0,0.02058821736556471
2757.0,0.020406104151069693
2756.0,0.02022406727031445
2755.0,0.02004210665933459
2754.0,0.01990568621470623
2753.0,0.019814763052665052
2752.0,0.019723858922159776
2751.0,0.019632973815224997
2750.0,0.01949668180660491
2749.0,0.019315025636685412
2748.0,0.019178833355664393
2747.0,0.0190880622231564
2746.0,0.019042683770379876
2745.0,0.01899731005860028
2744.0,0.018906576854070378
2743.0,0.018815862601645694
2742.0,0.018770512579999288
2741.0,0.018770512579999288
2740.0,0.018815862601645694
2739.0,0.018815862601645694
2738.0,0.018725167293411005
2737.0,0.01858915983411169
2736.0,0.01840788278591865
2735.0,0.018271974638383703
2734.0,0.018181392829336396
2733.0,0.018226681372252695
2732.0,0.018271974638383703
2731.0,0.018271974638383703
2730.0,0.018181392829336396
2729.0,0.01800028587012159
2728.0,0.01781925440359733
2727.0,0.017728766960431575
2726.0,0.01768353030793479
2725.0,0.017638298366853045
2724.0,0.01759307113620534
2723.0,0.017502630802287644
2722.0,0.017367005605150476
2721.0,0.017186237868137555
2720.0,0.017050711425501408
2719.0,0.016915227262211507
2718.0,0.016824927962187042
2717.0,0.016824927962187042
2716.0,0.01677978535189717
2715.0,0.016734647433454652
2714.0,0.016644385668211692
2713.0,0.01646391839700767
2712.0,0.016238439713835096
2711.0,0.016103208673694303
2710.0,0.016013078034810446
2709.0,0.016013078034810446
2708.0,0.016013078034810446
2707.0,0.01596801972881945
2706.0,0.015922966097169144
2705.0,0.015877917138889863
2704.0,0.015877917138889863
2703.0,0.015832872853011715
2702.0,0.01578783323856614
2701.0,0.015697768020096703
2700.0,0.015607721475734415
2699.0,0.01547268665620738
2698.0,0.01538268676325183
2697.0,0.01538268676325183
2696.0,0.01538268676325183
2695.0,0.015427684378367834
2694.0,0.01547268665620738
2693.0,0.01547268665620738
2692.0,0.01547268665620738
2691.0,0.015427684378367834
2690.0,0.015292705517326866
2689.0,0.015202742910707112
2688.0,0.015112798935672522
2687.0,0.015022873584506602
2686.0,0.015022873584506602
2685.0,0.015022873584506602
2684.0,0.015022873584506602
2683.0,0.015067833932588037
2682.0,0.015157768594724175
2681.0,0.015202742910707112
2680.0,0.015247721884586563
2679.0,0.015292705517326866
2678.0,0.015292705517326866
2677.0,0.015247721884586563
2676.0,0.015157768594724175
2675.0,0.015067833932588037
2674.0,0.015067833932588037
2673.0,0.015067833932588037
2672.0,0.015157768594724175
2671.0,0.015247721884586563
2670.0,0.015292705517326866
2669.0,0.015292705517326866
2668.0,0.015202742910707112
2667.0,0.015112798935672522
2666.0,0.015067833932588037
2665.0,0.015022873584506602
2664.0,0.015067833932588037
2663.0,0.015112798935672522
2662.0,0.015112798935672522
2661.0,0.015067833932588037
2660.0,0.014977917890464765
2659.0,0.014932966849499074
2658.0,0.014888020460646079
2657.0,0.014888020460646079
2656.0,0.014888020460646079
2655.0,0.014798141635428141
2654.0,0.014753209197138295
2653.0,0.014663358264387139
2652.0,0.014573525916998342
2651.0,0.0144837121472845
2650.0,0.0144837121472845
2649.0,0.0144837121472845
2648.0,0.01452861671041239
2647.0,0.01452861671041239
2646.0,0.0144837121472845
2645.0,0.0144837121472845
2644.0,0.014438812226654996
2643.0,0.014438812226654996
2642.0,0.0144837121472845
2641.0,0.01452861671041239
2640.0,0.01452861671041239
2639.0,0.01452861671041239
2638.0,0.01452861671041239
2637.0,0.0144837121472845
2636.0,0.014393916947563534
2635.0,0.014349026309051105
2634.0,0.014259258949925524
2633.0,0.014214382227394795
2632.0,0.014169510141607944
2631.0,0.014079779876432497
2630.0,0.013945219230304673
2629.0,0.01381070026317599
2628.0,0.013676222949234651
2627.0,0.013586594534531482
2626.0,0.013586594534531482
2625.0,0.013586594534531482
2624.0,0.013586594534531482
2623.0,0.013541787262693505
2622.0,0.013452186585275916
2621.0,0.013362604389846044
2620.0,0.013273040668781544
2619.0,0.01322826573375524
2618.0,0.01318349541446362
2617.0,0.013093968619278806
2616.0,0.012959713020733288
2615.0,0.012870232340102872
2614.0,0.012825498912458322
2613.0,0.012780770091995297
2612.0,0.012736045877764557
2611.0,0.012691326268817527
2610.0,0.01264661126420652
2609.0,0.012557195064198723
2608.0,0.012512493866907004
2607.0,0.012512493866907004
2606.0,0.012467797270160563
2605.0,0.012423105273012602
2604.0,0.012333735073725371
2603.0,0.012244383261476699
2602.0,0.012199714248127602
2601.0,0.012110390002254778
2600.0,0.012065734767841452
2599.0,0.012021084124518078
2598.0,0.012021084124518078
2597.0,0.012110390002254778
2596.0,0.01215504982870197
2595.0,0.01215504982870197
2594.0,0.012110390002254778
2593.0,0.012021084124518078
2592.0,0.011887159731648111
2591.0,0.011797899741219142
2590.0,0.011664044143949504
2589.0,0.011574829993696856
2588.0,0.011530229790124524
2587.0,0.011485634166333858
2586.0,0.011396456654336085
2585.0,0.011396456654336085
2584.0,0.011396456654336085
2583.0,0.011396456654336085
2582.0,0.011396456654336085
2581.0,0.011307297450183107
2580.0,0.011218156546359825
2579.0,0.01117359295472431
2578.0,0.01117359295472431
2577.0,0.011218156546359825
2576.0,0.01117359295472431
2575.0,0.011129033935354915
2574.0,0.010995384301463185
2573.0,0.01086177578421088
2572.0,0.01077272626946324
2571.0,0.010728208358306901
2570.0,0.010728208358306901
2569.0,0.010817248744452446
2568.0,0.010906307389674463
2567.0,0.010950843561779777
2566.0,0.010906307389674463
2565.0,0.010817248744452446
2564.0,0.010683695010048622
2563.0,0.010639186223752484
2562.0,0.010594681998483901
2561.0,0.010550182333308289
2560.0,0.010505687227290839
2559.0,0.01046119667949763
2558.0,0.01046119667949763
2557.0,0.01046119667949763
2556.0,0.01046119667949763
2555.0,0.01046119667949763
2554.0,0.01037222925484893
2553.0,0.01023881228122181
2552.0,0.010194349063173958
2551.0,0.010194349063173958
2550.0,0.010283280051895272
2549.0,0.010283280051895272
2548.0,0.01023881228122181
2547.0,0.010149890396819572
2546.0,0.010060986715464404
2545.0,0.01001654169860089
2544.0,0.009972101229705377
2543.0,0.009927665307847056
2542.0,0.009927665307847056
2541.0,0.009927665307847056
2540.0,0.009883233932095559
2539.0,0.009838807101520963
2538.0,0.009838807101520963
2537.0,0.009838807101520963
2536.0,0.009838807101520963
2535.0,0.009883233932095559
2534.0,0.009883233932095559
2533.0,0.009883233932095559
2532.0,0.009883233932095559
2531.0,0.009883233932095559
2530.0,0.009794384815193347
2529.0,0.00974996707218323
2528.0,0.009705553871561357
2527.0,0.009705553871561357
2526.0,0.00966114521239847
2525.0,0.00966114521239847
2524.0,0.009616741093766423
2523.0,0.009527946474380489
2522.0,0.009527946474380489
2521.0,0.009527946474380489
2520.0,0.009483555971770974
2519.0,0.009439170005980158
2518.0,0.009483555971770974
2517.0,0.009527946474380489
2516.0,0.009572341514736404
2515.0,0.009527946474380489
2514.0,0.009483555971770974
2513.0,0.009350411681145587
2512.0,0.009261671492462709
2511.0,0.009128595198514056
2510.0,0.008995559669244813
2509.0,0.008906891951112605
2508.0,0.008818242332126802
2507.0,0.008773924307505121
2506.0,0.008818242332126802
2505.0,0.008906891951112605
2504.0,0.009039900317800775
2503.0,0.00908424549391551
2502.0,0.009128595198514056
2501.0,0.009128595198514056
2500.0,0.00908424549391551
2499.0,0.009039900317800775
2498.0,0.009039900317800775
2497.0,0.008995559669244813
2496.0,0.008906891951112605
2495.0,0.008818242332126802
2494.0,0.0087296108049002
2493.0,0.0087296108049002
2492.0,0.008773924307505121
2491.0,0.008773924307505121
2490.0,0.008773924307505121
2489.0,0.008773924307505121
2488.0,0.008773924307505121
2487.0,0.0087296108049002
2486.0,0.0087296108049002
2485.0,0.0087296108049002
2484.0,0.008773924307505121
2483.0,0.008818242332126802
2482.0,0.008818242332126802
2481.0,0.008818242332126802
2480.0,0.0087296108049002
2479.0,0.008640997362049818
2478.0,0.008596697419959609
2477.0,0.008552401996197112
2476.0,0.008552401996197112
2475.0,0.008552401996197112
2474.0,0.00850811108984062
2473.0,0.008463824699968647
2472.0,0.008463824699968647
2471.0,0.008419542825660153
2470.0,0.008375265465994541
2469.0,0.008286724286910463
2468.0,0.008198201155356077
2467.0,0.008153946355103248
2466.0,0.008198201155356077
2465.0,0.008242460465651913
2464.0,0.008286724286910463
2463.0,0.008286724286910463
2462.0,0.008330992620051436
2461.0,0.008375265465994541
2460.0,0.008419542825660153
2459.0,0.008375265465994541
2458.0,0.008330992620051436
2457.0,0.008286724286910463
2456.0,0.008198201155356077
2455.0,0.008109696063975047
2454.0,0.008065450281052211
2453.0,0.008021209005416363
2452.0,0.008065450281052211
2451.0,0.008198201155356077
2450.0,0.008286724286910463
2449.0,0.008330992620051436
2448.0,0.008330992620051436
2447.0,0.008330992620051436
2446.0,0.008286724286910463
2445.0,0.008198201155356077
2444.0,0.008153946355103248
2443.0,0.008109696063975047
2442.0,0.008109696063975047
2441.0,0.008198201155356077
2440.0,0.008242460465651913
2439.0,0.008242460465651913
2438.0,0.008198201155356077
2437.0,0.008109696063975047
2436.0,0.007976972236149349
2435.0,0.007932739972333236
2434.0,0.007932739972333236
2433.0,0.007932739972333236
2432.0,0.007976972236149349
2431.0,0.008021209005416363
2430.0,0.008021209005416363
2429.0,0.008065450281052211
2428.0,0.008153946355103248
2427.0,0.008198201155356077
2426.0,0.008242460465651913
2425.0,0.008242460465651913
2424.0,0.008198201155356077
2423.0,0.008153946355103248
2422.0,0.008109696063975047
2421.0,0.008109696063975047
2420.0,0.008065450281052211
2419.0,0.008065450281052211
2418.0,0.008065450281052211
2417.0,0.008065450281052211
2416.0,0.008065450281052211
2415.0,0.008021209005416363
2414.0,0.007976972236149349
2413.0,0.007932739972333236
2412.0,0.007932739972333236
2411.0,0.007976972236149349
2410.0,0.007932739972333236
2409.0,0.007932739972333236
2408.0,0.007844288957383316
2407.0,0.007800070204414977
2406.0,0.007755855953228474
2405.0,0.007755855953228474
2404.0,0.007711646202907652
2403.0,0.007711646202907652
2402.0,0.007711646202907652
2401.0,0.007711646202907652
2400.0,0.007711646202907652
2399.0,0.007755855953228474
2398.0,0.007844288957383316
2397.0,0.007932739972333236
2396.0,0.008021209005416363
2395.0,0.008021209005416363
2394.0,0.008021209005416363
2393.0,0.007976972236149349
2392.0,0.007888512213050314
2391.0,0.007844288957383316
2390.0,0.007844288957383316
2389.0,0.007888512213050314
2388.0,0.007932739972333236
2387.0,0.007932739972333236
2386.0,0.007888512213050314
2385.0,0.007844288957383316
2384.0,0.007755855953228474
2383.0,0.007755855953228474
2382.0,0.007800070204414977
2381.0,0.007844288957383316
2380.0,0.007888512213050314
2379.0,0.007932739972333236
2378.0,0.007976972236149349
2377.0,0.008021209005416363
2376.0,0.007932739972333236
2375.0,0.007800070204414977
2374.0,0.007667440952535687
2373.0,0.007667440952535687
2372.0,0.007755855953228474
2371.0,0.007800070204414977
2370.0,0.007755855953228474
2369.0,0.007711646202907652
2368.0,0.007755855953228474
2367.0,0.007932739972333236
2366.0,0.008153946355103248
2365.0,0.008153946355103248
2364.0,0.007844288957383316
2363.0,0.0074464821678643656
2362.0,0.007313960837872058
2361.0,0.007358130121602358
2360.0,0.007534852191956709
2359.0,0.007755855953228474
2358.0,0.008198201155356077
2357.0,0.00850811108984062
2356.0,0.008286724286910463
2355.0,0.007711646202907652
2354.0,0.007313960837872058
2353.0,0.007402303897961815
2352.0,0.007667440952535687
2351.0,0.007667440952535687
2350.0,0.007402303897961815
2349.0,0.007049039429553483
2348.0,0.006784279525863024
2347.0,0.006607862550997545
2346.0,0.006651960076740071
2345.0,0.006916639301937977
2344.0,0.007402303897961815
2343.0,0.007932739972333236
2342.0,0.00850811108984062
2341.0,0.008773924307505121
2340.0,0.008419542825660153
2339.0,0.00762324020119709
2338.0,0.00696076819309055
2337.0,0.006784279525863024
2336.0,0.006872514894289861
2335.0,0.00696076819309055
2334.0,0.007049039429553483
2333.0,0.007269796045857202
2332.0,0.0074464821678643656
2331.0,0.007534852191956709
2330.0,0.007490664932224611
2329.0,0.0074464821678643656
2328.0,0.007269796045857202
2327.0,0.007049039429553483
2326.0,0.00696076819309055
2325.0,0.00696076819309055
2324.0,0.007093181776687496
2323.0,0.007225635744644521
2322.0,0.007313960837872058
2321.0,0.007269796045857202
2320.0,0.007093181776687496
2319.0,0.007004901568658406
2318.0,0.007093181776687496
2317.0,0.007313960837872058
2316.0,0.0074464821678643656
2315.0,0.007313960837872058
2314.0,0.007049039429553483
2313.0,0.006696062080525422
2312.0,0.006431517210272464
2311.0,0.006299305179649828
2310.0,0.006299305179649828
2309.0,0.006431517210272464
2308.0,0.006607862550997545
2307.0,0.006740168563263094
2306.0,0.006784279525863024
2305.0,0.006784279525863024
2304.0,0.006740168563263094
2303.0,0.006651960076740071
2302.0,0.006651960076740071
2301.0,0.006696062080525422
2300.0,0.006784279525863024
2299.0,0.006828394969235152
2298.0,0.006872514894289861
2297.0,0.006872514894289861
2296.0,0.006916639301937977
2295.0,0.007004901568658406
2294.0,0.007093181776687496
2293.0,0.007137328610972382
2292.0,0.007181479933320523
2291.0,0.007181479933320523
2290.0,0.007181479933320523
2289.0,0.007181479933320523
2288.0,0.007225635744644521
2287.0,0.007269796045857202
2286.0,0.007313960837872058
2285.0,0.007358130121602358
2284.0,0.007358130121602358
2283.0,0.007313960837872058
2282.0,0.007269796045857202
2281.0,0.007225635744644521
2280.0,0.007181479933320523
2279.0,0.007137328610972382
2278.0,0.007137328610972382
2277.0,0.007181479933320523
2276.0,0.007269796045857202
2275.0,0.007358130121602358
2274.0,0.007358130121602358
2273.0,0.007358130121602358
2272.0,0.007269796045857202
2271.0,0.007225635744644521
2270.0,0.007225635744644521
2269.0,0.007225635744644521
2268.0,0.007225635744644521
2267.0,0.007269796045857202
2266.0,0.007269796045857202
2265.0,0.007225635744644521
2264.0,0.007225635744644521
2263.0,0.007269796045857202
2262.0,0.007313960837872058
2261.0,0.007269796045857202
2260.0,0.007225635744644521
2259.0,0.007181479933320523
2258.0,0.007181479933320523
2257.0,0.007225635744644521
2256.0,0.007269796045857202
2255.0,0.007225635744644521
2254.0,0.007181479933320523
2253.0,0.007137328610972382
2252.0,0.007093181776687496
2251.0,0.007093181776687496
2250.0,0.007093181776687496
2249.0,0.007137328610972382
2248.0,0.007181479933320523
2247.0,0.007137328610972382
2246.0,0.007093181776687496
2245.0,0.007004901568658406
2244.0,0.006916639301937977
2243.0,0.006916639301937977
2242.0,0.006916639301937977
2241.0,0.00696076819309055
2240.0,0.007049039429553483
2239.0,0.007093181776687496
2238.0,0.007093181776687496
2237.0,0.007049039429553483
2236.0,0.007004901568658406
2235.0,0.007004901568658406
2234.0,0.007049039429553483
2233.0,0.007137328610972382
2232.0,0.007181479933320523
2231.0,0.007225635744644521
2230.0,0.007225635744644521
2229.0,0.007181479933320523
2228.0,0.007093181776687496
2227.0,0.007049039429553483
2226.0,0.007049039429553483
2225.0,0.007093181776687496
2224.0,0.007137328610972382
2223.0,0.007137328610972382
2222.0,0.007093181776687496
2221.0,0.007004901568658406
2220.0,0.00696076819309055
2219.0,0.00696076819309055
2218.0,0.007004901568658406
2217.0,0.007049039429553483
2216.0,0.007049039429553483
2215.0,0.007049039429553483
2214.0,0.007004901568658406
2213.0,0.00696076819309055
2212.0,0.006916639301937977
2211.0,0.006916639301937977
2210.0,0.006916639301937977
2209.0,0.007004901568658406
2208.0,0.007004901568658406
2207.0,0.007049039429553483
2206.0,0.007004901568658406
2205.0,0.00696076819309055
2204.0,0.006916639301937977
2203.0,0.006828394969235152
2202.0,0.006828394969235152
2201.0,0.006828394969235152
2200.0,0.006916639301937977
2199.0,0.007004901568658406
2198.0,0.007093181776687496
2197.0,0.007093181776687496
2196.0,0.007093181776687496
2195.0,0.007049039429553483
2194.0,0.007049039429553483
2193.0,0.007049039429553483
2192.0,0.007004901568658406
2191.0,0.006916639301937977
2190.0,0.006872514894289861
2189.0,0.006828394969235152
2188.0,0.006784279525863024
2187.0,0.006828394969235152
2186.0,0.006828394969235152
2185.0,0.006872514894289861
2184.0,0.006872514894289861
2183.0,0.006916639301937977
2182.0,0.006916639301937977
2181.0,0.00696076819309055
2180.0,0.006916639301937977
2179.0,0.006872514894289861
2178.0,0.006784279525863024
2177.0,0.006740168563263094
2176.0,0.006740168563263094
2175.0,0.006696062080525422
2174.0,0.006740168563263094
2173.0,0.006784279525863024
2172.0,0.006872514894289861
2171.0,0.00696076819309055
2170.0,0.007049039429553483
2169.0,0.007093181776687496
2168.0,0.007137328610972382
2167.0,0.007093181776687496
2166.0,0.007049039429553483
2165.0,0.007049039429553483
2164.0,0.007049039429553483
2163.0,0.007049039429553483
2162.0,0.007049039429553483
2161.0,0.007093181776687496
2160.0,0.007093181776687496
2159.0,0.007093181776687496
2158.0,0.007093181776687496
2157.0,0.007137328610972382
2156.0,0.007093181776687496
2155.0,0.007049039429553483
2154.0,0.00696076819309055
2153.0,0.006916639301937977
2152.0,0.006916639301937977
2151.0,0.006916639301937977
2150.0,0.00696076819309055
2149.0,0.007004901568658406
2148.0,0.007049039429553483
2147.0,0.007049039429553483
2146.0,0.007049039429553483
2145.0,0.00696076819309055
2144.0,0.006872514894289861
2143.0,0.006784279525863024
2142.0,0.006740168563263094
2141.0,0.006740168563263094
2140.0,0.006784279525863024
2139.0,0.006828394969235152
2138.0,0.006828394969235152
2137.0,0.006784279525863024
2136.0,0.006740168563263094
2135.0,0.006740168563263094
2134.0,0.006740168563263094
2133.0,0.006696062080525422
2132.0,0.006696062080525422
2131.0,0.006696062080525422
2130.0,0.006696062080525422
2129.0,0.006651960076740071
2128.0,0.006607862550997545
2127.0,0.006607862550997545
2126.0,0.006607862550997545
2125.0,0.006651960076740071
2124.0,0.006696062080525422
2123.0,0.006740168563263094
2122.0,0.006740168563263094
2121.0,0.006696062080525422
2120.0,0.006651960076740071
2119.0,0.006651960076740071
2118.0,0.006607862550997545
2117.0,0.00656376950238835
2116.0,0.006519680930003435
2115.0,0.006475596832934416
2114.0,0.006519680930003435
2113.0,0.00656376950238835
2112.0,0.006607862550997545
2111.0,0.006607862550997545
2110.0,0.00656376950238835
2109.0,0.006519680930003435
2108.0,0.006519680930003435
2107.0,0.00656376950238835
2106.0,0.006607862550997545
2105.0,0.006696062080525422
2104.0,0.006696062080525422
2103.0,0.006696062080525422
2102.0,0.006696062080525422
2101.0,0.006607862550997545
2100.0,0.006475596832934416
2099.0,0.006387442061109638
2098.0,0.006387442061109638
2097.0,0.006475596832934416
2096.0,0.00656376950238835
2095.0,0.006651960076740071
2094.0,0.006696062080525422
2093.0,0.006696062080525422
2092.0,0.006696062080525422
2091.0,0.006696062080525422
2090.0,0.006651960076740071
2089.0,0.006651960076740071
2088.0,0.006651960076740071
2087.0,0.006651960076740071
2086.0,0.006696062080525422
2085.0,0.006696062080525422
2084.0,0.006651960076740071
2083.0,0.006607862550997545
2082.0,0.00656376950238835
2081.0,0.00656376950238835
2080.0,0.00656376950238835
2079.0,0.006607862550997545
2078.0,0.006651960076740071
2077.0,0.006696062080525422
2076.0,0.006696062080525422
2075.0,0.006651960076740071
2074.0,0.00656376950238835
2073.0,0.006475596832934416
2072.0,0.006431517210272464
2071.0,0.006387442061109638
2070.0,0.006431517210272464
2069.0,0.006519680930003435
2068.0,0.006607862550997545
2067.0,0.006651960076740071
2066.0,0.006651960076740071
2065.0,0.006651960076740071
2064.0,0.006651960076740071
2063.0,0.006696062080525422
2062.0,0.006740168563263094
2061.0,0.006784279525863024
2060.0,0.006828394969235152
2059.0,0.006784279525863024
2058.0,0.006784279525863024
2057.0,0.006784279525863024
2056.0,0.006828394969235152
2055.0,0.006828394969235152
2054.0,0.006784279525863024
2053.0,0.006696062080525422
2052.0,0.006696062080525422
2051.0,0.006740168563263094
2050.0,0.006828394969235152
2049.0,0.006916639301937977
2048.0,0.006916639301937977
2047.0,0.006916639301937977
2046.0,0.006916639301937977
2045.0,0.00696076819309055
2044.0,0.00696076819309055
2043.0,0.006916639301937977
2042.0,0.006872514894289861
2041.0,0.006828394969235152
2040.0,0.006872514894289861
2039.0,0.006872514894289861
2038.0,0.006916639301937977
2037.0,0.006916639301937977
2036.0,0.006916639301937977
2035.0,0.007004901568658406
2034.0,0.007049039429553483
2033.0,0.007093181776687496
2032.0,0.007137328610972382
2031.0,0.007137328610972382
2030.0,0.007093181776687496
2029.0,0.007049039429553483
2028.0,0.007049039429553483
2027.0,0.007049039429553483
2026.0,0.007093181776687496
2025.0,0.007137328610972382
2024.0,0.007137328610972382
2023.0,0.007137328610972382
2022.0,0.007181479933320523
2021.0,0.007225635744644521
2020.0,0.007269796045857202
2019.0,0.007313960837872058
2018.0,0.007269796045857202
2017.0,0.007181479933320523
2016.0,0.007093181776687496
2015.0,0.00696076819309055
2014.0,0.006916639301937977
2013.0,0.006916639301937977
2012.0,0.00696076819309055
2011.0,0.007004901568658406
2010.0,0.007004901568658406
2009.0,0.007004901568658406
2008.0,0.00696076819309055
2007.0,0.00696076819309055
2006.0,0.00696076819309055
2005.0,0.00696076819309055
2004.0,0.006916639301937977
2003.0,0.006872514894289861
2002.0,0.006828394969235152
2001.0,0.006784279525863024
2000.0,0.006784279525863024
1999.0,0.006784279525863024
1998.0,0.006740168563263094
1997.0,0.006696062080525422
1996.0,0.006651960076740071
1995.0,0.006651960076740071
1994.0,0.006607862550997545
1993.0,0.006607862550997545
1992.0,0.006651960076740071
1991.0,0.006651960076740071
1990.0,0.006651960076740071
1989.0,0.006651960076740071
1988.0,0.006607862550997545
1987.0,0.006607862550997545
1986.0,0.006607862550997545
1985.0,0.006607862550997545
1984.0,0.006607862550997545
1983.0,0.006607862550997545
1982.0,0.006651960076740071
1981.0,0.006696062080525422
1980.0,0.006696062080525422
1979.0,0.006696062080525422
1978.0,0.006740168563263094
1977.0,0.006696062080525422
1976.0,0.006696062080525422
1975.0,0.006651960076740071
1974.0,0.006607862550997545
1973.0,0.00656376950238835
1972.0,0.006607862550997545
1971.0,0.006607862550997545
1970.0,0.006696062080525422
1969.0,0.006784279525863024
1968.0,0.006784279525863024
1967.0,0.006784279525863024
1966.0,0.006696062080525422
1965.0,0.006651960076740071
1964.0,0.006651960076740071
1963.0,0.006651960076740071
1962.0,0.006651960076740071
1961.0,0.006607862550997545
1960.0,0.00656376950238835
1959.0,0.00656376950238835
1958.0,0.00656376950238835
1957.0,0.00656376950238835
1956.0,0.006519680930003435
1955.0,0.006475596832934416
1954.0,0.006475596832934416
1953.0,0.006475596832934416
1952.0,0.006519680930003435
1951.0,0.006519680930003435
1950.0,0.006519680930003435
1949.0,0.006475596832934416
1948.0,0.006431517210272464
1947.0,0.006343371384537999
1946.0,0.00625524344553785
1945.0,0.00625524344553785
1944.0,0.006299305179649828
1943.0,0.006387442061109638
1942.0,0.006519680930003435
1941.0,0.00656376950238835
1940.0,0.00656376950238835
1939.0,0.006519680930003435
1938.0,0.006431517210272464
1937.0,0.006343371384537999
1936.0,0.006343371384537999
1935.0,0.006343371384537999
1934.0,0.006387442061109638
1933.0,0.006475596832934416
1932.0,0.006519680930003435
1931.0,0.00656376950238835
1930.0,0.00656376950238835
1929.0,0.00656376950238835
1928.0,0.006519680930003435
1927.0,0.006475596832934416
1926.0,0.006431517210272464
1925.0,0.006431517210272464
1924.0,0.006475596832934416
1923.0,0.006519680930003435
1922.0,0.00656376950238835
1921.0,0.006607862550997545
1920.0,0.006607862550997545
1919.0,0.006607862550997545
1918.0,0.006607862550997545
1917.0,0.006651960076740071
1916.0,0.006651960076740071
1915.0,0.006607862550997545
1914.0,0.006607862550997545
1913.0,0.006607862550997545
1912.0,0.006651960076740071
1911.0,0.006696062080525422
1910.0,0.006740168563263094
1909.0,0.006740168563263094
1908.0,0.006740168563263094
1907.0,0.006740168563263094
1906.0,0.006740168563263094
1905.0,0.006784279525863024
1904.0,0.006784279525863024
1903.0,0.006828394969235152
1902.0,0.006828394969235152
1901.0,0.006828394969235152
1900.0,0.006828394969235152
1899.0,0.006828394969235152
1898.0,0.006784279525863024
1897.0,0.006784279525863024
1896.0,0.006784279525863024
1895.0,0.006828394969235152
1894.0,0.006828394969235152
1893.0,0.006872514894289861
1892.0,0.006828394969235152
1891.0,0.006740168563263094
1890.0,0.006696062080525422
1889.0,0.006651960076740071
1888.0,0.006651960076740071
1887.0,0.006607862550997545
1886.0,0.006607862550997545
1885.0,0.00656376950238835
1884.0,0.006519680930003435
1883.0,0.006475596832934416
1882.0,0.006519680930003435
1881.0,0.006519680930003435
1880.0,0.00656376950238835
1879.0,0.00656376950238835
1878.0,0.00656376950238835
1877.0,0.006519680930003435
1876.0,0.006519680930003435
1875.0,0.006519680930003435
1874.0,0.006519680930003435
1873.0,0.006475596832934416
1872.0,0.006431517210272464
1871.0,0.006343371384537999
1870.0,0.006299305179649828
1869.0,0.006299305179649828
1868.0,0.006387442061109638
1867.0,0.006431517210272464
1866.0,0.006475596832934416
1865.0,0.006475596832934416
1864.0,0.006475596832934416
1863.0,0.006431517210272464
1862.0,0.006387442061109638
1861.0,0.006387442061109638
1860.0,0.006299305179649828
1859.0,0.00625524344553785
1858.0,0.00621118618129457
1857.0,0.00621118618129457
1856.0,0.00621118618129457
1855.0,0.00621118618129457
1854.0,0.00625524344553785
1853.0,0.006299305179649828
1852.0,0.006343371384537999
1851.0,0.006387442061109638
1850.0,0.006387442061109638
1849.0,0.006387442061109638
1848.0,0.006343371384537999
1847.0,0.006343371384537999
1846.0,0.006343371384537999
1845.0,0.006387442061109638
1844.0,0.006475596832934416
1843.0,0.006519680930003435
1842.0,0.006519680930003435
1841.0,0.006519680930003435
1840.0,0.006475596832934416
1839.0,0.006431517210272464
1838.0,0.006387442061109638
1837.0,0.006387442061109638
1836.0,0.006343371384537999
1835.0,0.006343371384537999
1834.0,0.006387442061109638
1833.0,0.006431517210272464
1832.0,0.006475596832934416
1831.0,0.006519680930003435
1830.0,0.006519680930003435
1829.0,0.006519680930003435
1828.0,0.006431517210272464
1827.0,0.006343371384537999
1826.0,0.00621118618129457
1825.0,0.00621118618129457
1824.0,0.00621118618129457
1823.0,0.00625524344553785
1822.0,0.00621118618129457
1821.0,0.00621118618129457
1820.0,0.00621118618129457
1819.0,0.00625524344553785
1818.0,0.00625524344553785
1817.0,0.006299305179649828
1816.0,0.006343371384537999
1815.0,0.006299305179649828
1814.0,0.006299305179649828
1813.0,0.006299305179649828
1812.0,0.006387442061109638
1811.0,0.006387442061109638
1810.0,0.006343371384537999
1809.0,0.006343371384537999
1808.0,0.006343371384537999
1807.0,0.006299305179649828
1806.0,0.00625524344553785
1805.0,0.00625524344553785
1804.0,0.00625524344553785
1803.0,0.00625524344553785
1802.0,0.006299305179649828
1801.0,0.006343371384537999
1800.0,0.006343371384537999
1799.0,0.006299305179649828
1798.0,0.00625524344553785
1797.0,0.00621118618129457
1796.0,0.00621118618129457
1795.0,0.00621118618129457
1794.0,0.00621118618129457
1793.0,0.00621118618129457
1792.0,0.00625524344553785
1791.0,0.00621118618129457
1790.0,0.00621118618129457
1789.0,0.00625524344553785
1788.0,0.006299305179649828
1787.0,0.006343371384537999
1786.0,0.006343371384537999
1785.0,0.006343371384537999
1784.0,0.006343371384537999
1783.0,0.006299305179649828
1782.0,0.006299305179649828
1781.0,0.006343371384537999
1780.0,0.006431517210272464
1779.0,0.006475596832934416
1778.0,0.006519680930003435
1777.0,0.006475596832934416
1776.0,0.006431517210272464
1775.0,0.006387442061109638
1774.0,0.006387442061109638
1773.0,0.006431517210272464
1772.0,0.00656376950238835
1771.0,0.006651960076740071
1770.0,0.006651960076740071
1769.0,0.006651960076740071
1768.0,0.006651960076740071
1767.0,0.006651960076740071
1766.0,0.006651960076740071
1765.0,0.006651960076740071
1764.0,0.00656376950238835
1763.0,0.006475596832934416
1762.0,0.006431517210272464
1761.0,0.006475596832934416
1760.0,0.006519680930003435
1759.0,0.006607862550997545
1758.0,0.006651960076740071
1757.0,0.006696062080525422
1756.0,0.006784279525863024
1755.0,0.006828394969235152
1754.0,0.006872514894289861
1753.0,0.006872514894289861
1752.0,0.006916639301937977
1751.0,0.00696076819309055
1750.0,0.007049039429553483
1749.0,0.007225635744644521
1748.0,0.007358130121602358
1747.0,0.007490664932224611
1746.0,0.007534852191956709
1745.0,0.0075790439479759275
1744.0,0.007667440952535687
1743.0,0.007667440952535687
1742.0,0.007667440952535687
1741.0,0.00762324020119709
1740.0,0.0075790439479759275
1739.0,0.007534852191956709
1738.0,0.007490664932224611
1737.0,0.0074464821678643656
1736.0,0.007402303897961815
1735.0,0.007358130121602358
1734.0,0.007490664932224611
1733.0,0.007667440952535687
1732.0,0.007800070204414977
1731.0,0.007932739972333236
1730.0,0.008021209005416363
1729.0,0.008153946355103248
1728.0,0.008242460465651913
1727.0,0.008375265465994541
1726.0,0.008596697419959609
1725.0,0.008862564879688284
1724.0,0.00908424549391551
1723.0,0.009217308196862062
1722.0,0.009217308196862062
1721.0,0.009261671492462709
1720.0,0.009306039320248427
1719.0,0.009439170005980158
1718.0,0.00966114521239847
1717.0,0.009883233932095559
1716.0,0.009927665307847056
1715.0,0.009927665307847056
1714.0,0.009883233932095559
1713.0,0.009838807101520963
1712.0,0.00966114521239847
1711.0,0.009527946474380489
1710.0,0.009350411681145587
1709.0,0.009261671492462709
1708.0,0.009128595198514056
1707.0,0.008951223547323472
1706.0,0.008773924307505121
1705.0,0.008596697419959609
1704.0,0.008419542825660153
1703.0,0.008242460465651913
1702.0,0.008065450281052211
1701.0,0.007932739972333236
1700.0,0.007932739972333236
1699.0,0.007932739972333236
1698.0,0.007976972236149349
1697.0,0.008021209005416363
1696.0,0.007888512213050314
1695.0,0.007711646202907652
1694.0,0.00762324020119709
1693.0,0.007667440952535687
1692.0,0.00762324020119709
1691.0,0.007534852191956709
1690.0,0.0074464821678643656
1689.0,0.007402303897961815
1688.0,0.0074464821678643656
1687.0,0.007490664932224611
1686.0,0.007490664932224611
1685.0,0.007490664932224611
1684.0,0.0074464821678643656
1683.0,0.007358130121602358
1682.0,0.007313960837872058
1681.0,0.007313960837872058
1680.0,0.007313960837872058
1679.0,0.007225635744644521
1678.0,0.007181479933320523
1677.0,0.007137328610972382
1676.0,0.007137328610972382
1675.0,0.007137328610972382
1674.0,0.007137328610972382
1673.0,0.007181479933320523
1672.0,0.007225635744644521
1671.0,0.007225635744644521
1670.0,0.007269796045857202
1669.0,0.007358130121602358
1668.0,0.007402303897961815
1667.0,0.007402303897961815
1666.0,0.007358130121602358
1665.0,0.007358130121602358
1664.0,0.007313960837872058
1663.0,0.007313960837872058
1662.0,0.007313960837872058
1661.0,0.007313960837872058
1660.0,0.007313960837872058
1659.0,0.007358130121602358
1658.0,0.007358130121602358
1657.0,0.007358130121602358
1656.0,0.007358130121602358
1655.0,0.007313960837872058
1654.0,0.007269796045857202
1653.0,0.0074464821678643656
1652.0,0.0074464821678643656
1651.0,0.007402303897961815
1650.0,0.007490664932224611
1649.0,0.0075790439479759275
1648.0,0.007534852191956709
1647.0,0.007490664932224611
1646.0,0.0074464821678643656
1645.0,0.0074464821678643656
1644.0,0.007402303897961815
1643.0,0.007402303897961815
1642.0,0.007358130121602358
1641.0,0.007358130121602358
1640.0,0.007313960837872058
1639.0,0.007269796045857202
1638.0,0.007225635744644521
1637.0,0.007225635744644521
1636.0,0.007313960837872058
1635.0,0.007313960837872058
1634.0,0.007225635744644521
1633.0,0.007225635744644521
1632.0,0.007225635744644521
1631.0,0.007225635744644521
1630.0,0.007181479933320523
1629.0,0.007181479933320523
1628.0,0.007181479933320523
1627.0,0.007137328610972382
1626.0,0.007093181776687496
1625.0,0.007093181776687496
1624.0,0.007137328610972382
1623.0,0.007137328610972382
1622.0,0.007137328610972382
1621.0,0.007137328610972382
1620.0,0.007137328610972382
1619.0,0.007049039429553483
1618.0,0.006916639301937977
1617.0,0.006784279525863024
1616.0,0.006696062080525422
1615.0,0.006651960076740071
1614.0,0.006696062080525422
1613.0,0.006740168563263094
1612.0,0.006740168563263094
1611.0,0.006740168563263094
1610.0,0.006740168563263094
1609.0,0.006784279525863024
1608.0,0.006784279525863024
1607.0,0.006740168563263094
1606.0,0.006696062080525422
1605.0,0.006651960076740071
1604.0,0.006696062080525422
1603.0,0.006740168563263094
1602.0,0.006784279525863024
1601.0,0.006784279525863024
1600.0,0.006740168563263094
1599.0,0.006740168563263094
1598.0,0.006696062080525422
1597.0,0.006696062080525422
1596.0,0.006696062080525422
1595.0,0.006696062080525422
1594.0,0.006740168563263094
1593.0,0.006740168563263094
1592.0,0.006784279525863024
1591.0,0.006740168563263094
1590.0,0.006696062080525422
1589.0,0.006696062080525422
1588.0,0.006696062080525422
1587.0,0.006651960076740071
1586.0,0.006607862550997545
1585.0,0.006519680930003435
1584.0,0.006431517210272464
1583.0,0.006387442061109638
1582.0,0.006343371384537999
1581.0,0.00625524344553785
1580.0,0.00621118618129457
1579.0,0.006167133386013823
1578.0,0.006079041198713275
1577.0,0.005946936412324799
1576.0,0.005946936412324799
1575.0,0.005946936412324799
1574.0,0.006079041198713275
1573.0,0.00621118618129457
1572.0,0.006431517210272464
1571.0,0.006519680930003435
1570.0,0.006475596832934416
1569.0,0.006387442061109638
1568.0,0.006299305179649828
1567.0,0.00621118618129457
1566.0,0.00621118618129457
1565.0,0.00621118618129457
1564.0,0.00625524344553785
1563.0,0.00625524344553785
1562.0,0.00625524344553785
1561.0,0.00625524344553785
1560.0,0.006167133386013823
1559.0,0.006035001804881146
1558.0,0.005858888873877532
1557.0,0.00577085918230158
1556.0,0.005858888873877532
1555.0,0.006035001804881146
1554.0,0.006079041198713275
1553.0,0.00612308505878878
1552.0,0.00612308505878878
1551.0,0.00612308505878878
1550.0,0.00612308505878878
1549.0,0.00612308505878878
1548.0,0.00612308505878878
1547.0,0.006079041198713275
1546.0,0.005946936412324799
1545.0,0.005858888873877532
1544.0,0.005858888873877532
1543.0,0.00577085918230158
1542.0,0.005638848091999105
1541.0,0.005550862985963967
1540.0,0.005638848091999105
1539.0,0.005594853310833647
1538.0,0.005550862985963967
1537.0,0.005682847330363394
1536.0,0.005858888873877532
1535.0,0.006035001804881146
1534.0,0.006167133386013823
1533.0,0.00621118618129457
1532.0,0.00612308505878878
1531.0,0.005990966876386672
1530.0,0.005814871797682919
1529.0,0.005726851026829571
1528.0,0.005638848091999105
1527.0,0.005462895701502157
1526.0,0.0052870145684298375
1525.0,0.0052870145684298375
1524.0,0.005243055412371911
1523.0,0.005067263269958211
1522.0,0.004935465843858511
1521.0,0.004979393875242044
1520.0,0.005023326350308999
1519.0,0.005023326350308999
1518.0,0.005023326350308999
1517.0,0.005111204635089406
1516.0,0.005199100705396198
1515.0,0.005155150446602086
1514.0,0.005111204635089406
1513.0,0.005111204635089406
1512.0,0.005155150446602086
1511.0,0.005023326350308999
1510.0,0.004935465843858511
1509.0,0.005111204635089406
1508.0,0.00541891874010525
1507.0,0.005506877116487674
1506.0,0.0052870145684298375
1505.0,0.005111204635089406
1504.0,0.005067263269958211
1503.0,0.005067263269958211
1502.0,0.005067263269958211
1501.0,0.005111204635089406
1500.0,0.005243055412371911
1499.0,0.005243055412371911
1498.0,0.005155150446602086
1497.0,0.005155150446602086
1496.0,0.005199100705396198
1495.0,0.005155150446602086
1494.0,0.005155150446602086
1493.0,0.0052870145684298375
1492.0,0.00541891874010525
1491.0,0.00541891874010525
1490.0,0.00541891874010525
1489.0,0.005682847330363394
1488.0,0.005858888873877532
1487.0,0.00590291041179003
1486.0,0.005946936412324799
1485.0,0.00621118618129457
1484.0,0.006607862550997545
1483.0,0.00696076819309055
1482.0,0.007490664932224611
1481.0,0.008419542825660153
1480.0,0.00966114521239847
1479.0,0.011396456654336085
1478.0,0.014843078722943437
1477.0,0.0214542995372613
1476.0,0.03175060589208267
1475.0,0.04484161307420642
1474.0,0.05933412752417122
1473.0,0.07109230975604719
1472.0,0.07504911108438939
1471.0,0.07319468988839395
1470.0,0.0710411591191702
1469.0,0.07037674848475972
1468.0,0.07109230975604719
1467.0,0.07350321072677968
1466.0,0.07914650387874067
1465.0,0.08804381092731295
1464.0,0.09560907998763835
1463.0,0.09729018703012282
1462.0,0.09312646527792956
1461.0,0.08539243222891946
1460.0,0.0760310351245288
1459.0,0.0666645899223488
1458.0,0.058836539841526925
1457.0,0.05330216275425803
1456.0,0.04968383607539972
1455.0,0.0469171560879138
1454.0,0.04421607108308856
1453.0,0.041340572947066834
1452.0,0.038436537637930535
1451.0,0.03597620715996652
1450.0,0.03399914237121604
1449.0,0.03240522732811035
1448.0,0.03105031901865729
1447.0,0.030071810571884017
1446.0,0.02932775731028059
1445.0,0.02858497661500481
1444.0,0.027889771597169544
1443.0,0.02724191609646076
1442.0,0.026595025589939425
1441.0,0.025856900097785074
1440.0,0.02512002699306959
1439.0,0.024430342106337877
1438.0,0.023787622882622816
1437.0,0.02300845469384938
1436.0,0.022230681908425698
1435.0,0.021499930688540836
1434.0,0.020770406977844713
1433.0,0.019860222254245663
1432.0,0.018906576854070378
1431.0,0.017909760704207134
1430.0,0.016960383953898095
1429.0,0.016013078034810446
1428.0,0.015157768594724175
1427.0,0.01452861671041239
1426.0,0.013900374944870508
1425.0,0.013273040668781544
1424.0,0.01264661126420652
1423.0,0.01215504982870197
1422.0,0.011708658092512314
1421.0,0.011262724711199823
1420.0,0.010817248744452446
1419.0,0.010550182333308289
1418.0,0.010327752376126709
1417.0,0.010060986715464404
1416.0,0.009794384815193347
1415.0,0.009527946474380489
1414.0,0.009261671492462709
1413.0,0.008906891951112605
1412.0,0.008596697419959609
1411.0,0.008330992620051436
1410.0,0.008065450281052211
1409.0,0.007800070204414977
1408.0,0.0075790439479759275
1407.0,0.007402303897961815
1406.0,0.007313960837872058
1405.0,0.007225635744644521
1404.0,0.007137328610972382
1403.0,0.007137328610972382
1402.0,0.007137328610972382
1401.0,0.007137328610972382
1400.0,0.007181479933320523
1399.0,0.007269796045857202
1398.0,0.007269796045857202
1397.0,0.00696076819309055
1396.0,0.006431517210272464
1395.0,0.005990966876386672
1394.0,0.00590291041179003
1393.0,0.00612308505878878
1392.0,0.006519680930003435
1391.0,0.006872514894289861
1390.0,0.007093181776687496
1389.0,0.007181479933320523
1388.0,0.007225635744644521
1387.0,0.007402303897961815
1386.0,0.00762324020119709
1385.0,0.007976972236149349
1384.0,0.00850811108984062
1383.0,0.009350411681145587
1382.0,0.010416710688994968
1381.0,0.011619434777991433
1380.0,0.012780770091995297
1379.0,0.01381070026317599
1378.0,0.014393916947563534
1377.0,0.01452861671041239
1376.0,0.014349026309051105
1375.0,0.014079779876432497
1374.0,0.013945219230304673
1373.0,0.013945219230304673
1372.0,0.014124642691606404
1371.0,0.014393916947563534
1370.0,0.014663358264387139
1369.0,0.014798141635428141
1368.0,0.014798141635428141
1367.0,0.014708281407112
1366.0,0.0144837121472845
1365.0,0.014169510141607944
1364.0,0.013900374944870508
1363.0,0.01372104409400876
1362.0,0.013541787262693505
1361.0,0.013362604389846044
1360.0,0.01318349541446362
1359.0,0.013049212141483357
1358.0,0.012959713020733288
1357.0,0.012914970375878188
1356.0,0.012914970375878188
1355.0,0.013004460275618523
1354.0,0.013049212141483357
1353.0,0.013093968619278806
1352.0,0.013049212141483357
1351.0,0.013004460275618523
1350.0,0.012914970375878188
1349.0,0.012736045877764557
1348.0,0.012467797270160563
1347.0,0.012244383261476699
1346.0,0.012021084124518078
1345.0,0.011753276624621556
1344.0,0.011441043121384498
1343.0,0.011218156546359825
1342.0,0.010995384301463185
1341.0,0.010817248744452446
1340.0,0.010683695010048622
1339.0,0.010550182333308289
1338.0,0.01037222925484893
1337.0,0.010105436281226954
1336.0,0.009883233932095559
1335.0,0.009705553871561357
1334.0,0.009572341514736404
1333.0,0.009483555971770974
1332.0,0.00939478857608056
1331.0,0.009350411681145587
1330.0,0.009306039320248427
1329.0,0.009261671492462709
1328.0,0.009217308196862062
1327.0,0.009217308196862062
1326.0,0.009261671492462709
1325.0,0.009306039320248427
1324.0,0.00939478857608056
1323.0,0.009527946474380489
1322.0,0.009616741093766423
1321.0,0.00974996707218323
1320.0,0.009883233932095559
1319.0,0.010060986715464404
1318.0,0.01023881228122181
1317.0,0.010327752376126709
1316.0,0.010416710688994968
1315.0,0.010550182333308289
1314.0,0.010728208358306901
1313.0,0.01086177578421088
1312.0,0.010950843561779777
1311.0,0.011084479487313281
1310.0,0.011218156546359825
1309.0,0.011351874764248926
1308.0,0.011441043121384498
1307.0,0.011530229790124524
1306.0,0.011619434777991433
1305.0,0.011664044143949504
1304.0,0.011708658092512314
1303.0,0.011708658092512314
1302.0,0.011664044143949504
1301.0,0.011574829993696856
1300.0,0.011485634166333858
1299.0,0.011351874764248926
1298.0,0.011218156546359825
1297.0,0.011084479487313281
1296.0,0.010950843561779777
1295.0,0.010817248744452446
1294.0,0.010639186223752484
1293.0,0.01046119667949763
1292.0,0.010283280051895272
1291.0,0.010149890396819572
1290.0,0.01001654169860089
1289.0,0.009883233932095559
1288.0,0.00974996707218323
1287.0,0.00966114521239847
1286.0,0.009572341514736404
1285.0,0.009483555971770974
1284.0,0.009350411681145587
1283.0,0.009261671492462709
1282.0,0.009172949432521227
1281.0,0.009039900317800775
1280.0,0.008906891951112605
1279.0,0.008818242332126802
1278.0,0.0087296108049002
1277.0,0.008596697419959609
1276.0,0.00850811108984062
1275.0,0.008463824699968647
1274.0,0.008375265465994541
1273.0,0.008286724286910463
1272.0,0.008198201155356077
1271.0,0.008153946355103248
1270.0,0.008065450281052211
1269.0,0.007932739972333236
1268.0,0.007800070204414977
1267.0,0.007711646202907652
1266.0,0.007667440952535687
1265.0,0.007667440952535687
1264.0,0.0075790439479759275
1263.0,0.007490664932224611
1262.0,0.007358130121602358
1261.0,0.007225635744644521
1260.0,0.007093181776687496
1259.0,0.007004901568658406
1258.0,0.00696076819309055
1257.0,0.006872514894289861
1256.0,0.006784279525863024
1255.0,0.006696062080525422
1254.0,0.006696062080525422
1253.0,0.006607862550997545
1252.0,0.006519680930003435
1251.0,0.006431517210272464
1250.0,0.006343371384537999
1249.0,0.006387442061109638
1248.0,0.006431517210272464
1247.0,0.006607862550997545
1246.0,0.006696062080525422
1245.0,0.006740168563263094
1244.0,0.006607862550997545
1243.0,0.006387442061109638
1242.0,0.00621118618129457
1241.0,0.00621118618129457
1240.0,0.006343371384537999
1239.0,0.006519680930003435
1238.0,0.006519680930003435
1237.0,0.006431517210272464
1236.0,0.006299305179649828
1235.0,0.00625524344553785
1234.0,0.006167133386013823
1233.0,0.005990966876386672
1232.0,0.005814871797682919
1231.0,0.005638848091999105
1230.0,0.005594853310833647
1229.0,0.005550862985963967
1228.0,0.005594853310833647
1227.0,0.005638848091999105
1226.0,0.005682847330363394
1225.0,0.005682847330363394
1224.0,0.005682847330363394
1223.0,0.00577085918230158
1222.0,0.00590291041179003
1221.0,0.005990966876386672
1220.0,0.006035001804881146
1219.0,0.006079041198713275
1218.0,0.006167133386013823
1217.0,0.00621118618129457
1216.0,0.006299305179649828
1215.0,0.006387442061109638
1214.0,0.006475596832934416
1213.0,0.006519680930003435
1212.0,0.00656376950238835
1211.0,0.006651960076740071
1210.0,0.006696062080525422
1209.0,0.006740168563263094
1208.0,0.006740168563263094
1207.0,0.006784279525863024
1206.0,0.006872514894289861
1205.0,0.006872514894289861
1204.0,0.006872514894289861
1203.0,0.006872514894289861
1202.0,0.006916639301937977
1201.0,0.00696076819309055
1200.0,0.007049039429553483
1199.0,0.007137328610972382
1198.0,0.007225635744644521
1197.0,0.007225635744644521
1196.0,0.007225635744644521
1195.0,0.007225635744644521
1194.0,0.007225635744644521
1193.0,0.007269796045857202
1192.0,0.007313960837872058
1191.0,0.007402303897961815
1190.0,0.007402303897961815
1189.0,0.007358130121602358
1188.0,0.007313960837872058
1187.0,0.007269796045857202
1186.0,0.007225635744644521
1185.0,0.007269796045857202
1184.0,0.007269796045857202
1183.0,0.007358130121602358
1182.0,0.0074464821678643656
1181.0,0.007534852191956709
1180.0,0.0075790439479759275
1179.0,0.00762324020119709
1178.0,0.00762324020119709
1177.0,0.0075790439479759275
1176.0,0.007534852191956709
1175.0,0.007534852191956709
1174.0,0.007490664932224611
1173.0,0.007490664932224611
1172.0,0.007490664932224611
1171.0,0.007490664932224611
1170.0,0.007534852191956709
1169.0,0.007534852191956709
1168.0,0.007534852191956709
1167.0,0.007534852191956709
1166.0,0.007534852191956709
1165.0,0.007534852191956709
1164.0,0.007534852191956709
1163.0,0.007490664932224611
1162.0,0.007490664932224611
1161.0,0.007490664932224611
1160.0,0.0074464821678643656
1159.0,0.0074464821678643656
1158.0,0.007490664932224611
1157.0,0.007490664932224611
1156.0,0.007534852191956709
1155.0,0.0075790439479759275
1154.0,0.0075790439479759275
1153.0,0.0075790439479759275
1152.0,0.0075790439479759275
1151.0,0.0075790439479759275
1150.0,0.0075790439479759275
1149.0,0.0075790439479759275
1148.0,0.0075790439479759275
1147.0,0.00762324020119709
1146.0,0.00762324020119709
1145.0,0.00762324020119709
1144.0,0.007534852191956709
1143.0,0.007490664932224611
1142.0,0.0074464821678643656
1141.0,0.0074464821678643656
1140.0,0.007402303897961815
1139.0,0.007402303897961815
1138.0,0.007358130121602358
1137.0,0.007313960837872058
1136.0,0.007269796045857202
1135.0,0.007225635744644521
1134.0,0.007137328610972382
1133.0,0.007093181776687496
1132.0,0.007004901568658406
1131.0,0.00696076819309055
1130.0,0.006916639301937977
1129.0,0.006872514894289861
1128.0,0.006784279525863024
1127.0,0.006696062080525422
1126.0,0.006651960076740071
1125.0,0.006607862550997545
1124.0,0.006519680930003435
1123.0,0.006475596832934416
1122.0,0.006387442061109638
1121.0,0.00625524344553785
1120.0,0.006167133386013823
1119.0,0.006079041198713275
1118.0,0.006035001804881146
1117.0,0.005990966876386672
1116.0,0.00590291041179003
1115.0,0.005858888873877532
1114.0,0.005682847330363394
1113.0,0.005506877116487674
1112.0,0.0052870145684298375
1111.0,0.005155150446602086
1110.0,0.005067263269958211
1109.0,0.005023326350308999
1108.0,0.004979393875242044
1107.0,0.004935465843858511
1106.0,0.00489154225525934
1105.0,0.00484762310854614
1104.0,0.004803708402820517
1103.0,0.004759798137184523
1102.0,0.004759798137184523
1101.0,0.004671990922590297
1100.0,0.00458420145758498
1099.0,0.00458420145758498
1098.0,0.004628093971837721
1097.0,0.004715892310740433
1096.0,0.004759798137184523
1095.0,0.004759798137184523
1094.0,0.004715892310740433
1093.0,0.0044964297349936455
1092.0,0.004145520125434121
1091.0,0.003707281458678491
1090.0,0.0034007772998332353
1089.0,0.0031819781204844855
1088.0,0.0030070181092942683
1087.0,0.0028758443407954637
1086.0,0.002613615602686581
1085.0,0.0022642234021015284
1084.0,0.0018714928717336043
1083.0,0.0014791171649619628
1082.0,0.0012177301682640973
1081.0,0.0010000277816797354
1080.0,0.0007824344698965646
1079.0,0.000521466320689834
1078.0,0.00030411258916074324
1077.0,4.343161980746579e-05
1076.0,-0.00013026880522692963
1075.0,-0.00021709297223004853
1074.0,-0.00021709297223004853
1073.0,-0.00017368305846510168
1072.0,-4.3427276862573194e-05
1071.0,4.343161980746579e-05
1070.0,0.0
1069.0,-0.0003472966853634851
1068.0,-0.0009110621312231615
1067.0,-0.0013875234866409514
1066.0,-0.0015173768235041685
1065.0,-0.001257631312230778
1064.0,-0.0008243766056055257
1063.0,-0.0005208409361854294
1062.0,-0.0003906892499099257
1061.0,-0.0004774613744551459
1060.0,-0.0007810273534953893
1059.0,-0.0011710149414008164
1058.0,-0.0015173768235041685
1057.0,-0.0016039241497978196
1056.0,-0.0015173768235041685
1055.0,-0.0013875234866409514
1054.0,-0.001344230411601366
1053.0,-0.001344230411601366
1052.0,-0.0013009330204178937
1051.0,-0.00121432528617893
1050.0,-0.0010843812922201046
1049.0,-0.001041057986093552
1048.0,-0.0009543984064577238
1047.0,-0.0009110621312231615
1046.0,-0.0008677215312267172
1045.0,-0.0008243766056055257
1044.0,-0.0007376737740329986
1043.0,-0.0004774613744551459
1042.0,-0.00013026880522692963
1041.0,0.00026065489343207737
1040.0,0.0006519307932786322
1039.0,0.0009565003968372565
1038.0,0.0012177301682640973
1037.0,0.0015226969634936083
1036.0,0.001915112063444413
1035.0,0.0022642234021015284
1034.0,0.002613615602686581
1033.0,0.0029632891174733444
1032.0,0.0031819781204844855
1031.0,0.0032257291386954545
1030.0,0.0030944893043338695
1029.0,0.0027884171674950053
1028.0,0.002613615602686581
1027.0,0.0027884171674950053
1026.0,0.0031819781204844855
1025.0,0.003619686766589858
1024.0,0.00401400208620073
1023.0,0.004233220950025984
1022.0,0.0043648054024501
1021.0,0.0043648054024501
1020.0,0.004320939488377862
1019.0,0.004320939488377862
1018.0,0.004320939488377862
1017.0,0.004277078004534696
1016.0,0.004233220950025984
1015.0,0.004233220950025984
1014.0,0.004233220950025984
1013.0,0.004277078004534696
1012.0,0.0043648054024501
1011.0,0.0044964297349936455
1010.0,0.00458420145758498
1009.0,0.00458420145758498
1008.0,0.00458420145758498
1007.0,0.004671990922590297
1006.0,0.004803708402820517
1005.0,0.004979393875242044
1004.0,0.005111204635089406
1003.0,0.005155150446602086
1002.0,0.005155150446602086
1001.0,0.005111204635089406
1000.0,0.005155150446602086
999.0,0.005199100705396198
998.0,0.0052870145684298375
997.0,0.005330978174470591
996.0,0.00541891874010525
995.0,0.005594853310833647
994.0,0.00577085918230158
993.0,0.00590291041179003
992.0,0.00590291041179003
991.0,0.005858888873877532
990.0,0.005858888873877532
989.0,0.00590291041179003
988.0,0.00590291041179003
987.0,0.005946936412324799
986.0,0.005946936412324799
985.0,0.005946936412324799
984.0,0.005946936412324799
983.0,0.005946936412324799
982.0,0.005990966876386672
981.0,0.005946936412324799
980.0,0.00590291041179003
979.0,0.005814871797682919
978.0,0.005814871797682919
977.0,0.00577085918230158
976.0,0.005726851026829571
975.0,0.005682847330363394
974.0,0.005638848091999105
973.0,0.005638848091999105
972.0,0.005682847330363394
971.0,0.00577085918230158
970.0,0.005814871797682919
969.0,0.005814871797682919
968.0,0.005858888873877532
967.0,0.00590291041179003
966.0,0.00590291041179003
965.0,0.005814871797682919
964.0,0.005682847330363394
963.0,0.005594853310833647
962.0,0.005594853310833647
961.0,0.005638848091999105
960.0,0.005594853310833647
959.0,0.005462895701502157
958.0,0.005330978174470591
957.0,0.0052870145684298375
956.0,0.005330978174470591
955.0,0.00537494623139545
954.0,0.00537494623139545
953.0,0.005330978174470591
952.0,0.0052870145684298375
951.0,0.0052870145684298375
950.0,0.005330978174470591
949.0,0.005330978174470591
948.0,0.00537494623139545
947.0,0.00537494623139545
946.0,0.00541891874010525
945.0,0.00537494623139545
944.0,0.00541891874010525
943.0,0.005462895701502157
942.0,0.005506877116487674
941.0,0.005550862985963967
940.0,0.005506877116487674
939.0,0.005462895701502157
938.0,0.00541891874010525
937.0,0.005462895701502157
936.0,0.005506877116487674
935.0,0.005550862985963967
934.0,0.005594853310833647
933.0,0.005726851026829571
932.0,0.00590291041179003
931.0,0.006079041198713275
930.0,0.006167133386013823
929.0,0.00612308505878878
928.0,0.005990966876386672
927.0,0.00590291041179003
926.0,0.00577085918230158
925.0,0.005638848091999105
924.0,0.005550862985963967
923.0,0.005506877116487674
922.0,0.005638848091999105
921.0,0.00577085918230158
920.0,0.005946936412324799
919.0,0.006035001804881146
918.0,0.006035001804881146
917.0,0.005946936412324799
916.0,0.005814871797682919
915.0,0.005814871797682919
914.0,0.005814871797682919
913.0,0.005858888873877532
912.0,0.00590291041179003
911.0,0.00590291041179003
910.0,0.005858888873877532
909.0,0.005638848091999105
908.0,0.005462895701502157
907.0,0.005330978174470591
906.0,0.0052870145684298375
905.0,0.005243055412371911
904.0,0.005243055412371911
903.0,0.005155150446602086
902.0,0.005067263269958211
901.0,0.00489154225525934
900.0,0.004803708402820517
899.0,0.004803708402820517
898.0,0.00489154225525934
897.0,0.004935465843858511
896.0,0.004935465843858511
895.0,0.00489154225525934
894.0,0.00484762310854614
893.0,0.004803708402820517
892.0,0.00484762310854614
891.0,0.004979393875242044
890.0,0.005199100705396198
889.0,0.005330978174470591
888.0,0.00537494623139545
887.0,0.005330978174470591
886.0,0.005243055412371911
885.0,0.005111204635089406
884.0,0.004979393875242044
883.0,0.00484762310854614
882.0,0.004671990922590297
881.0,0.004452550524862486
880.0,0.004320939488377862
879.0,0.0043648054024501
878.0,0.004452550524862486
877.0,0.0044964297349936455
876.0,0.004452550524862486
875.0,0.0043648054024501
874.0,0.004320939488377862
873.0,0.004233220950025984
872.0,0.004189368323957332
871.0,0.004233220950025984
870.0,0.004452550524862486
869.0,0.004671990922590297
868.0,0.00484762310854614
867.0,0.005023326350308999
866.0,0.005155150446602086
865.0,0.005243055412371911
864.0,0.005330978174470591
863.0,0.00541891874010525
862.0,0.005506877116487674
861.0,0.005550862985963967
860.0,0.005594853310833647
859.0,0.005638848091999105
858.0,0.00577085918230158
857.0,0.005858888873877532
856.0,0.00590291041179003
855.0,0.005990966876386672
854.0,0.006035001804881146
853.0,0.006079041198713275
852.0,0.005990966876386672
851.0,0.005946936412324799
850.0,0.00590291041179003
849.0,0.00590291041179003
848.0,0.005858888873877532
847.0,0.005858888873877532
846.0,0.005858888873877532
845.0,0.00590291041179003
844.0,0.005858888873877532
843.0,0.005814871797682919
842.0,0.00577085918230158
841.0,0.005726851026829571
840.0,0.005682847330363394
839.0,0.005550862985963967
838.0,0.00541891874010525
837.0,0.00537494623139545
836.0,0.005594853310833647
835.0,0.005858888873877532
834.0,0.006035001804881146
833.0,0.005990966876386672
832.0,0.005726851026829571
831.0,0.005462895701502157
830.0,0.005243055412371911
829.0,0.005111204635089406
828.0,0.005067263269958211
827.0,0.005111204635089406
826.0,0.005155150446602086
825.0,0.005111204635089406
824.0,0.005111204635089406
823.0,0.005199100705396198
822.0,0.005330978174470591
821.0,0.005462895701502157
820.0,0.005506877116487674
819.0,0.00541891874010525
818.0,0.005243055412371911
817.0,0.005023326350308999
816.0,0.00484762310854614
815.0,0.00484762310854614
814.0,0.004935465843858511
813.0,0.005023326350308999
812.0,0.005111204635089406
811.0,0.005111204635089406
810.0,0.005023326350308999
809.0,0.005023326350308999
808.0,0.005199100705396198
807.0,0.005506877116487674
806.0,0.005858888873877532
805.0,0.006035001804881146
804.0,0.006167133386013823
803.0,0.00621118618129457
802.0,0.00625524344553785
801.0,0.006299305179649828
800.0,0.006343371384537999
799.0,0.006387442061109638
798.0,0.006475596832934416
797.0,0.006475596832934416
796.0,0.00656376950238835
795.0,0.006696062080525422
794.0,0.006872514894289861
793.0,0.00696076819309055
792.0,0.006916639301937977
791.0,0.006916639301937977
790.0,0.007137328610972382
789.0,0.007402303897961815
788.0,0.0075790439479759275
787.0,0.00762324020119709
786.0,0.00762324020119709
785.0,0.00762324020119709
784.0,0.00762324020119709
783.0,0.007534852191956709
782.0,0.007402303897961815
781.0,0.007358130121602358
780.0,0.007313960837872058
779.0,0.007269796045857202
778.0,0.007093181776687496
777.0,0.006828394969235152
776.0,0.006651960076740071
775.0,0.006740168563263094
774.0,0.006916639301937977
773.0,0.007004901568658406
772.0,0.006872514894289861
771.0,0.006607862550997545
770.0,0.006299305179649828
769.0,0.00625524344553785
768.0,0.006431517210272464
767.0,0.006784279525863024
766.0,0.007004901568658406
765.0,0.00696076819309055
764.0,0.006740168563263094
763.0,0.006519680930003435
762.0,0.006475596832934416
761.0,0.006519680930003435
760.0,0.006431517210272464
759.0,0.006167133386013823
758.0,0.00590291041179003
757.0,0.00577085918230158
756.0,0.005946936412324799
755.0,0.00625524344553785
754.0,0.006519680930003435
753.0,0.006651960076740071
752.0,0.006740168563263094
751.0,0.006916639301937977
750.0,0.007137328610972382
749.0,0.007490664932224611
748.0,0.007800070204414977
747.0,0.008109696063975047
746.0,0.008330992620051436
745.0,0.008463824699968647
744.0,0.008640997362049818
743.0,0.009039900317800775
742.0,0.009794384815193347
741.0,0.010550182333308289
740.0,0.011129033935354915
739.0,0.011530229790124524
738.0,0.012065734767841452
737.0,0.013138729709955221
736.0,0.015292705517326866
735.0,0.0190880622231564
734.0,0.02553436426275746
733.0,0.03517488211661135
732.0,0.0469171560879138
731.0,0.05754547365752294
730.0,0.06338573802478864
729.0,0.06313454102437754
728.0,0.0588862729628985
727.0,0.05428528594013993
726.0,0.0518316382728683
725.0,0.052468254304406825
724.0,0.05635711724787096
723.0,0.06378795567975115
722.0,0.07520400420208784
721.0,0.08905559425002108
720.0,0.10067205012234592
719.0,0.10435649517592083
718.0,0.09843270997155007
717.0,0.08597434830367123
716.0,0.0716553647351379
715.0,0.05863766428823891
714.0,0.04837110616336182
713.0,0.040672354027829094
712.0,0.03498654972775217
711.0,0.03063068826647264
710.0,0.02696455931306696
709.0,0.023833499868024743
708.0,0.021271822861508305
707.0,0.019269623464054586
706.0,0.017774008325325275
705.0,0.016554142658660398
704.0,0.015607721475734415
703.0,0.014843078722943437
702.0,0.014079779876432497
701.0,0.013138729709955221
700.0,0.012289056869694281
699.0,0.011753276624621556
698.0,0.011485634166333858
697.0,0.011441043121384498
696.0,0.011708658092512314
695.0,0.012423105273012602
694.0,0.01318349541446362
693.0,0.01318349541446362
692.0,0.012289056869694281
691.0,0.011039929609661936
690.0,0.010283280051895272
689.0,0.010194349063173958
688.0,0.010594681998483901
687.0,0.011084479487313281
686.0,0.011485634166333858
685.0,0.011441043121384498
684.0,0.01086177578421088
683.0,0.010194349063173958
682.0,0.009794384815193347
681.0,0.009883233932095559
680.0,0.010060986715464404
679.0,0.009927665307847056
678.0,0.009261671492462709
677.0,0.008242460465651913
676.0,0.007490664932224611
675.0,0.007490664932224611
674.0,0.007976972236149349
673.0,0.00850811108984062
672.0,0.008951223547323472
671.0,0.009527946474380489
670.0,0.010639186223752484
669.0,0.011887159731648111
668.0,0.011753276624621556
667.0,0.009927665307847056
666.0,0.007888512213050314
665.0,0.006343371384537999
664.0,0.00537494623139545
663.0,0.00489154225525934
662.0,0.004715892310740433
661.0,0.004715892310740433
660.0,0.005023326350308999
659.0,0.005638848091999105
658.0,0.006035001804881146
657.0,0.005682847330363394
656.0,0.004803708402820517
655.0,0.004277078004534696
654.0,0.004671990922590297
653.0,0.005506877116487674
652.0,0.006035001804881146
651.0,0.005990966876386672
650.0,0.005814871797682919
649.0,0.005946936412324799
648.0,0.006387442061109638
647.0,0.006828394969235152
646.0,0.006872514894289861
645.0,0.006740168563263094
644.0,0.006784279525863024
643.0,0.007049039429553483
642.0,0.007181479933320523
641.0,0.006828394969235152
640.0,0.00621118618129457
639.0,0.005682847330363394
638.0,0.005330978174470591
637.0,0.005111204635089406
636.0,0.005155150446602086
635.0,0.005594853310833647
634.0,0.00625524344553785
633.0,0.006740168563263094
632.0,0.007049039429553483
631.0,0.007402303897961815
630.0,0.007844288957383316
629.0,0.008286724286910463
628.0,0.008640997362049818
627.0,0.008818242332126802
626.0,0.008640997362049818
625.0,0.008021209005416363
624.0,0.007269796045857202
623.0,0.006740168563263094
622.0,0.006607862550997545
621.0,0.007137328610972382
620.0,0.008242460465651913
619.0,0.009483555971770974
618.0,0.01001654169860089
617.0,0.009439170005980158
616.0,0.008198201155356077
615.0,0.006872514894289861
614.0,0.005594853310833647
613.0,0.0044964297349936455
612.0,0.00401400208620073
611.0,0.0044964297349936455
610.0,0.005330978174470591
609.0,0.00577085918230158
608.0,0.005594853310833647
607.0,0.005023326350308999
606.0,0.004189368323957332
605.0,0.003488327845821315
604.0,0.003619686766589858
603.0,0.004671990922590297
602.0,0.00541891874010525
601.0,0.00458420145758498
600.0,0.0029195645282691363
