cm-1,A
4000.0,0.016103208673694303
3999.0,0.016148281008528276
3998.0,0.016193358021584725
3997.0,0.016238439713835096
3996.0,0.016193358021584725
3995.0,0.016148281008528276
3994.0,0.016013078034810446
3993.0,0.01596801972881945
3992.0,0.01596801972881945
3991.0,0.01596801972881945
3990.0,0.016013078034810446
3989.0,0.016058141016111804
3988.0,0.016103208673694303
3987.0,0.016103208673694303
3986.0,0.016058141016111804
3985.0,0.016058141016111804
3984.0,0.016058141016111804
3983.0,0.016058141016111804
3982.0,0.016103208673694303
3981.0,0.016103208673694303
3980.0,0.016148281008528276
3979.0,0.016148281008528276
3978.0,0.016148281008528276
3977.0,0.016148281008528276
3976.0,0.016103208673694303
3975.0,0.016103208673694303
3974.0,0.016058141016111804
3973.0,0.016058141016111804
3972.0,0.016058141016111804
3971.0,0.016058141016111804
3970.0,0.016058141016111804
3969.0,0.016058141016111804
3968.0,0.016058141016111804
3967.0,0.016058141016111804
3966.0,0.016103208673694303
3965.0,0.016148281008528276
3964.0,0.016193358021584725
3963.0,0.016148281008528276
3962.0,0.016103208673694303
3961.0,0.016013078034810446
3960.0,0.01596801972881945
3959.0,0.016013078034810446
3958.0,0.016058141016111804
3957.0,0.016058141016111804
3956.0,0.016058141016111804
3955.0,0.016013078034810446
3954.0,0.01596801972881945
3953.0,0.015922966097169144
3952.0,0.015877917138889863
3951.0,0.015877917138889863
3950.0,0.015877917138889863
3949.0,0.015832872853011715
3948.0,0.015832872853011715
3947.0,0.01578783323856614
3946.0,0.01578783323856614
3945.0,0.015877917138889863
3944.0,0.015922966097169144
3943.0,0.01596801972881945
3942.0,0.01596801972881945
3941.0,0.016013078034810446
3940.0,0.016058141016111804
3939.0,0.016103208673694303
3938.0,0.016148281008528276
3937.0,0.016148281008528276
3936.0,0.016103208673694303
3935.0,0.016103208673694303
3934.0,0.016058141016111804
3933.0,0.01596801972881945
3932.0,0.015922966097169144
3931.0,0.015832872853011715
3930.0,0.01578783323856614
3929.0,0.01578783323856614
3928.0,0.015832872853011715
3927.0,0.015832872853011715
3926.0,0.015877917138889863
3925.0,0.015922966097169144
3924.0,0.015922966097169144
3923.0,0.015922966097169144
3922.0,0.015922966097169144
3921.0,0.015922966097169144
3920.0,0.01596801972881945
3919.0,0.016058141016111804
3918.0,0.016148281008528276
3917.0,0.01628352608625061
3916.0,0.01632861713980338
3915.0,0.016373712875465518
3914.0,0.016418813294209356
3913.0,0.016418813294209356
3912.0,0.01646391839700767
3911.0,0.01646391839700767
3910.0,0.016418813294209356
3909.0,0.01628352608625061
3908.0,0.016103208673694303
3907.0,0.015922966097169144
3906.0,0.01578783323856614
3905.0,0.015742798294583915
3904.0,0.015742798294583915
3903.0,0.015742798294583915
3902.0,0.015697768020096703
3901.0,0.015742798294583915
3900.0,0.01578783323856614
3899.0,0.015877917138889863
3898.0,0.016013078034810446
3897.0,0.016148281008528276
3896.0,0.01628352608625061
3895.0,0.01632861713980338
3894.0,0.01632861713980338
3893.0,0.01632861713980338
3892.0,0.01632861713980338
3891.0,0.01628352608625061
3890.0,0.016193358021584725
3889.0,0.016238439713835096
3888.0,0.01628352608625061
3887.0,0.01628352608625061
3886.0,0.016238439713835096
3885.0,0.016058141016111804
3884.0,0.01596801972881945
3883.0,0.01596801972881945
3882.0,0.016058141016111804
3881.0,0.016148281008528276
3880.0,0.016148281008528276
3879.0,0.016103208673694303
3878.0,0.016103208673694303
3877.0,0.016193358021584725
3876.0,0.01628352608625061
3875.0,0.016238439713835096
3874.0,0.016058141016111804
3873.0,0.015922966097169144
3872.0,0.015877917138889863
3871.0,0.015922966097169144
3870.0,0.01596801972881945
3869.0,0.015877917138889863
3868.0,0.015832872853011715
3867.0,0.01596801972881945
3866.0,0.016148281008528276
3865.0,0.016238439713835096
3864.0,0.01628352608625061
3863.0,0.016238439713835096
3862.0,0.016193358021584725
3861.0,0.016193358021584725
3860.0,0.016238439713835096
3859.0,0.01628352608625061
3858.0,0.016193358021584725
3857.0,0.016058141016111804
3856.0,0.01596801972881945
3855.0,0.016103208673694303
3854.0,0.01632861713980338
3853.0,0.016193358021584725
3852.0,0.016013078034810446
3851.0,0.016148281008528276
3850.0,0.01646391839700767
3849.0,0.016599261819461697
3848.0,0.016599261819461697
3847.0,0.016554142658660398
3846.0,0.016509028184833463
3845.0,0.01646391839700767
3844.0,0.016373712875465518
3843.0,0.016238439713835096
3842.0,0.016148281008528276
3841.0,0.016103208673694303
3840.0,0.016148281008528276
3839.0,0.016148281008528276
3838.0,0.016058141016111804
3837.0,0.016058141016111804
3836.0,0.016103208673694303
3835.0,0.01628352608625061
3834.0,0.01646391839700767
3833.0,0.016599261819461697
3832.0,0.016644385668211692
3831.0,0.016644385668211692
3830.0,0.016644385668211692
3829.0,0.016689514205884493
3828.0,0.016689514205884493
3827.0,0.016689514205884493
3826.0,0.016599261819461697
3825.0,0.01646391839700767
3824.0,0.016373712875465518
3823.0,0.016373712875465518
3822.0,0.016418813294209356
3821.0,0.01632861713980338
3820.0,0.016103208673694303
3819.0,0.016058141016111804
3818.0,0.016238439713835096
3817.0,0.01646391839700767
3816.0,0.016599261819461697
3815.0,0.016599261819461697
3814.0,0.016689514205884493
3813.0,0.016824927962187042
3812.0,0.016915227262211507
3811.0,0.016870075265299933
3810.0,0.016824927962187042
3809.0,0.016870075265299933
3808.0,0.017005545341335804
3807.0,0.017095882207371904
3806.0,0.017005545341335804
3805.0,0.016870075265299933
3804.0,0.01677978535189717
3803.0,0.01677978535189717
3802.0,0.016689514205884493
3801.0,0.016509028184833463
3800.0,0.01632861713980338
3799.0,0.01646391839700767
3798.0,0.016689514205884493
3797.0,0.016824927962187042
3796.0,0.016870075265299933
3795.0,0.016915227262211507
3794.0,0.017005545341335804
3793.0,0.017141057687924732
3792.0,0.017231422748988034
3791.0,0.01727661233145472
3790.0,0.017231422748988034
3789.0,0.017186237868137555
3788.0,0.017141057687924732
3787.0,0.017141057687924732
3786.0,0.017186237868137555
3785.0,0.017186237868137555
3784.0,0.017141057687924732
3783.0,0.017095882207371904
3782.0,0.017050711425501408
3781.0,0.017095882207371904
3780.0,0.017141057687924732
3779.0,0.017231422748988034
3778.0,0.017231422748988034
3777.0,0.01727661233145472
3776.0,0.017321806616515723
3775.0,0.017367005605150476
3774.0,0.017321806616515723
3773.0,0.01727661233145472
3772.0,0.017231422748988034
3771.0,0.017231422748988034
3770.0,0.017141057687924732
3769.0,0.017050711425501408
3768.0,0.017005545341335804
3767.0,0.017050711425501408
3766.0,0.017095882207371904
3765.0,0.017095882207371904
3764.0,0.017095882207371904
3763.0,0.017141057687924732
3762.0,0.017186237868137555
3761.0,0.017186237868137555
3760.0,0.017141057687924732
3759.0,0.017050711425501408
3758.0,0.016960383953898095
3757.0,0.016824927962187042
3756.0,0.01677978535189717
3755.0,0.016734647433454652
3754.0,0.016644385668211692
3753.0,0.016689514205884493
3752.0,0.016915227262211507
3751.0,0.017095882207371904
3750.0,0.017005545341335804
3749.0,0.016824927962187042
3748.0,0.016734647433454652
3747.0,0.016734647433454652
3746.0,0.016870075265299933
3745.0,0.017005545341335804
3744.0,0.016960383953898095
3743.0,0.016870075265299933
3742.0,0.017005545341335804
3741.0,0.017050711425501408
3740.0,0.016915227262211507
3739.0,0.016689514205884493
3738.0,0.016599261819461697
3737.0,0.016644385668211692
3736.0,0.016734647433454652
3735.0,0.016644385668211692
3734.0,0.016599261819461697
3733.0,0.016689514205884493
3732.0,0.016870075265299933
3731.0,0.017095882207371904
3730.0,0.017186237868137555
3729.0,0.017186237868137555
3728.0,0.017095882207371904
3727.0,0.016960383953898095
3726.0,0.016870075265299933
3725.0,0.016824927962187042
3724.0,0.016870075265299933
3723.0,0.016960383953898095
3722.0,0.017050711425501408
3721.0,0.017050711425501408
3720.0,0.017141057687924732
3719.0,0.017231422748988034
3718.0,0.017321806616515723
3717.0,0.017367005605150476
3716.0,0.017412209298337533
3715.0,0.017457417697056554
3714.0,0.017502630802287644
3713.0,0.017728766960431575
3712.0,0.017955020928509757
3711.0,0.017955020928509757
3710.0,0.017774008325325275
3709.0,0.01768353030793479
3708.0,0.017728766960431575
3707.0,0.01781925440359733
3706.0,0.017864505196230507
3705.0,0.017909760704207134
3704.0,0.017864505196230507
3703.0,0.017909760704207134
3702.0,0.017909760704207134
3701.0,0.017955020928509757
3700.0,0.01800028587012159
3699.0,0.018136109008649592
3698.0,0.018271974638383703
3697.0,0.018362575344230914
3696.0,0.01831727262871463
3695.0,0.018271974638383703
3694.0,0.018181392829336396
3693.0,0.01809082990920774
3692.0,0.01809082990920774
3691.0,0.018226681372252695
3690.0,0.01845319495476394
3689.0,0.018543833477873584
3688.0,0.018543833477873584
3687.0,0.018725167293411005
3686.0,0.018951941086827073
3685.0,0.019178833355664393
3684.0,0.0192242260373785
3683.0,0.0192242260373785
3682.0,0.019178833355664393
3681.0,0.019133445417920836
3680.0,0.019042683770379876
3679.0,0.018861217359339655
3678.0,0.018815862601645694
3677.0,0.019042683770379876
3676.0,0.019360432556262852
3675.0,0.019315025636685412
3674.0,0.019133445417920836
3673.0,0.0192242260373785
3672.0,0.019451260640229506
3671.0,0.019678413991243593
3670.0,0.01990568621470623
3669.0,0.01990568621470623
3668.0,0.019996628416253603
3667.0,0.02022406727031445
3666.0,0.020497151212598652
3665.0,0.020724852408976924
3664.0,0.020861530453190058
3663.0,0.0209982515252789
3662.0,0.021043834782408455
3661.0,0.021043834782408455
3660.0,0.0209982515252789
3659.0,0.020952673052035298
3658.0,0.021089422824428272
3657.0,0.021271822861508305
3656.0,0.021317434843055594
3655.0,0.021271822861508305
3654.0,0.0211806132671577
3653.0,0.0209982515252789
3652.0,0.020861530453190058
3651.0,0.020861530453190058
3650.0,0.0211806132671577
3649.0,0.0214542995372613
3648.0,0.021545566634771474
3647.0,0.021728158389364705
3646.0,0.02200219004126036
3645.0,0.02227639471115217
3644.0,0.022505030926963654
3643.0,0.022688026603074007
3642.0,0.022871099419317753
3641.0,0.023100049017062307
3640.0,0.023283295636617574
3639.0,0.023466619608062178
3638.0,0.02355831062115543
3637.0,0.023604163388120325
3636.0,0.02365002099672653
3635.0,0.023695883447997224
3634.0,0.023695883447997224
3633.0,0.023604163388120325
3632.0,0.02351246269481
3631.0,0.02355831062115543
3630.0,0.023833499868024743
3629.0,0.024246610963712723
3628.0,0.02438440203310499
3627.0,0.024522236834125355
3626.0,0.024798037742147727
3625.0,0.02498200236711723
3624.0,0.025074013910237447
3623.0,0.025074013910237447
3622.0,0.02512002699306959
3621.0,0.02521206778644225
3620.0,0.025350165561278004
3619.0,0.025350165561278004
3618.0,0.025350165561278004
3617.0,0.02544225514642018
3616.0,0.02562649291857677
3615.0,0.025810808881832736
3614.0,0.025995203102585407
3613.0,0.02613355016462182
3612.0,0.026271941311972746
3611.0,0.026502691267936695
3610.0,0.02677975314776626
3609.0,0.027056991894431892
3608.0,0.027195677663422346
3607.0,0.027288159452933503
3606.0,0.02738066094037661
3605.0,0.02751945012352408
3604.0,0.027612000892527133
3603.0,0.027658283674251827
3602.0,0.027658283674251827
3601.0,0.027750864037404455
3600.0,0.027843464140506313
3599.0,0.027936083991977778
3598.0,0.028075050815808744
3597.0,0.028167720075074953
3596.0,0.028306761050139073
3595.0,0.028538594975413334
3594.0,0.02872415126189476
3593.0,0.028863370523193765
3592.0,0.02890978686288448
3591.0,0.02890978686288448
3590.0,0.02890978686288448
3589.0,0.029002634427514717
3588.0,0.029234840219232394
3587.0,0.029374223311705583
3586.0,0.029467170231675777
3585.0,0.029560137048236124
3584.0,0.029792641193145286
3583.0,0.030071810571884017
3582.0,0.030351159519274695
3581.0,0.030537492025363155
3580.0,0.03063068826647264
3579.0,0.03067729388779794
3578.0,0.0307239045110681
3577.0,0.030863766403287585
3576.0,0.031096969696171817
3575.0,0.03128362253321426
3574.0,0.03147035562516054
3573.0,0.031563752288295444
3572.0,0.031563752288295444
3571.0,0.03147035562516054
3570.0,0.03137697904301118
3569.0,0.03137697904301118
3568.0,0.03151705144606498
3567.0,0.03170388495374454
3566.0,0.03179733185715028
3565.0,0.03193753992355086
3564.0,0.03217132066984485
3563.0,0.03245202378113787
3562.0,0.032686081712916426
3561.0,0.032920265855503006
3560.0,0.033154576345083564
3559.0,0.03338901331806565
3558.0,0.03362357691107709
3557.0,0.0338113190438627
3556.0,0.033905220553829274
3555.0,0.033952178923546183
3554.0,0.03409308450480819
3553.0,0.03432802877989327
3552.0,0.034516075754861264
3551.0,0.03461012978487776
3550.0,0.03465716443937783
3549.0,0.03470420418834386
3548.0,0.03479829897408804
3547.0,0.03489241415094413
3546.0,0.03498654972775217
3545.0,0.03508070571335731
3544.0,0.03522197797762394
3543.0,0.03541041251009669
3542.0,0.03555179208333925
3541.0,0.035646070707806565
3540.0,0.035693217696063595
3539.0,0.03578752703018084
3538.0,0.03592902944204468
3537.0,0.036117771071222604
3536.0,0.03625938114211591
3535.0,0.03635381351515665
3534.0,0.03644826642590382
3533.0,0.03644826642590382
3532.0,0.03644826642590382
3531.0,0.03644826642590382
3530.0,0.03649550058570927
3529.0,0.036542739883292485
3528.0,0.03658998431977123
3527.0,0.03663723389626394
3526.0,0.03668448861388862
3525.0,0.03668448861388862
3524.0,0.036731748473764814
3523.0,0.03682628362474838
3522.0,0.0369681249461018
3521.0,0.0371100126082089
3520.0,0.037299268295658994
3519.0,0.037488606492403154
3518.0,0.03763066432997886
3517.0,0.03772539537668518
3516.0,0.03777276864991497
3515.0,0.03782014709123227
3514.0,0.03791491948264003
3513.0,0.03796231343498735
3512.0,0.038057116858612794
3511.0,0.038199360808321536
3510.0,0.03829421599749461
3509.0,0.03838909190871931
3508.0,0.038436537637930535
3507.0,0.038436537637930535
3506.0,0.038436537637930535
3505.0,0.038531444649213764
3504.0,0.03862637240519895
3503.0,0.038721320914956836
3502.0,0.038816290187564384
3501.0,0.03886378261277468
3500.0,0.038958783046687984
3499.0,0.03910132267333921
3498.0,0.03924390909822728
3497.0,0.03938654235209116
3496.0,0.03952922246570112
3495.0,0.03962436858984186
3494.0,0.03967194946985697
3493.0,0.039719535563357944
3492.0,0.039767126871487646
3491.0,0.039767126871487646
3490.0,0.039719535563357944
3489.0,0.039719535563357944
3488.0,0.039767126871487646
3487.0,0.03981472339538916
3486.0,0.03995754427315856
3485.0,0.04010041213405646
3484.0,0.0402909757535701
3483.0,0.040529297924893015
3482.0,0.040672354027829094
3481.0,0.04076775094900409
3480.0,0.04081545726880842
3479.0,0.04086316882962593
3478.0,0.04091088563260792
3477.0,0.041006334969674096
3476.0,0.041149548320321694
3475.0,0.04124505013091051
3474.0,0.041340572947066834
3473.0,0.041436116778032606
3472.0,0.041579471947481794
3471.0,0.04172287445230238
3470.0,0.041914151478914974
3469.0,0.042057664554595586
3468.0,0.042201225070002124
3467.0,0.042344833056508824
3466.0,0.04248848854552012
3465.0,0.042584285277331047
3464.0,0.04268010314465909
3463.0,0.042775942156833
3462.0,0.04287180232318688
3461.0,0.042967683653061695
3460.0,0.043063586155803746
3459.0,0.04325545471730896
3458.0,0.04344740808260106
3457.0,0.04363944632667782
3456.0,0.04383156952463674
3455.0,0.04402377775167454
3454.0,0.04421607108308856
3453.0,0.04440844959427559
3452.0,0.04460091336073302
3451.0,0.04474531717982
3450.0,0.04488976902944808
3449.0,0.04508244626504121
3448.0,0.045323413081356456
3447.0,0.045612749855485024
3446.0,0.04585401117045196
3445.0,0.046047116768076934
3444.0,0.046192002334692894
3443.0,0.04638525830935958
3442.0,0.04657860031896477
3441.0,0.04677202844014605
3440.0,0.04701393480294458
3439.0,0.04720755695590784
3438.0,0.04744970610179822
3437.0,0.047643522676209304
3436.0,0.04778894189133087
3435.0,0.047934409814949674
3434.0,0.04803141550708934
3433.0,0.04817696468408794
3432.0,0.04832256265669943
3431.0,0.04851676924770687
3430.0,0.04866248120408234
3429.0,0.048808242065293994
3428.0,0.04885683989244738
3427.0,0.048905443158337114
3426.0,0.04885683989244738
3425.0,0.04885683989244738
3424.0,0.04885683989244738
3423.0,0.048905443158337114
3422.0,0.04900266601119507
3421.0,0.04905128560059957
3420.0,0.04905128560059957
3419.0,0.04900266601119507
3418.0,0.04900266601119507
3417.0,0.048954051864180226
3416.0,0.04900266601119507
3415.0,0.04905128560059957
3414.0,0.04909991063361274
3413.0,0.04909991063361274
3412.0,0.04905128560059957
3411.0,0.048954051864180226
3410.0,0.04885683989244738
3409.0,0.04885683989244738
3408.0,0.04885683989244738
3407.0,0.048954051864180226
3406.0,0.04900266601119507
3405.0,0.04900266601119507
3404.0,0.048905443158337114
3403.0,0.048808242065293994
3402.0,0.04866248120408234
3401.0,0.04851676924770687
3400.0,0.04841965509660828
3399.0,0.04841965509660828
3398.0,0.048468209457651845
3397.0,0.0486139051197072
3396.0,0.04871106272232795
3395.0,0.04866248120408234
3394.0,0.048565334467987054
3393.0,0.04841965509660828
3392.0,0.04827402457540786
3391.0,0.048225491918274965
3390.0,0.04827402457540786
3389.0,0.04832256265669943
3388.0,0.04837110616336182
3387.0,0.04837110616336182
3386.0,0.04832256265669943
3385.0,0.04827402457540786
3384.0,0.04817696468408794
3383.0,0.04807992647970649
3382.0,0.047934409814949674
3381.0,0.0478374257855374
3380.0,0.047691990337874746
3379.0,0.047595060422975566
3378.0,0.04754660357696672
3377.0,0.04749815213697639
3376.0,0.04740126547022694
3375.0,0.04730440041308315
3374.0,0.04715914332429838
3373.0,0.047062332249019345
3372.0,0.04701393480294458
3371.0,0.0469171560879138
3370.0,0.04682039893436585
3369.0,0.04667530361081473
3368.0,0.04657860031896477
3367.0,0.046481918555007384
3366.0,0.04633693625290869
3365.0,0.046192002334692894
3364.0,0.046047116768076934
3363.0,0.045902279520810385
3362.0,0.04580574818413763
3361.0,0.04570923829887308
3360.0,0.045612749855485024
3359.0,0.045516282844447975
3358.0,0.04541983725624266
3357.0,0.04527520902093718
3356.0,0.04508244626504121
3355.0,0.04488976902944808
3354.0,0.04474531717982
3353.0,0.04464904263234004
3352.0,0.04460091336073302
3351.0,0.04455278942230456
3350.0,0.04450467081587295
3349.0,0.044360346976747955
3348.0,0.044167989767578186
3347.0,0.04402377775167454
3346.0,0.04387961360698034
3345.0,0.04383156952463674
3344.0,0.04383156952463674
3343.0,0.043735497301724546
3342.0,0.04359142880416744
3341.0,0.04344740808260106
3340.0,0.043303435105349175
3339.0,0.04320747962950522
3338.0,0.0431115453499229
3337.0,0.043063586155803746
3336.0,0.04301563225723992
3335.0,0.042967683653061695
3334.0,0.04291974034210022
3333.0,0.04282386959515394
3332.0,0.04272802000705722
3331.0,0.042584285277331047
3330.0,0.04248848854552012
3329.0,0.042344833056508824
3328.0,0.042201225070002124
3327.0,0.042057664554595586
3326.0,0.04186632432376469
3325.0,0.04172287445230238
3324.0,0.041579471947481794
3323.0,0.041483896576958834
3322.0,0.04138834223512067
3321.0,0.04129280891271536
3320.0,0.041197296600497646
3319.0,0.04105406750606355
3318.0,0.041006334969674096
3317.0,0.04091088563260792
3316.0,0.04086316882962593
3315.0,0.04076775094900409
3314.0,0.04062466342415694
3313.0,0.04043395336207234
3312.0,0.040243327009005014
3311.0,0.0400527842915015
3310.0,0.039909932095080425
3309.0,0.039909932095080425
3308.0,0.039909932095080425
3307.0,0.039909932095080425
3306.0,0.03986232513620536
3305.0,0.039767126871487646
3304.0,0.03962436858984186
3303.0,0.03952922246570112
3302.0,0.03938654235209116
3301.0,0.03929144831144349
3300.0,0.03919637508823026
3299.0,0.03914884628031379
3298.0,0.03905380426616856
3297.0,0.039006291057664066
3296.0,0.03886378261277468
3295.0,0.03876880295533702
3294.0,0.03862637240519895
3293.0,0.038531444649213764
3292.0,0.038531444649213764
3291.0,0.03857890593355173
3290.0,0.03857890593355173
3289.0,0.03857890593355173
3288.0,0.03848398855105106
3287.0,0.038341651362284734
3286.0,0.038151940981675736
3285.0,0.03796231343498735
3284.0,0.03786753070176463
3283.0,0.03782014709123227
3282.0,0.03777276864991497
3281.0,0.03767802727041558
3280.0,0.03763066432997886
3279.0,0.03753595394209874
3278.0,0.03744126420403626
3277.0,0.03739392707587297
3276.0,0.037346595106788616
3275.0,0.037299268295658994
3274.0,0.03720463014276687
3273.0,0.0371573187987575
3272.0,0.037062711569998186
3271.0,0.03701541568300293
3270.0,0.03692083935817303
3269.0,0.03682628362474838
3268.0,0.03668448861388862
3267.0,0.03658998431977123
3266.0,0.036542739883292485
3265.0,0.036542739883292485
3264.0,0.036542739883292485
3263.0,0.036542739883292485
3262.0,0.03649550058570927
3261.0,0.03649550058570927
3260.0,0.036401037402758574
3259.0,0.03630659476198117
3258.0,0.03621217265444465
3257.0,0.03621217265444465
3256.0,0.03625938114211591
3255.0,0.03625938114211591
3254.0,0.03621217265444465
3253.0,0.036117771071222604
3252.0,0.03597620715996652
3251.0,0.03583468937826462
3250.0,0.03578752703018084
3249.0,0.035693217696063595
3248.0,0.035646070707806565
3247.0,0.03559892883726867
3246.0,0.03559892883726867
3245.0,0.03559892883726867
3244.0,0.03555179208333925
3243.0,0.03545753392086315
3242.0,0.035363296211498474
3241.0,0.03522197797762394
3240.0,0.03508070571335731
3239.0,0.03498654972775217
3238.0,0.03489241415094413
3237.0,0.03484535401307465
3236.0,0.03479829897408804
3235.0,0.03475124903287918
3234.0,0.03465716443937783
3233.0,0.034516075754861264
3232.0,0.03432802877989327
3231.0,0.03423403581731388
3230.0,0.034187046963396917
3229.0,0.034187046963396917
3228.0,0.034187046963396917
3227.0,0.03414006319292828
3226.0,0.034046110897937076
3225.0,0.03385826726096752
3224.0,0.03367050483612166
3223.0,0.033482823553208085
3222.0,0.03334211579824231
3221.0,0.0332483359486222
3220.0,0.033201453616638954
3219.0,0.033154576345083564
3218.0,0.03310770413286357
3217.0,0.0329671178412978
3216.0,0.032873418923587305
3215.0,0.03273290844021437
3214.0,0.032545631817259224
3213.0,0.03235843591698884
3212.0,0.032218091924200776
3211.0,0.03207779326948268
3210.0,0.03193753992355086
3209.0,0.03184406285002961
3208.0,0.03175060589208267
3207.0,0.03175060589208267
3206.0,0.03170388495374454
3205.0,0.03170388495374454
3204.0,0.03170388495374454
3203.0,0.031657169041054534
3202.0,0.03151705144606498
3201.0,0.03133029827960798
3200.0,0.031190286087141805
3199.0,0.03105031901865729
3198.0,0.031003673351687855
3197.0,0.030910397045078586
3196.0,0.03081714076773867
3195.0,0.0307239045110681
3194.0,0.03058408764601861
3193.0,0.030490901403433135
3192.0,0.030351159519274695
3191.0,0.030211462585061133
3190.0,0.030118356253500123
3189.0,0.03002526987828502
3188.0,0.029932203450862893
3187.0,0.029885677714903025
3186.0,0.029839156962686353
3185.0,0.029746130405213123
3184.0,0.029746130405213123
3183.0,0.02969962459782227
3182.0,0.029653123769906697
3181.0,0.029560137048236124
3180.0,0.02942069428514915
3179.0,0.029281296279810798
3178.0,0.029188389127482228
3177.0,0.029141943003497595
3176.0,0.029095501846216454
3175.0,0.029095501846216454
3174.0,0.029002634427514717
3173.0,0.028956208163971375
3172.0,0.028816959143838528
3171.0,0.02872415126189476
3170.0,0.02863136320857662
3169.0,0.02849221828874393
3168.0,0.02839947976994095
3167.0,0.028353117935693284
3166.0,0.028306761050139073
3165.0,0.028214062120885508
3164.0,0.02812138297373412
3163.0,0.02798240132598462
3162.0,0.027889771597169544
3161.0,0.027843464140506313
3160.0,0.027843464140506313
3159.0,0.027843464140506313
3158.0,0.027797161620935595
3157.0,0.027750864037404455
3156.0,0.027658283674251827
3155.0,0.02751945012352408
3154.0,0.027426919073445077
3153.0,0.02738066094037661
3152.0,0.027288159452933503
3151.0,0.02724191609646076
3150.0,0.027195677663422346
3149.0,0.027149444152769986
3148.0,0.027149444152769986
3147.0,0.02710321556345563
3146.0,0.027056991894431892
3145.0,0.027010773144651168
3144.0,0.02691835039863255
3143.0,0.026872146400301444
3142.0,0.02682594731702781
3141.0,0.02677975314776626
3140.0,0.02677975314776626
3139.0,0.02682594731702781
3138.0,0.026872146400301444
3137.0,0.026872146400301444
3136.0,0.02682594731702781
3135.0,0.02677975314776626
3134.0,0.026733563891471412
3133.0,0.026687379547098322
3132.0,0.026687379547098322
3131.0,0.026687379547098322
3130.0,0.026733563891471412
3129.0,0.026687379547098322
3128.0,0.026595025589939425
3127.0,0.026502691267936695
3126.0,0.02636422658259252
3125.0,0.02617967564731627
3124.0,0.026087429580295085
3123.0,0.025995203102585407
3122.0,0.025949097207122573
3121.0,0.025902996205869
3120.0,0.025902996205869
3119.0,0.025949097207122573
3118.0,0.025995203102585407
3117.0,0.026041313893296225
3116.0,0.026087429580295085
3115.0,0.02613355016462182
3114.0,0.02617967564731627
3113.0,0.026225806029419818
3112.0,0.026318081496016443
3111.0,0.026410376572743033
3110.0,0.026502691267936695
3109.0,0.02654885597506529
3108.0,0.02664120011360227
3107.0,0.026687379547098322
3106.0,0.026733563891471412
3105.0,0.02677975314776626
3104.0,0.02682594731702781
3103.0,0.02682594731702781
3102.0,0.02682594731702781
3101.0,0.026733563891471412
3100.0,0.026595025589939425
3099.0,0.026410376572743033
3098.0,0.026225806029419818
3097.0,0.02613355016462182
3096.0,0.026041313893296225
3095.0,0.025995203102585407
3094.0,0.025949097207122573
3093.0,0.025902996205869
3092.0,0.025902996205869
3091.0,0.025995203102585407
3090.0,0.026041313893296225
3089.0,0.026087429580295085
3088.0,0.02613355016462182
3087.0,0.026225806029419818
3086.0,0.026318081496016443
3085.0,0.026502691267936695
3084.0,0.026687379547098322
3083.0,0.02682594731702781
3082.0,0.02691835039863255
3081.0,0.026872146400301444
3080.0,0.02682594731702781
3079.0,0.02677975314776626
3078.0,0.026733563891471412
3077.0,0.026733563891471412
3076.0,0.02677975314776626
3075.0,0.02677975314776626
3074.0,0.026733563891471412
3073.0,0.026687379547098322
3072.0,0.02664120011360227
3071.0,0.026595025589939425
3070.0,0.02664120011360227
3069.0,0.02664120011360227
3068.0,0.026595025589939425
3067.0,0.02654885597506529
3066.0,0.026456531467510258
3065.0,0.02636422658259252
3064.0,0.026271941311972746
3063.0,0.026225806029419818
3062.0,0.026225806029419818
3061.0,0.026225806029419818
3060.0,0.026318081496016443
3059.0,0.026410376572743033
3058.0,0.026502691267936695
3057.0,0.026595025589939425
3056.0,0.02664120011360227
3055.0,0.026595025589939425
3054.0,0.02654885597506529
3053.0,0.02636422658259252
3052.0,0.02613355016462182
3051.0,0.025902996205869
3050.0,0.02558042614771394
3049.0,0.025304128090317013
3048.0,0.02498200236711723
3047.0,0.02461415101053266
3046.0,0.024292536462819925
3045.0,0.024017056287453542
3044.0,0.023833499868024743
3043.0,0.023741750742954926
3042.0,0.02365002099672653
3041.0,0.02355831062115543
3040.0,0.02342078135989012
3039.0,0.023374947949272418
3038.0,0.023283295636617574
3037.0,0.023237476732539397
3036.0,0.023191662661933732
3035.0,0.02314585342378117
3034.0,0.02314585342378117
3033.0,0.02314585342378117
3032.0,0.023191662661933732
3031.0,0.023237476732539397
3030.0,0.023283295636617574
3029.0,0.023329119375188556
3028.0,0.02342078135989012
3027.0,0.02351246269481
3026.0,0.02355831062115543
3025.0,0.02355831062115543
3024.0,0.023604163388120325
3023.0,0.023695883447997224
3022.0,0.023879381700184332
3021.0,0.024017056287453542
3020.0,0.024200690320592466
3019.0,0.02438440203310499
3018.0,0.024568191490736968
3017.0,0.024706084643793647
3016.0,0.024890010313838973
3015.0,0.025028005701930978
3014.0,0.02521206778644225
3013.0,0.02544225514642018
3012.0,0.02562649291857677
3011.0,0.025856900097785074
3010.0,0.026087429580295085
3009.0,0.026318081496016443
3008.0,0.02654885597506529
3007.0,0.02677975314776626
3006.0,0.027010773144651168
3005.0,0.027149444152769986
3004.0,0.027334407733889066
3003.0,0.02747318213414429
3002.0,0.027658283674251827
3001.0,0.027843464140506313
3000.0,0.028028723600243666
2999.0,0.028214062120885508
2998.0,0.02839947976994095
2997.0,0.028538594975413334
2996.0,0.028677754757187035
2995.0,0.028816959143838528
2994.0,0.028956208163971375
2993.0,0.029188389127482228
2992.0,0.029513651152349718
2991.0,0.029839156962686353
2990.0,0.030164906924202484
2989.0,0.030444315779156517
2988.0,0.03063068826647264
2987.0,0.03081714076773867
2986.0,0.03105031901865729
2985.0,0.03133029827960798
2984.0,0.03161045815293173
2983.0,0.03193753992355086
2982.0,0.03226486821611996
2981.0,0.03263926003405038
2980.0,0.03301397488206215
2979.0,0.03338901331806565
2978.0,0.0338113190438627
2977.0,0.034187046963396917
2976.0,0.03465716443937783
2975.0,0.03512779136222477
2974.0,0.03559892883726867
2973.0,0.036117771071222604
2972.0,0.03658998431977123
2971.0,0.037062711569998186
2970.0,0.037583306554248797
2969.0,0.038057116858612794
2968.0,0.03857890593355173
2967.0,0.03905380426616856
2966.0,0.03948165721929198
2965.0,0.03986232513620536
2964.0,0.040243327009005014
2963.0,0.04057697805689475
2962.0,0.04091088563260792
2961.0,0.041101805289228244
2960.0,0.041197296600497646
2959.0,0.04124505013091051
2958.0,0.041197296600497646
2957.0,0.041101805289228244
2956.0,0.04086316882962593
2955.0,0.04057697805689475
2954.0,0.04019568349166214
2953.0,0.039719535563357944
2952.0,0.03919637508823026
2951.0,0.03862637240519895
2950.0,0.03796231343498735
2949.0,0.03720463014276687
2948.0,0.03644826642590382
2947.0,0.035693217696063595
2946.0,0.0349394793888016
2945.0,0.03423403581731388
2944.0,0.03357665405630694
2943.0,0.032920265855503006
2942.0,0.032218091924200776
2941.0,0.031563752288295444
2940.0,0.031003673351687855
2939.0,0.030490901403433135
2938.0,0.030071810571884017
2937.0,0.02969962459782227
2936.0,0.029374223311705583
2935.0,0.02904906565457588
2934.0,0.028770552723758724
2933.0,0.02849221828874393
2932.0,0.02826040911222183
2931.0,0.02812138297373412
2930.0,0.027936083991977778
2929.0,0.027797161620935595
2928.0,0.0277045713888604
2927.0,0.027658283674251827
2926.0,0.027658283674251827
2925.0,0.027612000892527133
2924.0,0.027612000892527133
2923.0,0.027612000892527133
2922.0,0.027658283674251827
2921.0,0.0277045713888604
2920.0,0.027750864037404455
2919.0,0.027797161620935595
2918.0,0.027750864037404455
2917.0,0.0277045713888604
2916.0,0.027612000892527133
2915.0,0.027565723042634938
2914.0,0.027565723042634938
2913.0,0.027565723042634938
2912.0,0.027612000892527133
2911.0,0.027612000892527133
2910.0,0.027612000892527133
2909.0,0.027612000892527133
2908.0,0.027612000892527133
2907.0,0.0277045713888604
2906.0,0.027797161620935595
2905.0,0.027889771597169544
2904.0,0.027936083991977778
2903.0,0.027936083991977778
2902.0,0.027936083991977778
2901.0,0.027889771597169544
2900.0,0.027889771597169544
2899.0,0.027889771597169544
2898.0,0.027889771597169544
2897.0,0.02798240132598462
2896.0,0.02812138297373412
2895.0,0.028214062120885508
2894.0,0.02826040911222183
2893.0,0.02826040911222183
2892.0,0.028306761050139073
2891.0,0.028353117935693284
2890.0,0.028353117935693284
2889.0,0.028353117935693284
2888.0,0.028306761050139073
2887.0,0.028214062120885508
2886.0,0.028075050815808744
2885.0,0.02798240132598462
2884.0,0.027843464140506313
2883.0,0.027658283674251827
2882.0,0.02747318213414429
2881.0,0.02724191609646076
2880.0,0.027010773144651168
2879.0,0.02677975314776626
2878.0,0.02654885597506529
2877.0,0.026410376572743033
2876.0,0.026318081496016443
2875.0,0.026318081496016443
2874.0,0.026271941311972746
2873.0,0.026225806029419818
2872.0,0.02613355016462182
2871.0,0.025949097207122573
2870.0,0.025810808881832736
2869.0,0.025672564576383117
2868.0,0.02553436426275746
2867.0,0.02544225514642018
2866.0,0.025350165561278004
2865.0,0.025258095499050004
2864.0,0.02521206778644225
2863.0,0.02512002699306959
2862.0,0.025028005701930978
2861.0,0.024890010313838973
2860.0,0.02475205875931885
2859.0,0.024660115394541604
2858.0,0.024568191490736968
2857.0,0.024522236834125355
2856.0,0.024476287039668643
2855.0,0.024430342106337877
2854.0,0.024338466818941473
2853.0,0.024292536462819925
2852.0,0.024200690320592466
2851.0,0.02406295751688936
2850.0,0.023879381700184332
2849.0,0.023695883447997224
2848.0,0.023466619608062178
2847.0,0.023237476732539397
2846.0,0.02296266477531872
2845.0,0.022733787572707387
2844.0,0.022505030926963654
2843.0,0.022367834754000393
2842.0,0.0221849739168134
2841.0,0.02204787879853809
2840.0,0.021910826943857264
2839.0,0.021819483062586187
2838.0,0.021728158389364705
2837.0,0.021636852916117055
2836.0,0.021545566634771474
2835.0,0.0214542995372613
2834.0,0.02140867317992523
2833.0,0.021363051615525652
2832.0,0.021317434843055594
2831.0,0.021271822861508305
2830.0,0.02122621566987748
2829.0,0.021135015652343103
2828.0,0.021043834782408455
2827.0,0.020952673052035298
2826.0,0.020861530453190058
2825.0,0.02081596632558158
2824.0,0.020724852408976924
2823.0,0.02067930261797568
2822.0,0.02058821736556471
2821.0,0.02058821736556471
2820.0,0.020542681902151694
2819.0,0.020542681902151694
2818.0,0.020497151212598652
2817.0,0.020406104151069693
2816.0,0.020406104151069693
2815.0,0.02036058777709271
2814.0,0.02036058777709271
2813.0,0.02036058777709271
2812.0,0.020315076172974234
2811.0,0.02026956933771462
2810.0,0.02026956933771462
2809.0,0.02026956933771462
2808.0,0.02022406727031445
2807.0,0.02022406727031445
2806.0,0.02022406727031445
2805.0,0.02022406727031445
2804.0,0.02022406727031445
2803.0,0.020178569969774962
2802.0,0.02013307743509718
2801.0,0.020087589665283012
2800.0,0.02004210665933459
2799.0,0.02004210665933459
2798.0,0.02004210665933459
2797.0,0.02004210665933459
2796.0,0.020087589665283012
2795.0,0.020087589665283012
2794.0,0.02004210665933459
2793.0,0.019996628416253603
2792.0,0.01995115493504329
2791.0,0.01990568621470623
2790.0,0.019860222254245663
2789.0,0.019769308608968306
2788.0,0.019723858922159776
2787.0,0.019723858922159776
2786.0,0.019723858922159776
2785.0,0.019678413991243593
2784.0,0.019632973815224997
2783.0,0.01958753839310856
2782.0,0.01954210772389997
2781.0,0.01949668180660491
2780.0,0.01949668180660491
2779.0,0.019451260640229506
2778.0,0.01940584422377989
2777.0,0.019360432556262852
2776.0,0.019269623464054586
2775.0,0.019269623464054586
2774.0,0.0192242260373785
2773.0,0.019269623464054586
2772.0,0.019269623464054586
2771.0,0.019269623464054586
2770.0,0.019315025636685412
2769.0,0.019269623464054586
2768.0,0.0192242260373785
2767.0,0.0192242260373785
2766.0,0.019178833355664393
2765.0,0.019133445417920836
2764.0,0.019133445417920836
2763.0,0.019133445417920836
2762.0,0.019133445417920836
2761.0,0.019133445417920836
2760.0,0.0190880622231564
2759.0,0.019042683770379876
2758.0,0.01899731005860028
2757.0,0.01899731005860028
2756.0,0.018951941086827073
2755.0,0.018906576854070378
2754.0,0.018906576854070378
2753.0,0.018861217359339655
2752.0,0.018861217359339655
2751.0,0.018906576854070378
2750.0,0.018906576854070378
2749.0,0.018861217359339655
2748.0,0.018815862601645694
2747.0,0.018770512579999288
2746.0,0.018725167293411005
2745.0,0.018679826740892747
2744.0,0.018634490921455527
2743.0,0.018634490921455527
2742.0,0.018634490921455527
2741.0,0.01858915983411169
2740.0,0.01858915983411169
2739.0,0.018543833477873584
2738.0,0.018498511851753108
2737.0,0.018498511851753108
2736.0,0.018498511851753108
2735.0,0.018498511851753108
2734.0,0.01845319495476394
2733.0,0.01840788278591865
2732.0,0.01831727262871463
2731.0,0.018271974638383703
2730.0,0.018226681372252695
2729.0,0.018226681372252695
2728.0,0.018271974638383703
2727.0,0.018271974638383703
2726.0,0.018271974638383703
2725.0,0.018226681372252695
2724.0,0.018136109008649592
2723.0,0.01809082990920774
2722.0,0.01809082990920774
2721.0,0.01809082990920774
2720.0,0.018045555530026514
2719.0,0.01800028587012159
2718.0,0.017955020928509757
2717.0,0.017909760704207134
2716.0,0.017864505196230507
2715.0,0.017864505196230507
2714.0,0.017864505196230507
2713.0,0.01781925440359733
2712.0,0.01781925440359733
2711.0,0.01781925440359733
2710.0,0.017864505196230507
2709.0,0.017864505196230507
2708.0,0.017864505196230507
2707.0,0.017864505196230507
2706.0,0.01781925440359733
2705.0,0.017728766960431575
2704.0,0.017638298366853045
2703.0,0.01759307113620534
2702.0,0.01759307113620534
2701.0,0.01759307113620534
2700.0,0.01759307113620534
2699.0,0.01759307113620534
2698.0,0.017547848615010242
2697.0,0.017547848615010242
2696.0,0.01759307113620534
2695.0,0.01759307113620534
2694.0,0.01759307113620534
2693.0,0.017547848615010242
2692.0,0.017502630802287644
2691.0,0.017457417697056554
2690.0,0.017412209298337533
2689.0,0.017321806616515723
2688.0,0.01727661233145472
2687.0,0.017231422748988034
2686.0,0.017231422748988034
2685.0,0.01727661233145472
2684.0,0.017321806616515723
2683.0,0.017367005605150476
2682.0,0.017367005605150476
2681.0,0.017367005605150476
2680.0,0.017367005605150476
2679.0,0.017367005605150476
2678.0,0.017321806616515723
2677.0,0.01727661233145472
2676.0,0.01727661233145472
2675.0,0.01727661233145472
2674.0,0.01727661233145472
2673.0,0.01727661233145472
2672.0,0.01727661233145472
2671.0,0.017231422748988034
2670.0,0.017231422748988034
2669.0,0.017186237868137555
2668.0,0.017186237868137555
2667.0,0.017186237868137555
2666.0,0.017186237868137555
2665.0,0.017141057687924732
2664.0,0.017141057687924732
2663.0,0.017141057687924732
2662.0,0.017095882207371904
2661.0,0.017095882207371904
2660.0,0.017095882207371904
2659.0,0.017050711425501408
2658.0,0.017050711425501408
2657.0,0.017050711425501408
2656.0,0.017050711425501408
2655.0,0.017050711425501408
2654.0,0.017050711425501408
2653.0,0.017050711425501408
2652.0,0.017095882207371904
2651.0,0.017095882207371904
2650.0,0.017050711425501408
2649.0,0.017005545341335804
2648.0,0.016960383953898095
2647.0,0.016960383953898095
2646.0,0.016960383953898095
2645.0,0.017005545341335804
2644.0,0.017005545341335804
2643.0,0.017005545341335804
2642.0,0.016960383953898095
2641.0,0.016960383953898095
2640.0,0.016960383953898095
2639.0,0.017005545341335804
2638.0,0.017005545341335804
2637.0,0.017005545341335804
2636.0,0.017005545341335804
2635.0,0.017050711425501408
2634.0,0.017095882207371904
2633.0,0.017141057687924732
2632.0,0.017141057687924732
2631.0,0.017186237868137555
2630.0,0.017186237868137555
2629.0,0.017186237868137555
2628.0,0.017186237868137555
2627.0,0.017186237868137555
2626.0,0.017186237868137555
2625.0,0.017141057687924732
2624.0,0.017050711425501408
2623.0,0.016960383953898095
2622.0,0.016915227262211507
2621.0,0.016915227262211507
2620.0,0.016915227262211507
2619.0,0.016915227262211507
2618.0,0.016915227262211507
2617.0,0.016870075265299933
2616.0,0.016824927962187042
2615.0,0.016824927962187042
2614.0,0.016824927962187042
2613.0,0.016870075265299933
2612.0,0.016960383953898095
2611.0,0.016960383953898095
2610.0,0.016960383953898095
2609.0,0.016960383953898095
2608.0,0.017005545341335804
2607.0,0.017005545341335804
2606.0,0.016960383953898095
2605.0,0.016915227262211507
2604.0,0.016824927962187042
2603.0,0.01677978535189717
2602.0,0.016734647433454652
2601.0,0.01677978535189717
2600.0,0.01677978535189717
2599.0,0.01677978535189717
2598.0,0.016824927962187042
2597.0,0.016824927962187042
2596.0,0.016870075265299933
2595.0,0.016870075265299933
2594.0,0.016870075265299933
2593.0,0.016870075265299933
2592.0,0.016870075265299933
2591.0,0.016870075265299933
2590.0,0.016824927962187042
2589.0,0.016824927962187042
2588.0,0.016824927962187042
2587.0,0.016824927962187042
2586.0,0.016870075265299933
2585.0,0.016915227262211507
2584.0,0.016960383953898095
2583.0,0.016960383953898095
2582.0,0.016960383953898095
2581.0,0.016960383953898095
2580.0,0.017005545341335804
2579.0,0.017005545341335804
2578.0,0.016960383953898095
2577.0,0.016960383953898095
2576.0,0.016960383953898095
2575.0,0.016960383953898095
2574.0,0.016960383953898095
2573.0,0.016960383953898095
2572.0,0.016960383953898095
2571.0,0.016960383953898095
2570.0,0.016960383953898095
2569.0,0.016960383953898095
2568.0,0.016960383953898095
2567.0,0.017005545341335804
2566.0,0.016960383953898095
2565.0,0.016915227262211507
2564.0,0.016915227262211507
2563.0,0.016915227262211507
2562.0,0.016915227262211507
2561.0,0.016915227262211507
2560.0,0.016915227262211507
2559.0,0.016960383953898095
2558.0,0.017005545341335804
2557.0,0.017005545341335804
2556.0,0.017005545341335804
2555.0,0.016915227262211507
2554.0,0.016824927962187042
2553.0,0.01677978535189717
2552.0,0.01677978535189717
2551.0,0.016824927962187042
2550.0,0.016870075265299933
2549.0,0.016824927962187042
2548.0,0.016824927962187042
2547.0,0.016824927962187042
2546.0,0.016824927962187042
2545.0,0.016824927962187042
2544.0,0.01677978535189717
2543.0,0.01677978535189717
2542.0,0.01677978535189717
2541.0,0.016734647433454652
2540.0,0.016734647433454652
2539.0,0.016734647433454652
2538.0,0.016734647433454652
2537.0,0.016689514205884493
2536.0,0.016689514205884493
2535.0,0.016689514205884493
2534.0,0.016644385668211692
2533.0,0.016644385668211692
2532.0,0.016644385668211692
2531.0,0.016689514205884493
2530.0,0.016689514205884493
2529.0,0.016689514205884493
2528.0,0.016689514205884493
2527.0,0.016689514205884493
2526.0,0.016734647433454652
2525.0,0.016689514205884493
2524.0,0.016644385668211692
2523.0,0.016599261819461697
2522.0,0.016554142658660398
2521.0,0.016554142658660398
2520.0,0.016554142658660398
2519.0,0.016554142658660398
2518.0,0.016554142658660398
2517.0,0.016509028184833463
2516.0,0.01646391839700767
2515.0,0.016418813294209356
2514.0,0.016418813294209356
2513.0,0.016418813294209356
2512.0,0.016418813294209356
2511.0,0.016418813294209356
2510.0,0.016418813294209356
2509.0,0.016373712875465518
2508.0,0.01632861713980338
2507.0,0.01628352608625061
2506.0,0.01628352608625061
2505.0,0.01628352608625061
2504.0,0.01628352608625061
2503.0,0.01628352608625061
2502.0,0.016238439713835096
2501.0,0.016148281008528276
2500.0,0.016103208673694303
2499.0,0.016058141016111804
2498.0,0.016058141016111804
2497.0,0.016013078034810446
2496.0,0.016058141016111804
2495.0,0.016058141016111804
2494.0,0.016058141016111804
2493.0,0.016058141016111804
2492.0,0.016013078034810446
2491.0,0.01596801972881945
2490.0,0.015922966097169144
2489.0,0.015832872853011715
2488.0,0.01578783323856614
2487.0,0.01578783323856614
2486.0,0.01578783323856614
2485.0,0.01578783323856614
2484.0,0.01578783323856614
2483.0,0.015832872853011715
2482.0,0.015832872853011715
2481.0,0.01578783323856614
2480.0,0.015742798294583915
2479.0,0.015652742414136167
2478.0,0.015562705203923999
2477.0,0.01547268665620738
2476.0,0.015427684378367834
2475.0,0.015427684378367834
2474.0,0.015427684378367834
2473.0,0.01538268676325183
2472.0,0.015337693809893471
2471.0,0.015337693809893471
2470.0,0.015337693809893471
2469.0,0.015337693809893471
2468.0,0.015292705517326866
2467.0,0.015247721884586563
2466.0,0.015247721884586563
2465.0,0.015247721884586563
2464.0,0.015247721884586563
2463.0,0.015247721884586563
2462.0,0.015247721884586563
2461.0,0.015202742910707112
2460.0,0.015157768594724175
2459.0,0.015112798935672522
2458.0,0.015067833932588037
2457.0,0.015067833932588037
2456.0,0.015067833932588037
2455.0,0.015067833932588037
2454.0,0.015067833932588037
2453.0,0.015067833932588037
2452.0,0.015067833932588037
2451.0,0.015112798935672522
2450.0,0.015067833932588037
2449.0,0.014977917890464765
2448.0,0.014932966849499074
2447.0,0.014888020460646079
2446.0,0.014888020460646079
2445.0,0.014888020460646079
2444.0,0.014888020460646079
2443.0,0.014932966849499074
2442.0,0.014932966849499074
2441.0,0.014977917890464765
2440.0,0.014977917890464765
2439.0,0.014977917890464765
2438.0,0.014977917890464765
2437.0,0.014977917890464765
2436.0,0.014977917890464765
2435.0,0.014977917890464765
2434.0,0.014977917890464765
2433.0,0.014977917890464765
2432.0,0.015022873584506602
2431.0,0.015067833932588037
2430.0,0.015112798935672522
2429.0,0.015157768594724175
2428.0,0.015202742910707112
2427.0,0.015247721884586563
2426.0,0.015292705517326866
2425.0,0.015292705517326866
2424.0,0.015292705517326866
2423.0,0.015292705517326866
2422.0,0.015247721884586563
2421.0,0.015247721884586563
2420.0,0.015247721884586563
2419.0,0.015247721884586563
2418.0,0.015292705517326866
2417.0,0.015337693809893471
2416.0,0.01538268676325183
2415.0,0.015427684378367834
2414.0,0.01547268665620738
2413.0,0.01547268665620738
2412.0,0.01547268665620738
2411.0,0.01547268665620738
2410.0,0.01547268665620738
2409.0,0.015517693597737248
2408.0,0.015607721475734415
2407.0,0.015652742414136167
2406.0,0.015652742414136167
2405.0,0.015607721475734415
2404.0,0.015607721475734415
2403.0,0.015607721475734415
2402.0,0.015607721475734415
2401.0,0.015652742414136167
2400.0,0.015652742414136167
2399.0,0.015742798294583915
2398.0,0.01578783323856614
2397.0,0.015832872853011715
2396.0,0.015832872853011715
2395.0,0.015832872853011715
2394.0,0.01578783323856614
2393.0,0.01578783323856614
2392.0,0.01578783323856614
2391.0,0.015832872853011715
2390.0,0.015877917138889863
2389.0,0.015832872853011715
2388.0,0.015832872853011715
2387.0,0.015832872853011715
2386.0,0.015832872853011715
2385.0,0.015832872853011715
2384.0,0.01578783323856614
2383.0,0.015742798294583915
2382.0,0.015652742414136167
2381.0,0.015562705203923999
2380.0,0.01547268665620738
2379.0,0.01538268676325183
2378.0,0.015292705517326866
2377.0,0.015202742910707112
2376.0,0.015112798935672522
2375.0,0.015112798935672522
2374.0,0.015112798935672522
2373.0,0.015067833932588037
2372.0,0.015067833932588037
2371.0,0.015202742910707112
2370.0,0.015202742910707112
2369.0,0.015067833932588037
2368.0,0.015067833932588037
2367.0,0.01538268676325183
2366.0,0.01578783323856614
2365.0,0.016058141016111804
2364.0,0.01632861713980338
2363.0,0.016870075265299933
2362.0,0.017547848615010242
2361.0,0.017728766960431575
2360.0,0.017321806616515723
2359.0,0.016373712875465518
2358.0,0.014798141635428141
2357.0,0.013093968619278806
2356.0,0.012110390002254778
2355.0,0.011797899741219142
2354.0,0.011753276624621556
2353.0,0.011396456654336085
2352.0,0.010906307389674463
2351.0,0.010817248744452446
2350.0,0.011887159731648111
2349.0,0.014124642691606404
2348.0,0.016373712875465518
2347.0,0.017547848615010242
2346.0,0.017005545341335804
2345.0,0.015292705517326866
2344.0,0.01372104409400876
2343.0,0.013138729709955221
2342.0,0.013317820220494436
2341.0,0.013049212141483357
2340.0,0.012467797270160563
2339.0,0.011931796607364653
2338.0,0.011708658092512314
2337.0,0.011753276624621556
2336.0,0.011931796607364653
2335.0,0.012244383261476699
2334.0,0.012512493866907004
2333.0,0.01264661126420652
2332.0,0.01264661126420652
2331.0,0.012378417874516323
2330.0,0.011842527443247208
2329.0,0.01117359295472431
2328.0,0.010728208358306901
2327.0,0.010906307389674463
2326.0,0.011307297450183107
2325.0,0.011797899741219142
2324.0,0.012065734767841452
2323.0,0.012065734767841452
2322.0,0.0119764380713403
2321.0,0.011797899741219142
2320.0,0.011842527443247208
2319.0,0.012021084124518078
2318.0,0.012289056869694281
2317.0,0.012557195064198723
2316.0,0.012780770091995297
2315.0,0.012959713020733288
2314.0,0.013004460275618523
2313.0,0.013004460275618523
2312.0,0.012870232340102872
2311.0,0.012780770091995297
2310.0,0.012736045877764557
2309.0,0.012736045877764557
2308.0,0.012780770091995297
2307.0,0.012870232340102872
2306.0,0.012914970375878188
2305.0,0.013004460275618523
2304.0,0.013049212141483357
2303.0,0.013138729709955221
2302.0,0.013273040668781544
2301.0,0.013317820220494436
2300.0,0.013407393177789162
2299.0,0.013452186585275916
2298.0,0.013541787262693505
2297.0,0.013631406429727155
2296.0,0.013676222949234651
2295.0,0.013765869865004277
2294.0,0.01381070026317599
2293.0,0.01385553528947936
2292.0,0.013945219230304673
2291.0,0.013990068146738865
2290.0,0.01403492169512921
2289.0,0.014079779876432497
2288.0,0.014124642691606404
2287.0,0.014169510141607944
2286.0,0.014259258949925524
2285.0,0.014304140310157809
2284.0,0.014349026309051105
2283.0,0.014393916947563534
2282.0,0.014349026309051105
2281.0,0.014304140310157809
2280.0,0.014169510141607944
2279.0,0.01403492169512921
2278.0,0.013945219230304673
2277.0,0.01385553528947936
2276.0,0.01381070026317599
2275.0,0.01381070026317599
2274.0,0.013765869865004277
2273.0,0.013676222949234651
2272.0,0.013586594534531482
2271.0,0.013541787262693505
2270.0,0.013496984613259544
2269.0,0.013541787262693505
2268.0,0.013586594534531482
2267.0,0.013631406429727155
2266.0,0.013631406429727155
2265.0,0.013586594534531482
2264.0,0.013586594534531482
2263.0,0.013541787262693505
2262.0,0.013541787262693505
2261.0,0.013541787262693505
2260.0,0.013586594534531482
2259.0,0.013586594534531482
2258.0,0.013541787262693505
2257.0,0.013496984613259544
2256.0,0.013452186585275916
2255.0,0.013407393177789162
2254.0,0.013362604389846044
2253.0,0.013362604389846044
2252.0,0.013362604389846044
2251.0,0.013407393177789162
2250.0,0.013452186585275916
2249.0,0.013496984613259544
2248.0,0.013452186585275916
2247.0,0.013452186585275916
2246.0,0.013452186585275916
2245.0,0.013452186585275916
2244.0,0.013407393177789162
2243.0,0.013362604389846044
2242.0,0.013317820220494436
2241.0,0.013273040668781544
2240.0,0.013273040668781544
2239.0,0.013273040668781544
2238.0,0.01322826573375524
2237.0,0.01318349541446362
2236.0,0.01318349541446362
2235.0,0.01318349541446362
2234.0,0.01318349541446362
2233.0,0.013138729709955221
2232.0,0.013138729709955221
2231.0,0.013093968619278806
2230.0,0.013093968619278806
2229.0,0.013004460275618523
2228.0,0.012914970375878188
2227.0,0.012870232340102872
2226.0,0.012825498912458322
2225.0,0.012825498912458322
2224.0,0.012825498912458322
2223.0,0.012825498912458322
2222.0,0.012825498912458322
2221.0,0.012780770091995297
2220.0,0.012736045877764557
2219.0,0.012736045877764557
2218.0,0.012736045877764557
2217.0,0.012736045877764557
2216.0,0.012736045877764557
2215.0,0.012691326268817527
2214.0,0.012691326268817527
2213.0,0.01264661126420652
2212.0,0.01264661126420652
2211.0,0.01264661126420652
2210.0,0.01264661126420652
2209.0,0.01264661126420652
2208.0,0.012557195064198723
2207.0,0.012512493866907004
2206.0,0.012467797270160563
2205.0,0.012423105273012602
2204.0,0.012423105273012602
2203.0,0.012423105273012602
2202.0,0.012423105273012602
2201.0,0.012378417874516323
2200.0,0.012333735073725371
2199.0,0.012289056869694281
2198.0,0.012244383261476699
2197.0,0.012199714248127602
2196.0,0.01215504982870197
2195.0,0.01215504982870197
2194.0,0.012110390002254778
2193.0,0.012065734767841452
2192.0,0.0119764380713403
2191.0,0.011931796607364653
2190.0,0.011887159731648111
2189.0,0.011931796607364653
2188.0,0.011931796607364653
2187.0,0.0119764380713403
2186.0,0.012021084124518078
2185.0,0.012021084124518078
2184.0,0.0119764380713403
2183.0,0.012021084124518078
2182.0,0.012021084124518078
2181.0,0.012021084124518078
2180.0,0.012021084124518078
2179.0,0.012021084124518078
2178.0,0.0119764380713403
2177.0,0.0119764380713403
2176.0,0.0119764380713403
2175.0,0.0119764380713403
2174.0,0.012021084124518078
2173.0,0.0119764380713403
2172.0,0.011931796607364653
2171.0,0.011931796607364653
2170.0,0.011931796607364653
2169.0,0.0119764380713403
2168.0,0.0119764380713403
2167.0,0.012021084124518078
2166.0,0.012021084124518078
2165.0,0.012065734767841452
2164.0,0.012065734767841452
2163.0,0.012110390002254778
2162.0,0.01215504982870197
2161.0,0.01215504982870197
2160.0,0.01215504982870197
2159.0,0.01215504982870197
2158.0,0.01215504982870197
2157.0,0.01215504982870197
2156.0,0.012199714248127602
2155.0,0.012199714248127602
2154.0,0.012199714248127602
2153.0,0.012244383261476699
2152.0,0.012244383261476699
2151.0,0.012244383261476699
2150.0,0.012244383261476699
2149.0,0.012289056869694281
2148.0,0.012289056869694281
2147.0,0.012333735073725371
2146.0,0.012289056869694281
2145.0,0.012289056869694281
2144.0,0.012289056869694281
2143.0,0.012289056869694281
2142.0,0.012333735073725371
2141.0,0.012333735073725371
2140.0,0.012289056869694281
2139.0,0.012244383261476699
2138.0,0.012244383261476699
2137.0,0.012244383261476699
2136.0,0.012244383261476699
2135.0,0.012244383261476699
2134.0,0.012244383261476699
2133.0,0.012199714248127602
2132.0,0.01215504982870197
2131.0,0.01215504982870197
2130.0,0.01215504982870197
2129.0,0.01215504982870197
2128.0,0.01215504982870197
2127.0,0.01215504982870197
2126.0,0.01215504982870197
2125.0,0.01215504982870197
2124.0,0.01215504982870197
2123.0,0.01215504982870197
2122.0,0.012110390002254778
2121.0,0.012110390002254778
2120.0,0.012110390002254778
2119.0,0.01215504982870197
2118.0,0.012199714248127602
2117.0,0.01215504982870197
2116.0,0.012110390002254778
2115.0,0.012110390002254778
2114.0,0.012110390002254778
2113.0,0.012065734767841452
2112.0,0.012021084124518078
2111.0,0.0119764380713403
2110.0,0.0119764380713403
2109.0,0.011931796607364653
2108.0,0.011887159731648111
2107.0,0.011887159731648111
2106.0,0.011842527443247208
2105.0,0.011797899741219142
2104.0,0.011753276624621556
2103.0,0.011708658092512314
2102.0,0.011708658092512314
2101.0,0.011664044143949504
2100.0,0.011664044143949504
2099.0,0.011619434777991433
2098.0,0.011619434777991433
2097.0,0.011574829993696856
2096.0,0.011530229790124524
2095.0,0.011485634166333858
2094.0,0.011485634166333858
2093.0,0.011441043121384498
2092.0,0.011441043121384498
2091.0,0.011441043121384498
2090.0,0.011441043121384498
2089.0,0.011351874764248926
2088.0,0.011262724711199823
2087.0,0.011218156546359825
2086.0,0.011129033935354915
2085.0,0.011084479487313281
2084.0,0.011039929609661936
2083.0,0.010995384301463185
2082.0,0.010950843561779777
2081.0,0.010817248744452446
2080.0,0.010728208358306901
2079.0,0.010639186223752484
2078.0,0.010639186223752484
2077.0,0.010594681998483901
2076.0,0.010594681998483901
2075.0,0.010550182333308289
2074.0,0.010550182333308289
2073.0,0.010505687227290839
2072.0,0.01046119667949763
2071.0,0.01037222925484893
2070.0,0.010327752376126709
2069.0,0.01023881228122181
2068.0,0.010149890396819572
2067.0,0.010060986715464404
2066.0,0.01001654169860089
2065.0,0.009972101229705377
2064.0,0.009883233932095559
2063.0,0.009794384815193347
2062.0,0.009705553871561357
2061.0,0.009616741093766423
2060.0,0.009572341514736404
2059.0,0.009483555971770974
2058.0,0.00939478857608056
2057.0,0.009306039320248427
2056.0,0.009217308196862062
2055.0,0.009217308196862062
2054.0,0.009172949432521227
2053.0,0.009128595198514056
2052.0,0.009128595198514056
2051.0,0.00908424549391551
2050.0,0.00908424549391551
2049.0,0.008995559669244813
2048.0,0.008951223547323472
2047.0,0.008862564879688284
2046.0,0.008818242332126802
2045.0,0.008773924307505121
2044.0,0.0087296108049002
2043.0,0.0087296108049002
2042.0,0.008685301823389224
2041.0,0.008596697419959609
2040.0,0.00850811108984062
2039.0,0.008463824699968647
2038.0,0.008419542825660153
2037.0,0.008375265465994541
2036.0,0.008375265465994541
2035.0,0.008375265465994541
2034.0,0.008330992620051436
2033.0,0.008286724286910463
2032.0,0.008286724286910463
2031.0,0.008286724286910463
2030.0,0.008242460465651913
2029.0,0.008198201155356077
2028.0,0.008198201155356077
2027.0,0.008198201155356077
2026.0,0.008153946355103248
2025.0,0.008109696063975047
2024.0,0.008065450281052211
2023.0,0.008021209005416363
2022.0,0.008021209005416363
2021.0,0.008065450281052211
2020.0,0.008109696063975047
2019.0,0.008153946355103248
2018.0,0.008153946355103248
2017.0,0.008153946355103248
2016.0,0.008153946355103248
2015.0,0.008153946355103248
2014.0,0.008198201155356077
2013.0,0.008198201155356077
2012.0,0.008153946355103248
2011.0,0.008153946355103248
2010.0,0.008153946355103248
2009.0,0.008153946355103248
2008.0,0.008153946355103248
2007.0,0.008153946355103248
2006.0,0.008153946355103248
2005.0,0.008198201155356077
2004.0,0.008198201155356077
2003.0,0.008242460465651913
2002.0,0.008286724286910463
2001.0,0.008330992620051436
2000.0,0.008419542825660153
1999.0,0.008463824699968647
1998.0,0.008463824699968647
1997.0,0.008419542825660153
1996.0,0.008419542825660153
1995.0,0.008463824699968647
1994.0,0.00850811108984062
1993.0,0.008596697419959609
1992.0,0.008640997362049818
1991.0,0.008685301823389224
1990.0,0.008685301823389224
1989.0,0.008685301823389224
1988.0,0.0087296108049002
1987.0,0.008773924307505121
1986.0,0.008818242332126802
1985.0,0.008862564879688284
1984.0,0.008862564879688284
1983.0,0.008906891951112605
1982.0,0.008906891951112605
1981.0,0.008906891951112605
1980.0,0.008862564879688284
1979.0,0.008862564879688284
1978.0,0.008906891951112605
1977.0,0.008906891951112605
1976.0,0.008906891951112605
1975.0,0.008951223547323472
1974.0,0.008995559669244813
1973.0,0.008995559669244813
1972.0,0.008995559669244813
1971.0,0.009039900317800775
1970.0,0.00908424549391551
1969.0,0.009172949432521227
1968.0,0.009306039320248427
1967.0,0.009439170005980158
1966.0,0.009527946474380489
1965.0,0.009527946474380489
1964.0,0.009616741093766423
1963.0,0.009705553871561357
1962.0,0.009838807101520963
1961.0,0.009927665307847056
1960.0,0.01001654169860089
1959.0,0.010149890396819572
1958.0,0.01023881228122181
1957.0,0.010327752376126709
1956.0,0.010416710688994968
1955.0,0.010505687227290839
1954.0,0.010594681998483901
1953.0,0.010639186223752484
1952.0,0.010639186223752484
1951.0,0.010683695010048622
1950.0,0.010728208358306901
1949.0,0.010728208358306901
1948.0,0.010728208358306901
1947.0,0.010639186223752484
1946.0,0.010550182333308289
1945.0,0.01046119667949763
1944.0,0.01037222925484893
1943.0,0.010283280051895272
1942.0,0.010149890396819572
1941.0,0.009883233932095559
1940.0,0.009616741093766423
1939.0,0.009306039320248427
1938.0,0.00908424549391551
1937.0,0.008862564879688284
1936.0,0.008685301823389224
1935.0,0.008552401996197112
1934.0,0.008375265465994541
1933.0,0.008198201155356077
1932.0,0.008021209005416363
1931.0,0.007844288957383316
1930.0,0.007711646202907652
1929.0,0.007534852191956709
1928.0,0.007402303897961815
1927.0,0.007269796045857202
1926.0,0.007181479933320523
1925.0,0.007049039429553483
1924.0,0.00696076819309055
1923.0,0.006872514894289861
1922.0,0.006740168563263094
1921.0,0.00656376950238835
1920.0,0.006387442061109638
1919.0,0.00625524344553785
1918.0,0.006167133386013823
1917.0,0.006035001804881146
1916.0,0.00590291041179003
1915.0,0.00577085918230158
1914.0,0.005638848091999105
1913.0,0.005506877116487674
1912.0,0.005330978174470591
1911.0,0.005199100705396198
1910.0,0.005067263269958211
1909.0,0.00489154225525934
1908.0,0.004759798137184523
1907.0,0.004671990922590297
1906.0,0.004540313378935901
1905.0,0.004408675747646695
1904.0,0.004320939488377862
1903.0,0.004233220950025984
1902.0,0.004145520125434121
1901.0,0.0040578370074493275
1900.0,0.003926345514724705
1899.0,0.0038387066319929275
1898.0,0.0037510854308679953
1897.0,0.003619686766589858
1896.0,0.003488327845821315
1895.0,0.0034007772998332353
1894.0,0.0032694845648473247
1893.0,0.0031382315093266833
1892.0,0.0029632891174733444
1891.0,0.0028758443407954637
1890.0,0.0028321285541661467
1889.0,0.002701007590486082
1888.0,0.002613615602686581
1887.0,0.0025262411970197185
1886.0,0.0024388843664115978
1885.0,0.0023078820582733695
1884.0,0.0021769192542746563
1883.0,0.0020459959305969555
1882.0,0.0019587356365717845
1881.0,0.0018714928717336043
1880.0,0.0017406615763013722
1879.0,0.0016534626036355249
1878.0,0.0015662811355310335
1877.0,0.0014791171649619628
1876.0,0.001348404001626502
1875.0,0.0012612837441823288
1874.0,0.0012612837441823288
1873.0,0.0011741809597138886
1872.0,0.0011306361176557367
1871.0,0.0010870956412141197
1870.0,0.0010870956412141197
1869.0,0.0010000277816797354
1868.0,0.0009565003968372565
1867.0,0.0009129773741116676
1866.0,0.000869458712629001
1865.0,0.0007824344698965646
1864.0,0.0006954276616513155
1863.0,0.0006084382809090627
1862.0,0.0005649501236701937
1861.0,0.0004779868710962365
1860.0,0.0003910410285830057
1859.0,0.0003910410285830057
1858.0,0.0003475746339209884
1857.0,0.0003475746339209884
1856.0,0.00030411258916074324
1855.0,0.0003475746339209884
1854.0,0.0003475746339209884
1853.0,0.0003475746339209884
1852.0,0.00030411258916074324
1851.0,0.00030411258916074324
1850.0,0.0003475746339209884
1849.0,0.0003910410285830057
1848.0,0.00043451177401765406
1847.0,0.000521466320689834
1846.0,0.0006084382809090627
1845.0,0.0006954276616513155
1844.0,0.0007389288868995258
1843.0,0.0007824344698965646
1842.0,0.0007824344698965646
1841.0,0.0007824344698965646
1840.0,0.0007824344698965646
1839.0,0.000869458712629001
1838.0,0.0009129773741116676
1837.0,0.0009565003968372565
1836.0,0.0009565003968372565
1835.0,0.0010000277816797354
1834.0,0.0010870956412141197
1833.0,0.0011306361176557367
1832.0,0.0011741809597138886
1831.0,0.0012612837441823288
1830.0,0.0013919706849057079
1829.0,0.001304841688344327
1828.0,0.0012177301682640973
1827.0,0.0012177301682640973
1826.0,0.0012612837441823288
1825.0,0.0012177301682640973
1824.0,0.0010870956412141197
1823.0,0.0010435595295137379
1822.0,0.0009565003968372565
1821.0,0.0007824344698965646
1820.0,0.0006084382809090627
1819.0,0.000521466320689834
1818.0,0.0003910410285830057
1817.0,0.00021720154586435392
1816.0,4.343161980746579e-05
1815.0,-8.685021164911433e-05
1814.0,-0.00017368305846510168
1813.0,-0.00030389978481260016
1812.0,-0.0004774613744551459
1811.0,-0.0006075870628903246
1810.0,-0.0008243766056055257
1809.0,-0.0010843812922201046
1808.0,-0.001344230411601366
1807.0,-0.001474096691732818
1806.0,-0.0015606526425728795
1805.0,-0.001733712809000476
1804.0,-0.0018634626925240205
1803.0,-0.0019067040408846658
1802.0,-0.0019499410842680476
1801.0,-0.0021660617565077978
1800.0,-0.0023820749327607693
1799.0,-0.0025548081484823015
1798.0,-0.002684312989729598
1797.0,-0.0029432068763250996
1796.0,-0.003158833950862139
1795.0,-0.0032450548131470747
1794.0,-0.0032881588260753603
1793.0,-0.0034174452021935586
1792.0,-0.003675902548784027
1791.0,-0.003805073565025019
1790.0,-0.003891166236910326
1789.0,-0.004106323279658319
1788.0,-0.0042353663594676405
1787.0,-0.0042783722001624724
1786.0,-0.004321373782642635
1785.0,-0.004536317851322913
1784.0,-0.004751155591001144
1783.0,-0.004837060938309712
1782.0,-0.00488000724063431
1781.0,-0.005051749993995713
1780.0,-0.005266332972768684
1779.0,-0.005352136486216796
1778.0,-0.005395031886706203
1777.0,-0.005480809979401258
1776.0,-0.005609445360280407
1775.0,-0.005609445360280407
1774.0,-0.005652315355074045
1773.0,-0.005995123054691298
1772.0,-0.006252051369364686
1771.0,-0.006080782716094024
1770.0,-0.005780899954652252
1769.0,-0.005652315355074045
1768.0,-0.005566571133294396
1767.0,-0.005309236848516363
1766.0,-0.005008820672367076
1765.0,-0.004794110388711914
1764.0,-0.004493337547274212
1763.0,-0.003891166236910326
1762.0,-0.003201946521692367
1761.0,-0.002684312989729598
1760.0,-0.0021228462251614566
1759.0,-0.00121432528617893
1758.0,-8.685021164911433e-05
1757.0,0.0010870956412141197
1756.0,0.002395212539545666
1755.0,0.0038825238627120395
1754.0,0.005506877116487674
1753.0,0.007225635744644521
1752.0,0.009616741093766423
1751.0,0.013138729709955221
1750.0,0.017412209298337533
1749.0,0.02200219004126036
1748.0,0.027056991894431892
1747.0,0.03277974021703267
1746.0,0.03905380426616856
1745.0,0.04624030826677128
1744.0,0.05477768336465916
1743.0,0.06429125215733666
1742.0,0.07437854520917098
1741.0,0.08602728844902896
1740.0,0.10039834085387778
1739.0,0.11537453674376552
1738.0,0.12726117252733116
1737.0,0.13620146131949973
1736.0,0.14624096692523136
1735.0,0.16424603248061653
1734.0,0.18983471545685027
1733.0,0.21126614117229248
1732.0,0.22628667472297836
1731.0,0.2414665777627134
1730.0,0.25916379294268843
1729.0,0.27785987454258443
1728.0,0.2956778591777647
1727.0,0.3128278954052004
1726.0,0.3305901327122174
1725.0,0.3499840475281615
1724.0,0.37110043557939343
1723.0,0.39211625564301
1722.0,0.4099387691962575
1721.0,0.423083044034793
1720.0,0.43403418255333337
1719.0,0.4485500020271247
1718.0,0.47005659834133073
1717.0,0.4886514845097869
1716.0,0.49634548075704066
1715.0,0.4970269409343686
1714.0,0.4932244633933567
1713.0,0.48320029591837566
1712.0,0.4673729987711088
1711.0,0.44757515429591455
1710.0,0.42550573171467243
1709.0,0.40197592766581036
1708.0,0.3768541253620603
1707.0,0.3493040202393891
1706.0,0.32002730572258153
1705.0,0.29422178717140235
1704.0,0.2751509123706144
1703.0,0.26026947143528245
1702.0,0.2448114143916751
1701.0,0.22548303427145044
1700.0,0.20641913263184408
1699.0,0.19368433019188647
1698.0,0.18508681872492616
1697.0,0.17619984625012197
1696.0,0.16627930955536674
1695.0,0.15776531365276036
1694.0,0.15193410459600853
1693.0,0.14752000636314366
1692.0,0.14321071124668383
1691.0,0.13846558914096208
1690.0,0.13388996015562338
1689.0,0.13018179202067182
1688.0,0.12714475529518965
1687.0,0.12395544975390482
1686.0,0.12044539906102569
1685.0,0.11730473761840288
1684.0,0.11503480179926728
1683.0,0.1130019543289007
1682.0,0.11086644403327606
1681.0,0.10862982530385179
1680.0,0.1061827760325369
1679.0,0.10363915453068362
1678.0,0.10111034407341357
1677.0,0.09870518283443275
1676.0,0.09631326826349751
1675.0,0.09388054245443844
1674.0,0.09167586072382083
1673.0,0.08980263003399913
1672.0,0.08793744441149753
1671.0,0.08586848736910624
1670.0,0.08380934001946239
1669.0,0.08212704480115218
1668.0,0.08055578953476306
1667.0,0.07893810920972144
1666.0,0.07727454200674
1665.0,0.07566901529132153
1664.0,0.07401789967289685
1663.0,0.07247565912497134
1662.0,0.0710411591191702
1661.0,0.06986635415888243
1660.0,0.06869471857832687
1659.0,0.06747550294945781
1658.0,0.0663102910421054
1657.0,0.06514819703433927
1656.0,0.06393888339001164
1655.0,0.062331685600995
1654.0,0.06123017721688262
1653.0,0.06118017497378969
1652.0,0.06103020277710969
1651.0,0.06058059667068294
1650.0,0.06028111764589528
1649.0,0.05993198626064755
1648.0,0.05963295401433477
1647.0,0.05948351506743288
1646.0,0.05923456436878238
1645.0,0.058836539841526925
1644.0,0.0583395216116076
1643.0,0.05779345772290467
1642.0,0.057198533682059516
1641.0,0.05670338543334519
1640.0,0.056159373598738904
1639.0,0.05546797900801881
1638.0,0.054679159207724926
1637.0,0.054088483180726676
1636.0,0.05379344615721715
1635.0,0.053351266093323746
1634.0,0.052762392129333646
1633.0,0.05217431555754937
1632.0,0.05153812993871654
1631.0,0.05075640943173498
1630.0,0.04997609347667353
1629.0,0.04944043838819989
1628.0,0.048954051864180226
1627.0,0.04837110616336182
1626.0,0.04774046340917959
1625.0,0.04720755695590784
1624.0,0.04682039893436585
1623.0,0.04657860031896477
1622.0,0.04638525830935958
1621.0,0.04628861957244457
1620.0,0.046192002334692894
1619.0,0.046143701775014145
1618.0,0.04662694927330402
1617.0,0.047934409814949674
1616.0,0.049294465226138895
1615.0,0.04978123335813667
1614.0,0.04968383607539972
1613.0,0.04919717703534143
1612.0,0.04841965509660828
1611.0,0.04730440041308315
1610.0,0.046047116768076934
1609.0,0.044793462458058375
1608.0,0.0435434165901003
1607.0,0.042344833056508824
1606.0,0.041101805289228244
1605.0,0.040005161671583744
1604.0,0.03886378261277468
1603.0,0.03777276864991497
1602.0,0.03668448861388862
1601.0,0.035740369803151095
1600.0,0.0349394793888016
1599.0,0.03414006319292828
1598.0,0.03343591590268957
1597.0,0.032920265855503006
1596.0,0.03245202378113787
1595.0,0.03207779326948268
1594.0,0.03175060589208267
1593.0,0.03151705144606498
1592.0,0.03137697904301118
1591.0,0.03128362253321426
1590.0,0.03133029827960798
1589.0,0.031563752288295444
1588.0,0.031984286006358165
1587.0,0.032686081712916426
1586.0,0.03385826726096752
1585.0,0.035740369803151095
1584.0,0.038341651362284734
1583.0,0.04153168163305643
1582.0,0.044937930324967956
1581.0,0.04807992647970649
1580.0,0.050414848673348
1579.0,0.05163594401163074
1578.0,0.05134256785867963
1577.0,0.04953778109440221
1576.0,0.04677202844014605
1575.0,0.044167989767578186
1574.0,0.042201225070002124
1573.0,0.040529297924893015
1572.0,0.03876880295533702
1571.0,0.036873558918095295
1570.0,0.0349394793888016
1569.0,0.03334211579824231
1568.0,0.03226486821611996
1567.0,0.03133029827960798
1566.0,0.030490901403433135
1565.0,0.02969962459782227
1564.0,0.029002634427514717
1563.0,0.02826040911222183
1562.0,0.02738066094037661
1561.0,0.026456531467510258
1560.0,0.025902996205869
1559.0,0.025764722556973707
1558.0,0.02553436426275746
1557.0,0.025304128090317013
1556.0,0.02512002699306959
1555.0,0.02484402159331056
1554.0,0.024476287039668643
1553.0,0.024108863598207186
1552.0,0.023741750742954926
1551.0,0.02342078135989012
1550.0,0.023100049017062307
1549.0,0.02277955336461468
1548.0,0.022413561996148967
1547.0,0.02200219004126036
1546.0,0.021636852916117055
1545.0,0.0214542995372613
1544.0,0.021317434843055594
1543.0,0.021043834782408455
1542.0,0.02081596632558158
1541.0,0.020724852408976924
1540.0,0.020542681902151694
1539.0,0.02004210665933459
1538.0,0.019814763052665052
1537.0,0.01990568621470623
1536.0,0.020087589665283012
1535.0,0.02026956933771462
1534.0,0.020633757603838898
1533.0,0.021043834782408455
1532.0,0.0211806132671577
1531.0,0.021135015652343103
1530.0,0.021043834782408455
1529.0,0.021089422824428272
1528.0,0.0211806132671577
1527.0,0.021135015652343103
1526.0,0.021043834782408455
1525.0,0.020907099361673565
1524.0,0.02058821736556471
1523.0,0.02026956933771462
1522.0,0.019996628416253603
1521.0,0.019814763052665052
1520.0,0.019632973815224997
1519.0,0.019451260640229506
1518.0,0.019360432556262852
1517.0,0.01940584422377989
1516.0,0.019451260640229506
1515.0,0.01954210772389997
1514.0,0.019860222254245663
1513.0,0.020542681902151694
1512.0,0.021773818325474092
1511.0,0.023329119375188556
1510.0,0.025350165561278004
1509.0,0.028214062120885508
1508.0,0.034516075754861264
1507.0,0.04464904263234004
1506.0,0.05119595406718891
1505.0,0.0518316382728683
1504.0,0.04958646063061889
1503.0,0.04580574818413763
1502.0,0.041149548320321694
1501.0,0.036117771071222604
1500.0,0.03142366482450232
1499.0,0.027288159452933503
1498.0,0.023695883447997224
1497.0,0.020861530453190058
1496.0,0.018770512579999288
1495.0,0.017321806616515723
1494.0,0.016418813294209356
1493.0,0.01596801972881945
1492.0,0.015697768020096703
1491.0,0.015517693597737248
1490.0,0.015337693809893471
1489.0,0.015292705517326866
1488.0,0.015337693809893471
1487.0,0.015337693809893471
1486.0,0.015427684378367834
1485.0,0.015652742414136167
1484.0,0.016013078034810446
1483.0,0.016418813294209356
1482.0,0.016915227262211507
1481.0,0.017547848615010242
1480.0,0.018181392829336396
1479.0,0.018634490921455527
1478.0,0.0190880622231564
1477.0,0.019632973815224997
1476.0,0.02022406727031445
1475.0,0.020542681902151694
1474.0,0.020861530453190058
1473.0,0.021545566634771474
1472.0,0.022367834754000393
1471.0,0.02300845469384938
1470.0,0.023604163388120325
1469.0,0.024476287039668643
1468.0,0.02558042614771394
1467.0,0.02696455931306696
1466.0,0.029002634427514717
1465.0,0.03193753992355086
1464.0,0.03503362516890207
1463.0,0.03753595394209874
1462.0,0.03957679292217042
1461.0,0.041627267521392675
1460.0,0.0437835307566099
1459.0,0.04628861957244457
1458.0,0.05012229596312534
1457.0,0.054728418492290265
1456.0,0.0575950591438934
1455.0,0.05863766428823891
1454.0,0.05918479134919874
1453.0,0.0595831353183347
1452.0,0.05963295401433477
1451.0,0.05933412752417122
1450.0,0.058936011780097886
1449.0,0.05858795962645047
1448.0,0.05824018618530458
1447.0,0.05784307153250956
1446.0,0.05749589383191922
1445.0,0.05724807957018618
1444.0,0.057000406633959555
1443.0,0.05665390164340933
1442.0,0.05625823416868636
1441.0,0.055764156206519866
1440.0,0.0549747987575373
1439.0,0.053842605077627725
1438.0,0.052027420754219955
1437.0,0.04948910701400333
1436.0,0.04643358574299339
1435.0,0.04344740808260106
1434.0,0.04072004986906119
1433.0,0.03791491948264003
1432.0,0.03489241415094413
1431.0,0.03175060589208267
1430.0,0.028770552723758724
1429.0,0.02613355016462182
1428.0,0.02406295751688936
1427.0,0.02255077261765881
1426.0,0.02140867317992523
1425.0,0.020542681902151694
1424.0,0.02013307743509718
1423.0,0.02013307743509718
1422.0,0.020497151212598652
1421.0,0.021545566634771474
1420.0,0.024154774532432866
1419.0,0.029095501846216454
1418.0,0.03555179208333925
1417.0,0.04301563225723992
1416.0,0.05207638016827354
1415.0,0.06333548699992453
1414.0,0.07711890879170658
1413.0,0.09339562827501968
1412.0,0.11097857790477517
1411.0,0.1267375405612734
1410.0,0.13780896894840278
1409.0,0.14315032127482774
1408.0,0.14260718907909875
1407.0,0.13673663634951905
1406.0,0.12679569072295926
1405.0,0.11537453674376552
1404.0,0.10479852522110678
1403.0,0.09625905937846135
1402.0,0.08948231448273347
1401.0,0.08365134772453975
1400.0,0.07800156869172903
1399.0,0.07262963696097646
1398.0,0.06823711151882228
1397.0,0.06474471821595262
1396.0,0.061580354206806964
1395.0,0.0582898510583536
1394.0,0.055172003656783764
1393.0,0.052468254304406825
1392.0,0.050171041064686284
1391.0,0.047982909952573705
1390.0,0.04599883231842972
1389.0,0.04421607108308856
1388.0,0.04272802000705722
1387.0,0.041483896576958834
1386.0,0.04072004986906119
1385.0,0.04043395336207234
1384.0,0.04057697805689475
1383.0,0.041101805289228244
1382.0,0.042057664554595586
1381.0,0.043495409683302455
1380.0,0.04541983725624266
1379.0,0.047691990337874746
1378.0,0.05012229596312534
1377.0,0.05266432405126009
1376.0,0.05551732784983132
1375.0,0.058737090681050264
1374.0,0.06203099704854709
1373.0,0.06459351024765114
1372.0,0.06620911585658007
1371.0,0.06681652082538614
1370.0,0.06646209802829528
1369.0,0.06494641076893504
1368.0,0.06218131530164395
1367.0,0.0583891978463662
1366.0,0.05394093961487645
1365.0,0.048954051864180226
1364.0,0.04339941178682327
1363.0,0.03753595394209874
1362.0,0.03226486821611996
1361.0,0.02826040911222183
1360.0,0.025304128090317013
1359.0,0.02300845469384938
1358.0,0.021135015652343103
1357.0,0.019678413991243593
1356.0,0.018679826740892747
1355.0,0.01800028587012159
1354.0,0.017728766960431575
1353.0,0.01781925440359733
1352.0,0.018271974638383703
1351.0,0.019133445417920836
1350.0,0.020406104151069693
1349.0,0.0221849739168134
1348.0,0.024430342106337877
1347.0,0.027056991894431892
1346.0,0.03002526987828502
1345.0,0.0332483359486222
1344.0,0.03644826642590382
1343.0,0.03929144831144349
1342.0,0.04167506835594681
1341.0,0.04339941178682327
1340.0,0.04397571771932274
1339.0,0.0431115453499229
1338.0,0.04076775094900409
1337.0,0.03744126420403626
1336.0,0.03362357691107709
1335.0,0.029653123769906697
1334.0,0.026041313893296225
1333.0,0.023054249440757957
1332.0,0.02081596632558158
1331.0,0.01940584422377989
1330.0,0.018770512579999288
1329.0,0.018815862601645694
1328.0,0.019451260640229506
1327.0,0.02058821736556471
1326.0,0.022093572362881675
1325.0,0.023925268380126097
1324.0,0.025995203102585407
1323.0,0.028214062120885508
1322.0,0.030490901403433135
1321.0,0.03282657704446046
1320.0,0.03522197797762394
1319.0,0.03763066432997886
1318.0,0.040005161671583744
1317.0,0.042392712939904875
1316.0,0.04484161307420642
1315.0,0.04740126547022694
1314.0,0.05012229596312534
1313.0,0.0531548860393769
1312.0,0.056456022846545606
1311.0,0.05983228596592505
1310.0,0.06328524178879635
1309.0,0.06696850489759454
1308.0,0.07068327324650436
1307.0,0.07432700607875953
1306.0,0.07784567476894111
1305.0,0.08144546944972642
1304.0,0.08533956941077814
1303.0,0.08980263003399913
1302.0,0.09490603167212863
1301.0,0.10100072911021085
1300.0,0.10812816955441629
1299.0,0.11605480496572018
1298.0,0.12453358413361437
1297.0,0.13353543402825974
1296.0,0.14284849731250704
1295.0,0.15211900255462485
1294.0,0.16127680996862814
1293.0,0.17037464664195068
1292.0,0.17947015147648027
1291.0,0.18822397839709626
1290.0,0.19661117501638659
1289.0,0.20474581741911724
1288.0,0.21268124337545258
1287.0,0.21989880853208832
1286.0,0.22635980673997413
1285.0,0.23225063265442003
1284.0,0.2377717157135255
1283.0,0.24260397120697563
1282.0,0.2467234298155816
1281.0,0.25041826513444065
1280.0,0.25375512827980184
1279.0,0.25656863485331627
1278.0,0.2590849235187176
1277.0,0.2619332852225307
1276.0,0.2654401784205238
1275.0,0.26970233790285025
1274.0,0.27506908580760214
1273.0,0.2823294969977379
1272.0,0.2915790998652872
1271.0,0.30268345826761656
1270.0,0.31515463835558766
1269.0,0.32910504647979
1268.0,0.34438141645877796
1267.0,0.36021478701317977
1266.0,0.37602748798300367
1265.0,0.3917949922956738
1264.0,0.4072682336060378
1263.0,0.42159002966876424
1262.0,0.43403418255333337
1261.0,0.44478459487392685
1260.0,0.4537041648785576
1259.0,0.4601714416221019
1258.0,0.46432619657425
1257.0,0.4673729987711088
1256.0,0.4703130462270835
1255.0,0.4732731326853643
1254.0,0.47664379334520723
1253.0,0.4812229310732252
1252.0,0.48758245139916
1251.0,0.49485002168009395
1250.0,0.5027938192960455
1249.0,0.5117313845045401
1248.0,0.5218665718994824
1247.0,0.5318004139273875
1246.0,0.5413621509743507
1245.0,0.5508302678347992
1244.0,0.5595632338942262
1243.0,0.5665502062384038
1242.0,0.5705707356182124
1241.0,0.5720272863917912
1240.0,0.5704091977766983
1239.0,0.5647928967592524
1238.0,0.5548630312866958
1237.0,0.5413621509743507
1236.0,0.524619406856639
1235.0,0.5045944368538067
1234.0,0.4820127969749217
1233.0,0.45867042233330624
1232.0,0.4353339357479107
1231.0,0.41240127027875517
1230.0,0.3901922306712977
1229.0,0.369470428573176
1228.0,0.3503731131594705
1227.0,0.33245366048848357
1226.0,0.31551370781126575
1225.0,0.29990229538694635
1224.0,0.28550259135019407
1223.0,0.2720522904552032
1222.0,0.25940048718884356
1221.0,0.24795155218056153
1220.0,0.23747147755300002
1219.0,0.2278984307229881
1218.0,0.21903497039168318
1217.0,0.21105427297625234
1216.0,0.20391157131933157
1215.0,0.19729467292564795
1214.0,0.1911815749078758
1213.0,0.18561920553006184
1212.0,0.180587688790675
1211.0,0.17587416608345108
1210.0,0.1714045436282976
1209.0,0.16729952903943257
1208.0,0.16348600110932865
1207.0,0.15983115075924403
1206.0,0.15633127702085625
1205.0,0.15298290206464582
1204.0,0.14990540561329913
1203.0,0.14684956355215717
1202.0,0.1438755557576996
1201.0,0.1409818561111058
1200.0,0.13816700234205515
1199.0,0.13537027545448765
1198.0,0.1325325121409484
1197.0,0.12983027886355947
1196.0,0.12720296001040166
1195.0,0.12459143992293642
1194.0,0.1219955297319748
1193.0,0.11947222180119477
1192.0,0.11713408027837091
1191.0,0.11492161585077598
1190.0,0.11288929687511629
1189.0,0.11109074073646874
1188.0,0.10969078310005154
1187.0,0.10857405715200596
1186.0,0.10784972209863586
1185.0,0.10757145305477
1184.0,0.10779405402422748
1183.0,0.10851829616048003
1182.0,0.10969078310005154
1181.0,0.11137127461477392
1180.0,0.11328372588352176
1179.0,0.11531789579397489
1178.0,0.11713408027837091
1177.0,0.11872949607064243
1176.0,0.11987267778337518
1175.0,0.12033079436794658
1174.0,0.12004441487725082
1173.0,0.11890078161098283
1172.0,0.11679296664760996
1171.0,0.1138478180292033
1170.0,0.11008231656379408
1169.0,0.1060718734573931
1168.0,0.10198826120249849
1167.0,0.09816040794877057
1166.0,0.09479797133768142
1165.0,0.0919441259012328
1164.0,0.08969583193143116
1163.0,0.08788427092114603
1162.0,0.08639805027084257
1161.0,0.08533956941077814
1160.0,0.08460016478773014
1159.0,0.08423093401631587
1158.0,0.08428366205400617
1157.0,0.08475850269380558
1156.0,0.08576265223225898
1155.0,0.08735289378168276
1154.0,0.08948231448273347
1153.0,0.09226626300234453
1152.0,0.09566320779750503
1151.0,0.09963287134352972
1150.0,0.10419084983086901
1149.0,0.10941133229451272
1148.0,0.11526126223036814
1147.0,0.12159311241900439
1146.0,0.12836869546244634
1145.0,0.13554825284181704
1144.0,0.14302956651750764
1143.0,0.15045774799498335
1142.0,0.15776531365276036
1141.0,0.16481693015095633
1140.0,0.17159792150840691
1139.0,0.1778319206319825
1138.0,0.18369240056806024
1137.0,0.18922998876563635
1136.0,0.1946350925335547
1135.0,0.19969542244380145
1134.0,0.20446755728984556
1133.0,0.2092927126723203
1132.0,0.21438547505317596
1131.0,0.21975471613464737
1130.0,0.22577509513108107
1129.0,0.2326956825467268
1128.0,0.24063437834407142
1127.0,0.24956875133979795
1126.0,0.259321574772545
1125.0,0.27010659603676235
1124.0,0.28166442109149337
1123.0,0.29319690296266177
1122.0,0.3042557248026767
1121.0,0.3145269802772408
1120.0,0.3234892897174464
1119.0,0.33031129194379183
1118.0,0.33432521900610657
1117.0,0.3359224098149254
1116.0,0.33507610656191833
1115.0,0.3318937620672686
1114.0,0.32725580169340085
1113.0,0.3225755622987525
1112.0,0.31921138849331765
1111.0,0.31794522292619276
1110.0,0.31984585826562695
1109.0,0.325414397697086
1108.0,0.3347005005001029
1107.0,0.3470771124320582
1106.0,0.3617104645857432
1105.0,0.3785121354193697
1104.0,0.39718065756730025
1103.0,0.41680122603137737
1102.0,0.43663759051339257
1101.0,0.45680141436235333
1100.0,0.47638358094562916
1099.0,0.4941719661451638
1098.0,0.5094796906366512
1097.0,0.5225893120927485
1096.0,0.5332806283184013
1095.0,0.5403060235220294
1094.0,0.5436339668709569
1093.0,0.5439377755450485
1092.0,0.5415132362017931
1091.0,0.5359577945611893
1090.0,0.5275361033930106
1089.0,0.5174122304732325
1088.0,0.5059846252428564
1087.0,0.49308927444848183
1086.0,0.47886191629596375
1085.0,0.4640732586044307
1084.0,0.4487940562520938
1083.0,0.4323855572691555
1082.0,0.41487781369318455
1081.0,0.3968556273798176
1080.0,0.37840832414078207
1079.0,0.3595185630295781
1078.0,0.3404640928457836
1077.0,0.3221194184884095
1076.0,0.3046934775681973
1075.0,0.288192770958809
1074.0,0.27262143054851107
1073.0,0.2584544832237907
1072.0,0.24565166428898122
1071.0,0.23395913961861092
1070.0,0.22337144657984997
1069.0,0.21402987486799052
1068.0,0.20579088365350362
1067.0,0.19832194096410682
1066.0,0.19145144875959463
1065.0,0.18521985425419518
1064.0,0.17973284283903546
1063.0,0.17476867680009978
1062.0,0.1705032502798176
1061.0,0.16710805524020933
1060.0,0.16475346000368907
1059.0,0.16323295260579473
1058.0,0.16253782851400533
1057.0,0.16272729749769965
1056.0,0.16380251922107458
1055.0,0.16557929631846746
1054.0,0.16813022571949832
1053.0,0.1713401034646802
1052.0,0.1752235375244544
1051.0,0.17933886535640453
1050.0,0.1835598320438614
1049.0,0.1878891587969005
1048.0,0.19226207798589923
1047.0,0.1962698290254561
1046.0,0.19983300979863605
1045.0,0.20280173016104097
1044.0,0.20509389348319607
1043.0,0.20648899420714217
1042.0,0.20683847075444928
1041.0,0.20648899420714217
1040.0,0.20551195334083028
1039.0,0.20391157131933157
1038.0,0.20169471797802352
1037.0,0.19921420967223735
1036.0,0.19661117501638659
1035.0,0.1940236492824372
1034.0,0.191383964573008
1033.0,0.18902860017779255
1032.0,0.1867526991023949
1031.0,0.18455508375564977
1030.0,0.18243463044021913
1029.0,0.180587688790675
1028.0,0.17920761891179637
1027.0,0.1784864715952268
1026.0,0.1791420105603001
1025.0,0.18223636771963214
1024.0,0.18902860017779255
1023.0,0.20045269287438483
1022.0,0.21731243176503368
1021.0,0.23957751657678794
1020.0,0.2657603955645449
1019.0,0.29242982390206373
1018.0,0.3144373888417702
1017.0,0.32651830292665274
1016.0,0.324863495532006
1015.0,0.3093609882840327
1014.0,0.2846653162076871
1013.0,0.25703932978584754
1012.0,0.23150989482875484
1011.0,0.2101373699536182
1010.0,0.19314197048118253
1009.0,0.17979854051435984
1008.0,0.16915480769138846
1007.0,0.16045910703103106
1006.0,0.15335367142288248
1005.0,0.1475810070629986
1004.0,0.14290884532648618
1003.0,0.13894375542312654
1002.0,0.13531096586314884
1001.0,0.1320613491092153
1000.0,0.12918657608440243
999.0,0.12650501774383094
998.0,0.12412880927263426
997.0,0.12205304837081177
996.0,0.1202162199095842
995.0,0.11850122038501709
994.0,0.11690664142431006
993.0,0.11554450392951199
992.0,0.11446916681190777
991.0,0.11356568037106163
990.0,0.11277666863747693
989.0,0.11215773489264302
988.0,0.1117081546434846
987.0,0.11125903931710734
986.0,0.11086644403327606
985.0,0.1106422631110684
984.0,0.11058623595729111
983.0,0.1106422631110684
982.0,0.11075433910702048
981.0,0.11092250734993603
980.0,0.11109074073646874
979.0,0.11120293254331926
978.0,0.11131515334030118
977.0,0.11142740314240007
976.0,0.11159583226295333
975.0,0.11165198982195101
974.0,0.11142740314240007
973.0,0.11103465569966264
972.0,0.11047420332880886
971.0,0.10963487855187593
970.0,0.10857405715200596
969.0,0.10723776538418317
968.0,0.10573933555301185
967.0,0.10413564875270076
966.0,0.10237290870955862
965.0,0.10072681268239614
964.0,0.09903237608087578
963.0,0.09734452478207412
962.0,0.09571734235437201
961.0,0.09425807260839858
960.0,0.09291125492570451
959.0,0.09167586072382083
958.0,0.0905509530187334
957.0,0.08953568400438638
956.0,0.08862929288386212
955.0,0.08783110394037297
954.0,0.0870343792958963
953.0,0.0862920860195171
952.0,0.08555105930144569
951.0,0.08481129482684358
950.0,0.08407278830288423
949.0,0.0833881548906541
948.0,0.08286224724355584
947.0,0.0823369756726251
946.0,0.08181233864107451
945.0,0.08134070657817682
944.0,0.08102656950704579
943.0,0.08071265949561734
942.0,0.08045124103115198
941.0,0.08024221949810584
940.0,0.07992887570247587
939.0,0.07956359344924135
938.0,0.07914650387874067
937.0,0.07878187880504961
936.0,0.07852161962430992
935.0,0.07820951434181311
934.0,0.07789763319239285
933.0,0.07753405470158659
932.0,0.0772226580712021
931.0,0.07680780957933253
930.0,0.0763933569825408
929.0,0.0760310351245288
928.0,0.0756173227980268
927.0,0.07515236702446293
926.0,0.07463633264589853
925.0,0.07417242537525759
924.0,0.07381195089279391
923.0,0.07340034609297241
922.0,0.07304051161972436
921.0,0.07273231918911849
920.0,0.07247565912497134
919.0,0.07237303755504598
918.0,0.07232173586200852
917.0,0.07247565912497134
916.0,0.07288638806623937
915.0,0.07350321072677968
914.0,0.07443009045662374
913.0,0.07566901529132153
912.0,0.07727454200674
911.0,0.07919861817434581
910.0,0.08144546944972642
909.0,0.08407278830288423
908.0,0.08714052483764512
907.0,0.09049745859458458
906.0,0.09404230090757282
905.0,0.09761631556752848
904.0,0.1012199867101744
903.0,0.10457745396059215
902.0,0.10762709260156367
901.0,0.11036219959333216
900.0,0.11266406960083297
899.0,0.11446916681190777
898.0,0.11577123036739612
897.0,0.11667932161702477
896.0,0.11719095860756013
895.0,0.11741854644554883
894.0,0.1174754620451195
893.0,0.11758931562603192
892.0,0.11787408022996826
891.0,0.11821604440661537
890.0,0.11867241589944855
889.0,0.11947222180119477
888.0,0.1207320431753871
887.0,0.12239832027072817
886.0,0.1244757360506914
885.0,0.12702836926155658
884.0,0.1302990263261221
883.0,0.13430394008392943
882.0,0.13912320359670227
881.0,0.14496568332411575
880.0,0.1517492853229574
879.0,0.15914144595812063
878.0,0.16685288808721488
877.0,0.17483362774345035
876.0,0.18256685588861554
875.0,0.18936429972446267
874.0,0.19429529556613567
873.0,0.19647460442346754
872.0,0.19551981089400727
871.0,0.1911815749078758
870.0,0.1840903491132253
869.0,0.17528855653526554
868.0,0.16589734428720626
867.0,0.1567049172634929
866.0,0.14813039927023364
865.0,0.14068153490288382
864.0,0.13442229258007088
863.0,0.12918657608440243
862.0,0.124996646399959
861.0,0.12182301950849372
860.0,0.11964380058076385
859.0,0.11815903167507247
858.0,0.1170772093974013
857.0,0.11645212073195621
856.0,0.11605480496572018
855.0,0.11582793047608719
854.0,0.11560117444331386
853.0,0.11543118508166672
852.0,0.11526126223036814
851.0,0.11503480179926728
850.0,0.114865033936566
849.0,0.1148084593931522
848.0,0.114865033936566
847.0,0.11492161585077598
846.0,0.11492161585077598
845.0,0.11509140583739286
844.0,0.11526126223036814
843.0,0.11531789579397489
842.0,0.11520463605101905
841.0,0.1149782051377024
840.0,0.11469533241103202
839.0,0.1141301390960936
838.0,0.11322735694556196
837.0,0.11210151190312767
836.0,0.11086644403327606
835.0,0.10952309103982927
834.0,0.10807246577932506
833.0,0.10673771411200872
832.0,0.10540705207704448
831.0,0.10402526764093545
830.0,0.10275789719463457
829.0,0.10160395406999112
828.0,0.10061729446673495
827.0,0.09952362861074304
826.0,0.09837823590664274
825.0,0.09739886933346864
824.0,0.09674718310604158
823.0,0.09620485725896466
822.0,0.09582563171583658
821.0,0.09560907998763835
820.0,0.09566320779750503
819.0,0.09566320779750503
818.0,0.09560907998763835
817.0,0.09550084460218011
816.0,0.09544673702322726
815.0,0.09539263618455207
814.0,0.09539263618455207
813.0,0.09544673702322726
812.0,0.0955549589230904
811.0,0.0955549589230904
810.0,0.09544673702322726
809.0,0.09533854208447545
808.0,0.09528445472131919
807.0,0.09512223303659528
806.0,0.09479797133768142
805.0,0.09447395156495153
804.0,0.09404230090757282
803.0,0.09334178232840018
802.0,0.09242742120144909
801.0,0.09167586072382083
800.0,0.09156860103399356
799.0,0.09269615116603047
798.0,0.09539263618455207
797.0,0.09974214156222239
796.0,0.10507502264045665
795.0,0.11019424813191447
794.0,0.11379137583250243
793.0,0.11520463605101905
792.0,0.11429961987167014
791.0,0.11131515334030118
790.0,0.10707101764479421
789.0,0.10237290870955862
788.0,0.09777947172068524
787.0,0.0935033402006471
786.0,0.08953568400438638
785.0,0.08608023504853413
784.0,0.08312512146131668
783.0,0.08055578953476306
782.0,0.07826151631540124
781.0,0.07628980560343712
780.0,0.07463633264589853
779.0,0.07309189829456408
778.0,0.0716553647351379
777.0,0.07032568205141221
776.0,0.0691018855898955
775.0,0.06788152797087754
774.0,0.0666645899223488
773.0,0.0655520510510299
772.0,0.06444235490698613
771.0,0.06323500239005853
770.0,0.06198090252378963
769.0,0.06068046892176193
768.0,0.05948351506743288
767.0,0.058190526991161784
766.0,0.05690137699451481
765.0,0.05566540802921782
764.0,0.05448217792216048
763.0,0.05325306496641513
762.0,0.052027420754219955
761.0,0.050805225762017736
760.0,0.04968383607539972
759.0,0.04851676924770687
758.0,0.04740126547022694
757.0,0.04633693625290869
756.0,0.04527520902093718
755.0,0.04402377775167454
754.0,0.04253638427006878
753.0,0.041101805289228244
752.0,0.039909932095080425
751.0,0.03886378261277468
750.0,0.03800971255993524
749.0,0.03739392707587297
748.0,0.0371573187987575
747.0,0.03744126420403626
746.0,0.03857890593355173
745.0,0.041006334969674096
744.0,0.0451788169482068
743.0,0.05148923116234294
742.0,0.06058059667068294
741.0,0.0732460948102629
740.0,0.08964244272712252
739.0,0.10941133229451272
738.0,0.13182595914036166
737.0,0.15645578805436489
736.0,0.18256685588861554
735.0,0.20943337485392344
734.0,0.23694655970038525
733.0,0.26600071346161314
732.0,0.2974833025618495
731.0,0.33198702835816785
730.0,0.36997914888659
729.0,0.41273815030746586
728.0,0.46029676105217443
727.0,0.5096200799968211
726.0,0.5545514857339502
725.0,0.5872035712834567
724.0,0.5989442742281561
723.0,0.5838589688316711
722.0,0.5446982283429236
721.0,0.49052864789745154
720.0,0.4336803784751886
719.0,0.3828947694976219
718.0,0.34141628459293716
717.0,0.30856484785593796
716.0,0.28249592523579814
715.0,0.2618539112879401
714.0,0.24618721643529784
713.0,0.23477863369501928
712.0,0.22657927670938993
711.0,0.2199708726626617
710.0,0.2141009716156166
709.0,0.20844969497266996
708.0,0.20307892466983124
707.0,0.1977052886025361
706.0,0.19239733008350535
705.0,0.18742084459095332
704.0,0.18256685588861554
703.0,0.1775703762206431
702.0,0.17204947169736973
701.0,0.16621562534352097
700.0,0.16020781555467067
699.0,0.15403423845451636
698.0,0.1480693213597324
697.0,0.14284849731250704
696.0,0.1388241644869712
695.0,0.13578566953867033
694.0,0.13329924395750092
693.0,0.1311792938024825
692.0,0.12918657608440243
691.0,0.12720296001040166
690.0,0.12522836281570182
689.0,0.12349349573411894
688.0,0.12222565000860186
687.0,0.12124847982699793
686.0,0.12061736282565727
685.0,0.12044539906102569
684.0,0.1207320431753871
683.0,0.12107626603243293
682.0,0.12136332697348307
681.0,0.12142076193778073
680.0,0.12124847982699793
679.0,0.12056003400478299
678.0,0.11924355548978971
677.0,0.11764625361128611
676.0,0.11611154211151953
675.0,0.11469533241103202
674.0,0.11339648571328764
673.0,0.11227020271196975
672.0,0.11120293254331926
671.0,0.1098585399354226
670.0,0.10796107965870849
669.0,0.10646015643533868
668.0,0.10640466618011679
667.0,0.1071265931112344
666.0,0.10790539730951965
665.0,0.10779405402422748
664.0,0.10668218838388821
663.0,0.10501970907203151
662.0,0.10347378251044459
661.0,0.10253786198693682
660.0,0.10209812573177213
659.0,0.1017686154869033
658.0,0.10160395406999112
657.0,0.10193333935836524
656.0,0.10231793820358015
655.0,0.1022080180607754
654.0,0.10138450258381404
653.0,0.10039834085387778
652.0,0.09979678698310646
651.0,0.09919606518963042
650.0,0.09832376867362447
649.0,0.09729018703012282
648.0,0.096150661903319
647.0,0.09490603167212863
646.0,0.09366495819490939
645.0,0.09291125492570451
644.0,0.09264239186882706
643.0,0.09231997575758011
642.0,0.0919441259012328
641.0,0.09205147838772776
640.0,0.09285746899685954
639.0,0.09398837472858723
638.0,0.09528445472131919
637.0,0.0972358560759139
636.0,0.10072681268239614
635.0,0.10551778498990938
634.0,0.10991447328367476
633.0,0.1120452961911984
632.0,0.11097857790477517
631.0,0.10746019534136453
630.0,0.10319830233507843
629.0,0.09990609845660159
628.0,0.0978882765519955
627.0,0.09658441423091357
626.0,0.09550084460218011
625.0,0.09452793807529569
624.0,0.09361107884716913
623.0,0.09269615116603047
622.0,0.09183679994445204
621.0,0.09140776115243066
620.0,0.09146136782804049
619.0,0.0916222275676053
618.0,0.0917295005042762
617.0,0.0917831469106074
616.0,0.0919441259012328
615.0,0.0919977988274463
614.0,0.09210516458371698
613.0,0.09242742120144909
612.0,0.09264239186882706
611.0,0.0919977988274463
610.0,0.09065796163869155
609.0,0.08985603893548699
608.0,0.09049745859458458
607.0,0.09210516458371698
606.0,0.09366495819490939
605.0,0.09490603167212863
604.0,0.09587978652380036
603.0,0.09625905937846135
602.0,0.09587978652380036
601.0,0.09490603167212863
600.0,0.09382663635595145
599.0,0.09248115389337075
598.0,0.09097914578884403
597.0,0.09017663034908807
596.0,0.09023008526723086
595.0,0.08990945440593179
594.0,0.08804381092731295
593.0,0.08496970974083906
592.0,0.08238947425013277
591.0,0.08165507103772507
590.0,0.0830725338870073
589.0,0.0856568428805593
588.0,0.08793744441149753
587.0,0.08841629901892434
586.0,0.08735289378168276
585.0,0.08639805027084257
584.0,0.08666307406737683
583.0,0.08740600224789441
582.0,0.0877779434675845
581.0,0.0881502035005799
580.0,0.08820340956274775
579.0,0.0862920860195171
578.0,0.08280969148843575
577.0,0.0812359689720008
576.0,0.08370400543686918
575.0,0.08772478950118767
574.0,0.08958906008531176
573.0,0.08974922769985194
572.0,0.09060445403289452
571.0,0.09301884677114591
570.0,0.09696430321150284
569.0,0.10297804393963661
568.0,0.10924374808178183
567.0,0.11086644403327606
566.0,0.10573933555301185
565.0,0.0975619438013351
564.0,0.08969583193143116
563.0,0.08396738981143059
562.0,0.08223199755224364
561.0,0.08454739831152125
560.0,0.08878910686244668
559.0,0.09274991711867164
558.0,0.0955549589230904
557.0,0.09680145295702158
556.0,0.0964759355287379
555.0,0.09598811640261173
554.0,0.09739886933346864
553.0,0.10001543745060903
552.0,0.10089114180660053
551.0,0.0989778267519208
550.0,0.09691001300805646
549.0,0.09680145295702158
548.0,0.09739886933346864
547.0,0.09685572959046151
546.0,0.09560907998763835
545.0,0.09523037409340485
544.0,0.09566320779750503
543.0,0.09533854208447545
542.0,0.09361107884716913
541.0,0.09140776115243066
540.0,0.0900697402471693
539.0,0.08996287644694911
538.0,0.09023008526723086
537.0,0.0900163050601559
536.0,0.08964244272712252
535.0,0.09060445403289452
534.0,0.09361107884716913
533.0,0.09750757884139638
532.0,0.10072681268239614
531.0,0.10226297465457268
530.0,0.1017686154869033
529.0,0.09935981601739963
528.0,0.09560907998763835
527.0,0.09189045960744768
526.0,0.0892155652071629
525.0,0.08804381092731295
524.0,0.08889568219596411
523.0,0.09248115389337075
522.0,0.09794268919153337
521.0,0.10231793820358015
520.0,0.1033635694704158
519.0,0.10193333935836524
518.0,0.10083635852278117
517.0,0.1017686154869033
516.0,0.10369429253391926
515.0,0.10479852522110678
514.0,0.10391491457671487
513.0,0.10100072911021085
512.0,0.0964759355287379
511.0,0.09135416109288674
510.0,0.0872997918091396
509.0,0.08592141461088798
508.0,0.08740600224789441
507.0,0.09017663034908807
506.0,0.09215885741705532
505.0,0.09258863922541383
504.0,0.09280368972839836
503.0,0.09431203228814788
502.0,0.09625905937846135
501.0,0.09620485725896466
500.0,0.09291125492570451
499.0,0.0884695376928375
498.0,0.08608023504853413
497.0,0.08692825969074924
496.0,0.08990945440593179
495.0,0.09339562827501968
494.0,0.0964759355287379
493.0,0.09805153492691598
492.0,0.09734452478207412
491.0,0.09452793807529569
490.0,0.09119340059432579
489.0,0.08905559425002108
488.0,0.0884695376928375
487.0,0.08862929288386212
486.0,0.08857603462370545
485.0,0.08830984124613894
484.0,0.08804381092731295
483.0,0.0877779434675845
482.0,0.08740600224789441
481.0,0.0877779434675845
480.0,0.09017663034908807
479.0,0.09409623378338305
478.0,0.0964759355287379
477.0,0.09468993788391455
476.0,0.08969583193143116
475.0,0.08586848736910624
474.0,0.08666307406737683
473.0,0.09140776115243066
472.0,0.09680145295702158
471.0,0.09946901754724413
470.0,0.09745322068600859
469.0,0.0917831469106074
468.0,0.08602728844902896
467.0,0.08344078069888616
466.0,0.08454739831152125
465.0,0.08655704514060414
464.0,0.08719360733870762
463.0,0.0870343792958963
462.0,0.08751223866767632
461.0,0.08868255767596933
460.0,0.08964244272712252
459.0,0.08996287644694911
458.0,0.08964244272712252
457.0,0.08857603462370545
456.0,0.0872466963286771
455.0,0.08687520961044104
454.0,0.08751223866767632
453.0,0.08793744441149753
452.0,0.08783110394037297
451.0,0.08916223500731646
450.0,0.09312646527792956
