cm-1,A
4000.0,0.0135
3999.0,0.0135
3998.0,0.0135
3997.0,0.0134
3996.0,0.0135
3995.0,0.0135
3994.0,0.0136
3993.0,0.0137
3992.0,0.0137
3991.0,0.0137
3990.0,0.0137
3989.0,0.0137
3988.0,0.0137
3987.0,0.0137
3986.0,0.0137
3985.0,0.0137
3984.0,0.0137
3983.0,0.0136
3982.0,0.0136
3981.0,0.0137
3980.0,0.0137
3979.0,0.0137
3978.0,0.0137
3977.0,0.0137
3976.0,0.0137
3975.0,0.0137
3974.0,0.0138
3973.0,0.0138
3972.0,0.0138
3971.0,0.0138
3970.0,0.0138
3969.0,0.0138
3968.0,0.0137
3967.0,0.0137
3966.0,0.0136
3965.0,0.0136
3964.0,0.0136
3963.0,0.0136
3962.0,0.0137
3961.0,0.0138
3960.0,0.0139
3959.0,0.014
3958.0,0.014
3957.0,0.014
3956.0,0.0139
3955.0,0.0138
3954.0,0.0138
3953.0,0.0138
3952.0,0.0138
3951.0,0.0138
3950.0,0.0138
3949.0,0.0138
3948.0,0.0138
3947.0,0.0139
3946.0,0.0139
3945.0,0.014
3944.0,0.0141
3943.0,0.0141
3942.0,0.0142
3941.0,0.0143
3940.0,0.0143
3939.0,0.0141
3938.0,0.014
3937.0,0.0138
3936.0,0.0138
3935.0,0.0138
3934.0,0.0139
3933.0,0.0139
3932.0,0.0139
3931.0,0.014
3930.0,0.0141
3929.0,0.0142
3928.0,0.0142
3927.0,0.0142
3926.0,0.0141
3925.0,0.014
3924.0,0.014
3923.0,0.014
3922.0,0.014
3921.0,0.014
3920.0,0.014
3919.0,0.014
3918.0,0.014
3917.0,0.014
3916.0,0.014
3915.0,0.014
3914.0,0.014
3913.0,0.014
3912.0,0.014
3911.0,0.014
3910.0,0.014
3909.0,0.014
3908.0,0.014
3907.0,0.014
3906.0,0.0138
3905.0,0.0136
3904.0,0.0135
3903.0,0.0135
3902.0,0.0136
3901.0,0.0137
3900.0,0.0138
3899.0,0.0139
3898.0,0.0139
3897.0,0.0139
3896.0,0.0138
3895.0,0.0137
3894.0,0.0137
3893.0,0.0137
3892.0,0.0138
3891.0,0.0139
3890.0,0.0139
3889.0,0.0139
3888.0,0.014
3887.0,0.0139
3886.0,0.0137
3885.0,0.0138
3884.0,0.014
3883.0,0.0143
3882.0,0.0145
3881.0,0.0145
3880.0,0.0145
3879.0,0.0144
3878.0,0.0144
3877.0,0.0145
3876.0,0.0145
3875.0,0.0143
3874.0,0.0141
3873.0,0.0141
3872.0,0.0142
3871.0,0.0142
3870.0,0.0141
3869.0,0.014
3868.0,0.0142
3867.0,0.0143
3866.0,0.0144
3865.0,0.0142
3864.0,0.0142
3863.0,0.0143
3862.0,0.0144
3861.0,0.0144
3860.0,0.0144
3859.0,0.0142
3858.0,0.0139
3857.0,0.0137
3856.0,0.0136
3855.0,0.0135
3854.0,0.0136
3853.0,0.0139
3852.0,0.0141
3851.0,0.0143
3850.0,0.0144
3849.0,0.0144
3848.0,0.0144
3847.0,0.0144
3846.0,0.0144
3845.0,0.0144
3844.0,0.0144
3843.0,0.0144
3842.0,0.0144
3841.0,0.0145
3840.0,0.0145
3839.0,0.0145
3838.0,0.0146
3837.0,0.0146
3836.0,0.0145
3835.0,0.0145
3834.0,0.0145
3833.0,0.0145
3832.0,0.0145
3831.0,0.0146
3830.0,0.0147
3829.0,0.0148
3828.0,0.0148
3827.0,0.0146
3826.0,0.0145
3825.0,0.0144
3824.0,0.0146
3823.0,0.0147
3822.0,0.0146
3821.0,0.0145
3820.0,0.0144
3819.0,0.0145
3818.0,0.0146
3817.0,0.0145
3816.0,0.0145
3815.0,0.0145
3814.0,0.0147
3813.0,0.0148
3812.0,0.0148
3811.0,0.0147
3810.0,0.0147
3809.0,0.0147
3808.0,0.0146
3807.0,0.0145
3806.0,0.0145
3805.0,0.0148
3804.0,0.0151
3803.0,0.0153
3802.0,0.0152
3801.0,0.0151
3800.0,0.015
3799.0,0.0151
3798.0,0.015
3797.0,0.0149
3796.0,0.0148
3795.0,0.0148
3794.0,0.0149
3793.0,0.0149
3792.0,0.0149
3791.0,0.0149
3790.0,0.0148
3789.0,0.0148
3788.0,0.0148
3787.0,0.0148
3786.0,0.0148
3785.0,0.0149
3784.0,0.0149
3783.0,0.015
3782.0,0.0151
3781.0,0.0151
3780.0,0.0151
3779.0,0.0151
3778.0,0.0151
3777.0,0.0151
3776.0,0.015
3775.0,0.0149
3774.0,0.0148
3773.0,0.0148
3772.0,0.0148
3771.0,0.0148
3770.0,0.0147
3769.0,0.0147
3768.0,0.0149
3767.0,0.015
3766.0,0.0151
3765.0,0.0152
3764.0,0.0152
3763.0,0.0153
3762.0,0.0154
3761.0,0.0154
3760.0,0.0154
3759.0,0.0154
3758.0,0.0153
3757.0,0.0151
3756.0,0.0149
3755.0,0.0149
3754.0,0.0148
3753.0,0.0145
3752.0,0.0142
3751.0,0.0142
3750.0,0.0142
3749.0,0.0141
3748.0,0.0141
3747.0,0.0143
3746.0,0.0145
3745.0,0.0144
3744.0,0.0143
3743.0,0.0142
3742.0,0.0143
3741.0,0.0143
3740.0,0.0143
3739.0,0.0142
3738.0,0.0141
3737.0,0.0139
3736.0,0.0137
3735.0,0.0137
3734.0,0.0138
3733.0,0.0137
3732.0,0.0135
3731.0,0.0133
3730.0,0.0132
3729.0,0.0133
3728.0,0.0133
3727.0,0.0134
3726.0,0.0135
3725.0,0.0138
3724.0,0.014
3723.0,0.0141
3722.0,0.0142
3721.0,0.0142
3720.0,0.0143
3719.0,0.0144
3718.0,0.0145
3717.0,0.0145
3716.0,0.0145
3715.0,0.0146
3714.0,0.0145
3713.0,0.0143
3712.0,0.014
3711.0,0.0139
3710.0,0.0139
3709.0,0.014
3708.0,0.014
3707.0,0.0141
3706.0,0.0141
3705.0,0.0143
3704.0,0.0145
3703.0,0.0146
3702.0,0.0147
3701.0,0.0146
3700.0,0.0145
3699.0,0.0145
3698.0,0.0145
3697.0,0.0144
3696.0,0.0144
3695.0,0.0145
3694.0,0.0145
3693.0,0.0146
3692.0,0.0147
3691.0,0.0148
3690.0,0.015
3689.0,0.015
3688.0,0.0149
3687.0,0.0148
3686.0,0.0149
3685.0,0.015
3684.0,0.0151
3683.0,0.0153
3682.0,0.0154
3681.0,0.0155
3680.0,0.0154
3679.0,0.0154
3678.0,0.0155
3677.0,0.0156
3676.0,0.0157
3675.0,0.0157
3674.0,0.0157
3673.0,0.0158
3672.0,0.0158
3671.0,0.0157
3670.0,0.0156
3669.0,0.0157
3668.0,0.0158
3667.0,0.0159
3666.0,0.016
3665.0,0.0161
3664.0,0.0162
3663.0,0.0163
3662.0,0.0163
3661.0,0.0163
3660.0,0.0163
3659.0,0.0163
3658.0,0.0164
3657.0,0.0164
3656.0,0.0164
3655.0,0.0165
3654.0,0.0166
3653.0,0.0167
3652.0,0.0168
3651.0,0.0167
3650.0,0.0168
3649.0,0.0171
3648.0,0.0174
3647.0,0.0174
3646.0,0.0173
3645.0,0.0172
3644.0,0.0171
3643.0,0.017
3642.0,0.017
3641.0,0.017
3640.0,0.017
3639.0,0.017
3638.0,0.0169
3637.0,0.0169
3636.0,0.0168
3635.0,0.0168
3634.0,0.0166
3633.0,0.0165
3632.0,0.0164
3631.0,0.0164
3630.0,0.0163
3629.0,0.0162
3628.0,0.0163
3627.0,0.0164
3626.0,0.0165
3625.0,0.0165
3624.0,0.0166
3623.0,0.0168
3622.0,0.017
3621.0,0.0172
3620.0,0.0173
3619.0,0.0173
3618.0,0.0173
3617.0,0.0174
3616.0,0.0175
3615.0,0.0176
3614.0,0.0175
3613.0,0.0173
3612.0,0.0171
3611.0,0.0169
3610.0,0.0168
3609.0,0.0168
3608.0,0.0168
3607.0,0.0169
3606.0,0.017
3605.0,0.017
3604.0,0.017
3603.0,0.017
3602.0,0.017
3601.0,0.017
3600.0,0.017
3599.0,0.017
3598.0,0.017
3597.0,0.017
3596.0,0.0169
3595.0,0.0169
3594.0,0.017
3593.0,0.017
3592.0,0.0171
3591.0,0.0172
3590.0,0.0173
3589.0,0.0173
3588.0,0.0174
3587.0,0.0176
3586.0,0.0176
3585.0,0.0177
3584.0,0.0177
3583.0,0.0177
3582.0,0.0178
3581.0,0.0179
3580.0,0.018
3579.0,0.0181
3578.0,0.0181
3577.0,0.0181
3576.0,0.018
3575.0,0.0179
3574.0,0.018
3573.0,0.0181
3572.0,0.0183
3571.0,0.0183
3570.0,0.0184
3569.0,0.0184
3568.0,0.0184
3567.0,0.0186
3566.0,0.0188
3565.0,0.019
3564.0,0.019
3563.0,0.019
3562.0,0.019
3561.0,0.019
3560.0,0.019
3559.0,0.019
3558.0,0.019
3557.0,0.019
3556.0,0.019
3555.0,0.019
3554.0,0.019
3553.0,0.019
3552.0,0.0191
3551.0,0.0191
3550.0,0.0191
3549.0,0.0191
3548.0,0.0191
3547.0,0.0192
3546.0,0.0193
3545.0,0.0194
3544.0,0.0194
3543.0,0.0194
3542.0,0.0194
3541.0,0.0194
3540.0,0.0194
3539.0,0.0193
3538.0,0.0192
3537.0,0.0191
3536.0,0.019
3535.0,0.019
3534.0,0.0191
3533.0,0.0193
3532.0,0.0194
3531.0,0.0194
3530.0,0.0194
3529.0,0.0194
3528.0,0.0194
3527.0,0.0194
3526.0,0.0194
3525.0,0.0193
3524.0,0.0193
3523.0,0.0192
3522.0,0.0192
3521.0,0.0192
3520.0,0.0192
3519.0,0.0191
3518.0,0.0191
3517.0,0.019
3516.0,0.019
3515.0,0.0191
3514.0,0.0192
3513.0,0.0192
3512.0,0.0192
3511.0,0.0191
3510.0,0.019
3509.0,0.019
3508.0,0.019
3507.0,0.0191
3506.0,0.0192
3505.0,0.0192
3504.0,0.0191
3503.0,0.019
3502.0,0.019
3501.0,0.019
3500.0,0.019
3499.0,0.019
3498.0,0.0189
3497.0,0.0188
3496.0,0.0189
3495.0,0.0189
3494.0,0.019
3493.0,0.019
3492.0,0.019
3491.0,0.019
3490.0,0.019
3489.0,0.019
3488.0,0.019
3487.0,0.0189
3486.0,0.0189
3485.0,0.019
3484.0,0.019
3483.0,0.019
3482.0,0.019
3481.0,0.019
3480.0,0.0191
3479.0,0.0191
3478.0,0.0191
3477.0,0.0192
3476.0,0.0192
3475.0,0.0193
3474.0,0.0193
3473.0,0.0193
3472.0,0.0192
3471.0,0.0192
3470.0,0.0192
3469.0,0.0192
3468.0,0.0194
3467.0,0.0195
3466.0,0.0196
3465.0,0.0197
3464.0,0.0197
3463.0,0.0197
3462.0,0.0197
3461.0,0.0198
3460.0,0.0198
3459.0,0.0199
3458.0,0.0199
3457.0,0.0199
3456.0,0.02
3455.0,0.02
3454.0,0.02
3453.0,0.0201
3452.0,0.0202
3451.0,0.0203
3450.0,0.0204
3449.0,0.0206
3448.0,0.0208
3447.0,0.021
3446.0,0.0211
3445.0,0.0212
3444.0,0.0212
3443.0,0.0213
3442.0,0.0213
3441.0,0.0213
3440.0,0.0214
3439.0,0.0215
3438.0,0.0215
3437.0,0.0216
3436.0,0.0216
3435.0,0.0216
3434.0,0.0217
3433.0,0.0217
3432.0,0.0217
3431.0,0.0218
3430.0,0.0219
3429.0,0.022
3428.0,0.022
3427.0,0.022
3426.0,0.0219
3425.0,0.0218
3424.0,0.0217
3423.0,0.0216
3422.0,0.0215
3421.0,0.0214
3420.0,0.0212
3419.0,0.0211
3418.0,0.0209
3417.0,0.0209
3416.0,0.0209
3415.0,0.0208
3414.0,0.0207
3413.0,0.0205
3412.0,0.0204
3411.0,0.0202
3410.0,0.0201
3409.0,0.0201
3408.0,0.0201
3407.0,0.0201
3406.0,0.0201
3405.0,0.0201
3404.0,0.02
3403.0,0.0198
3402.0,0.0197
3401.0,0.0196
3400.0,0.0195
3399.0,0.0195
3398.0,0.0196
3397.0,0.0197
3396.0,0.0197
3395.0,0.0198
3394.0,0.0199
3393.0,0.0199
3392.0,0.0199
3391.0,0.0198
3390.0,0.0196
3389.0,0.0195
3388.0,0.0194
3387.0,0.0195
3386.0,0.0196
3385.0,0.0196
3384.0,0.0195
3383.0,0.0194
3382.0,0.0193
3381.0,0.0193
3380.0,0.0192
3379.0,0.0192
3378.0,0.0192
3377.0,0.0192
3376.0,0.0193
3375.0,0.0194
3374.0,0.0194
3373.0,0.0193
3372.0,0.0192
3371.0,0.0191
3370.0,0.019
3369.0,0.019
3368.0,0.0191
3367.0,0.0191
3366.0,0.0192
3365.0,0.0192
3364.0,0.0192
3363.0,0.0192
3362.0,0.0192
3361.0,0.0192
3360.0,0.0192
3359.0,0.0192
3358.0,0.0192
3357.0,0.0192
3356.0,0.0192
3355.0,0.0192
3354.0,0.0191
3353.0,0.019
3352.0,0.0189
3351.0,0.0188
3350.0,0.0188
3349.0,0.0188
3348.0,0.0188
3347.0,0.0189
3346.0,0.019
3345.0,0.0192
3344.0,0.0194
3343.0,0.0194
3342.0,0.0193
3341.0,0.0192
3340.0,0.0191
3339.0,0.0191
3338.0,0.0192
3337.0,0.0194
3336.0,0.0195
3335.0,0.0195
3334.0,0.0194
3333.0,0.0194
3332.0,0.0194
3331.0,0.0195
3330.0,0.0195
3329.0,0.0194
3328.0,0.0192
3327.0,0.0191
3326.0,0.0191
3325.0,0.0191
3324.0,0.019
3323.0,0.019
3322.0,0.019
3321.0,0.0189
3320.0,0.0189
3319.0,0.0189
3318.0,0.019
3317.0,0.019
3316.0,0.0189
3315.0,0.0189
3314.0,0.0189
3313.0,0.019
3312.0,0.019
3311.0,0.0191
3310.0,0.0191
3309.0,0.019
3308.0,0.019
3307.0,0.0189
3306.0,0.0189
3305.0,0.0189
3304.0,0.019
3303.0,0.019
3302.0,0.019
3301.0,0.019
3300.0,0.0189
3299.0,0.0189
3298.0,0.0189
3297.0,0.0188
3296.0,0.0187
3295.0,0.0185
3294.0,0.0185
3293.0,0.0185
3292.0,0.0186
3291.0,0.0186
3290.0,0.0187
3289.0,0.0187
3288.0,0.0186
3287.0,0.0185
3286.0,0.0184
3285.0,0.0184
3284.0,0.0184
3283.0,0.0185
3282.0,0.0186
3281.0,0.0187
3280.0,0.0187
3279.0,0.0188
3278.0,0.0188
3277.0,0.0188
3276.0,0.0187
3275.0,0.0187
3274.0,0.0186
3273.0,0.0186
3272.0,0.0185
3271.0,0.0185
3270.0,0.0185
3269.0,0.0185
3268.0,0.0185
3267.0,0.0184
3266.0,0.0184
3265.0,0.0183
3264.0,0.0182
3263.0,0.0182
3262.0,0.0182
3261.0,0.0182
3260.0,0.0183
3259.0,0.0184
3258.0,0.0184
3257.0,0.0185
3256.0,0.0185
3255.0,0.0184
3254.0,0.0183
3253.0,0.0183
3252.0,0.0183
3251.0,0.0183
3250.0,0.0183
3249.0,0.0183
3248.0,0.0183
3247.0,0.0183
3246.0,0.0183
3245.0,0.0183
3244.0,0.0183
3243.0,0.0182
3242.0,0.0182
3241.0,0.0181
3240.0,0.0181
3239.0,0.0181
3238.0,0.0181
3237.0,0.0182
3236.0,0.0182
3235.0,0.0182
3234.0,0.0182
3233.0,0.0181
3232.0,0.018
3231.0,0.018
3230.0,0.0179
3229.0,0.0179
3228.0,0.0179
3227.0,0.0178
3226.0,0.0178
3225.0,0.0179
3224.0,0.018
3223.0,0.018
3222.0,0.0181
3221.0,0.0181
3220.0,0.018
3219.0,0.018
3218.0,0.018
3217.0,0.018
3216.0,0.0181
3215.0,0.0181
3214.0,0.0182
3213.0,0.0182
3212.0,0.0181
3211.0,0.0181
3210.0,0.018
3209.0,0.0179
3208.0,0.0179
3207.0,0.0179
3206.0,0.0179
3205.0,0.0179
3204.0,0.0178
3203.0,0.0177
3202.0,0.0176
3201.0,0.0175
3200.0,0.0175
3199.0,0.0176
3198.0,0.0177
3197.0,0.0178
3196.0,0.0178
3195.0,0.0177
3194.0,0.0176
3193.0,0.0177
3192.0,0.0178
3191.0,0.0179
3190.0,0.018
3189.0,0.018
3188.0,0.018
3187.0,0.0179
3186.0,0.0177
3185.0,0.0176
3184.0,0.0175
3183.0,0.0175
3182.0,0.0174
3181.0,0.0174
3180.0,0.0175
3179.0,0.0176
3178.0,0.0177
3177.0,0.0177
3176.0,0.0177
3175.0,0.0175
3174.0,0.0174
3173.0,0.0174
3172.0,0.0173
3171.0,0.0172
3170.0,0.0172
3169.0,0.0172
3168.0,0.0171
3167.0,0.0171
3166.0,0.0171
3165.0,0.0171
3164.0,0.0171
3163.0,0.0172
3162.0,0.0174
3161.0,0.0175
3160.0,0.0175
3159.0,0.0175
3158.0,0.0175
3157.0,0.0175
3156.0,0.0175
3155.0,0.0176
3154.0,0.0176
3153.0,0.0175
3152.0,0.0174
3151.0,0.0173
3150.0,0.0172
3149.0,0.0172
3148.0,0.0173
3147.0,0.0174
3146.0,0.0174
3145.0,0.0174
3144.0,0.0174
3143.0,0.0174
3142.0,0.0174
3141.0,0.0174
3140.0,0.0173
3139.0,0.0173
3138.0,0.0174
3137.0,0.0175
3136.0,0.0176
3135.0,0.0177
3134.0,0.0178
3133.0,0.0179
3132.0,0.0179
3131.0,0.0179
3130.0,0.0179
3129.0,0.0179
3128.0,0.0179
3127.0,0.0179
3126.0,0.0179
3125.0,0.0178
3124.0,0.0178
3123.0,0.0178
3122.0,0.0178
3121.0,0.0178
3120.0,0.0178
3119.0,0.0178
3118.0,0.0178
3117.0,0.0179
3116.0,0.0179
3115.0,0.018
3114.0,0.0181
3113.0,0.0182
3112.0,0.0183
3111.0,0.0183
3110.0,0.0184
3109.0,0.0186
3108.0,0.0187
3107.0,0.0188
3106.0,0.0189
3105.0,0.0189
3104.0,0.0189
3103.0,0.0189
3102.0,0.0189
3101.0,0.0188
3100.0,0.0187
3099.0,0.0187
3098.0,0.0187
3097.0,0.0186
3096.0,0.0186
3095.0,0.0186
3094.0,0.0185
3093.0,0.0185
3092.0,0.0184
3091.0,0.0184
3090.0,0.0185
3089.0,0.0186
3088.0,0.0187
3087.0,0.0189
3086.0,0.0191
3085.0,0.0192
3084.0,0.0193
3083.0,0.0193
3082.0,0.0193
3081.0,0.0194
3080.0,0.0194
3079.0,0.0194
3078.0,0.0194
3077.0,0.0193
3076.0,0.0193
3075.0,0.0193
3074.0,0.0193
3073.0,0.0193
3072.0,0.0194
3071.0,0.0195
3070.0,0.0196
3069.0,0.0196
3068.0,0.0195
3067.0,0.0194
3066.0,0.0194
3065.0,0.0193
3064.0,0.0193
3063.0,0.0193
3062.0,0.0193
3061.0,0.0192
3060.0,0.0193
3059.0,0.0193
3058.0,0.0194
3057.0,0.0195
3056.0,0.0196
3055.0,0.0196
3054.0,0.0195
3053.0,0.0194
3052.0,0.0193
3051.0,0.0192
3050.0,0.019
3049.0,0.0188
3048.0,0.0185
3047.0,0.0182
3046.0,0.018
3045.0,0.0178
3044.0,0.0176
3043.0,0.0175
3042.0,0.0174
3041.0,0.0173
3040.0,0.0172
3039.0,0.0171
3038.0,0.017
3037.0,0.017
3036.0,0.017
3035.0,0.0171
3034.0,0.0172
3033.0,0.0172
3032.0,0.0172
3031.0,0.0172
3030.0,0.0172
3029.0,0.0173
3028.0,0.0174
3027.0,0.0174
3026.0,0.0175
3025.0,0.0176
3024.0,0.0177
3023.0,0.0178
3022.0,0.0179
3021.0,0.018
3020.0,0.0182
3019.0,0.0183
3018.0,0.0184
3017.0,0.0185
3016.0,0.0187
3015.0,0.0189
3014.0,0.0191
3013.0,0.0193
3012.0,0.0195
3011.0,0.0197
3010.0,0.0198
3009.0,0.02
3008.0,0.0202
3007.0,0.0204
3006.0,0.0206
3005.0,0.0207
3004.0,0.0208
3003.0,0.021
3002.0,0.0211
3001.0,0.0212
3000.0,0.0214
2999.0,0.0216
2998.0,0.0218
2997.0,0.0219
2996.0,0.022
2995.0,0.0221
2994.0,0.0222
2993.0,0.0225
2992.0,0.0227
2991.0,0.023
2990.0,0.0233
2989.0,0.0235
2988.0,0.0238
2987.0,0.024
2986.0,0.0243
2985.0,0.0245
2984.0,0.0248
2983.0,0.0251
2982.0,0.0255
2981.0,0.0259
2980.0,0.0263
2979.0,0.0268
2978.0,0.0272
2977.0,0.0277
2976.0,0.0282
2975.0,0.0286
2974.0,0.0291
2973.0,0.0294
2972.0,0.0297
2971.0,0.03
2970.0,0.0302
2969.0,0.0304
2968.0,0.0307
2967.0,0.031
2966.0,0.0313
2965.0,0.0316
2964.0,0.0317
2963.0,0.0317
2962.0,0.0317
2961.0,0.0316
2960.0,0.0316
2959.0,0.0314
2958.0,0.0313
2957.0,0.031
2956.0,0.0307
2955.0,0.0303
2954.0,0.0299
2953.0,0.0294
2952.0,0.029
2951.0,0.0285
2950.0,0.028
2949.0,0.0276
2948.0,0.0272
2947.0,0.0268
2946.0,0.0264
2945.0,0.026
2944.0,0.0255
2943.0,0.0251
2942.0,0.0247
2941.0,0.0243
2940.0,0.024
2939.0,0.0237
2938.0,0.0234
2937.0,0.0232
2936.0,0.023
2935.0,0.0229
2934.0,0.0228
2933.0,0.0226
2932.0,0.0226
2931.0,0.0225
2930.0,0.0225
2929.0,0.0224
2928.0,0.0224
2927.0,0.0224
2926.0,0.0223
2925.0,0.0223
2924.0,0.0224
2923.0,0.0224
2922.0,0.0224
2921.0,0.0224
2920.0,0.0224
2919.0,0.0223
2918.0,0.0223
2917.0,0.0224
2916.0,0.0226
2915.0,0.0227
2914.0,0.0228
2913.0,0.0229
2912.0,0.023
2911.0,0.0231
2910.0,0.0232
2909.0,0.0232
2908.0,0.0232
2907.0,0.0232
2906.0,0.0232
2905.0,0.0231
2904.0,0.0229
2903.0,0.0228
2902.0,0.0226
2901.0,0.0225
2900.0,0.0224
2899.0,0.0223
2898.0,0.0222
2897.0,0.0222
2896.0,0.0221
2895.0,0.0221
2894.0,0.0221
2893.0,0.0221
2892.0,0.0221
2891.0,0.0221
2890.0,0.0221
2889.0,0.022
2888.0,0.022
2887.0,0.0219
2886.0,0.0219
2885.0,0.0218
2884.0,0.0216
2883.0,0.0215
2882.0,0.0214
2881.0,0.0213
2880.0,0.0212
2879.0,0.0212
2878.0,0.0211
2877.0,0.0209
2876.0,0.0208
2875.0,0.0207
2874.0,0.0206
2873.0,0.0206
2872.0,0.0206
2871.0,0.0206
2870.0,0.0206
2869.0,0.0205
2868.0,0.0204
2867.0,0.0204
2866.0,0.0203
2865.0,0.0203
2864.0,0.0203
2863.0,0.0203
2862.0,0.0203
2861.0,0.0204
2860.0,0.0204
2859.0,0.0204
2858.0,0.0204
2857.0,0.0204
2856.0,0.0203
2855.0,0.0202
2854.0,0.0201
2853.0,0.02
2852.0,0.0199
2851.0,0.0197
2850.0,0.0195
2849.0,0.0193
2848.0,0.0192
2847.0,0.019
2846.0,0.0189
2845.0,0.0188
2844.0,0.0186
2843.0,0.0185
2842.0,0.0183
2841.0,0.0182
2840.0,0.0181
2839.0,0.0181
2838.0,0.018
2837.0,0.018
2836.0,0.0179
2835.0,0.0179
2834.0,0.0178
2833.0,0.0177
2832.0,0.0176
2831.0,0.0175
2830.0,0.0175
2829.0,0.0174
2828.0,0.0174
2827.0,0.0174
2826.0,0.0174
2825.0,0.0175
2824.0,0.0175
2823.0,0.0174
2822.0,0.0174
2821.0,0.0173
2820.0,0.0172
2819.0,0.0172
2818.0,0.0172
2817.0,0.0172
2816.0,0.0172
2815.0,0.0172
2814.0,0.0172
2813.0,0.0172
2812.0,0.0171
2811.0,0.0171
2810.0,0.0171
2809.0,0.0172
2808.0,0.0172
2807.0,0.0173
2806.0,0.0173
2805.0,0.0173
2804.0,0.0173
2803.0,0.0172
2802.0,0.0171
2801.0,0.0171
2800.0,0.017
2799.0,0.017
2798.0,0.0169
2797.0,0.0169
2796.0,0.0169
2795.0,0.0169
2794.0,0.0169
2793.0,0.0169
2792.0,0.0168
2791.0,0.0167
2790.0,0.0167
2789.0,0.0167
2788.0,0.0167
2787.0,0.0167
2786.0,0.0167
2785.0,0.0167
2784.0,0.0167
2783.0,0.0166
2782.0,0.0166
2781.0,0.0165
2780.0,0.0165
2779.0,0.0165
2778.0,0.0165
2777.0,0.0165
2776.0,0.0165
2775.0,0.0165
2774.0,0.0165
2773.0,0.0164
2772.0,0.0163
2771.0,0.0162
2770.0,0.0162
2769.0,0.0162
2768.0,0.0163
2767.0,0.0163
2766.0,0.0163
2765.0,0.0163
2764.0,0.0163
2763.0,0.0163
2762.0,0.0163
2761.0,0.0163
2760.0,0.0163
2759.0,0.0163
2758.0,0.0163
2757.0,0.0162
2756.0,0.0162
2755.0,0.0163
2754.0,0.0162
2753.0,0.0162
2752.0,0.0162
2751.0,0.0162
2750.0,0.0161
2749.0,0.0161
2748.0,0.016
2747.0,0.016
2746.0,0.016
2745.0,0.016
2744.0,0.016
2743.0,0.016
2742.0,0.016
2741.0,0.016
2740.0,0.0159
2739.0,0.016
2738.0,0.016
2737.0,0.0161
2736.0,0.0161
2735.0,0.0161
2734.0,0.0161
2733.0,0.016
2732.0,0.0159
2731.0,0.0158
2730.0,0.0157
2729.0,0.0157
2728.0,0.0157
2727.0,0.0157
2726.0,0.0158
2725.0,0.0157
2724.0,0.0157
2723.0,0.0157
2722.0,0.0157
2721.0,0.0157
2720.0,0.0156
2719.0,0.0156
2718.0,0.0155
2717.0,0.0155
2716.0,0.0155
2715.0,0.0155
2714.0,0.0155
2713.0,0.0155
2712.0,0.0155
2711.0,0.0155
2710.0,0.0155
2709.0,0.0155
2708.0,0.0155
2707.0,0.0155
2706.0,0.0155
2705.0,0.0155
2704.0,0.0154
2703.0,0.0154
2702.0,0.0153
2701.0,0.0153
2700.0,0.0153
2699.0,0.0153
2698.0,0.0153
2697.0,0.0153
2696.0,0.0153
2695.0,0.0153
2694.0,0.0153
2693.0,0.0153
2692.0,0.0153
2691.0,0.0153
2690.0,0.0153
2689.0,0.0153
2688.0,0.0153
2687.0,0.0153
2686.0,0.0152
2685.0,0.0152
2684.0,0.0152
2683.0,0.0152
2682.0,0.0152
2681.0,0.0152
2680.0,0.0153
2679.0,0.0153
2678.0,0.0153
2677.0,0.0153
2676.0,0.0153
2675.0,0.0153
2674.0,0.0152
2673.0,0.0152
2672.0,0.0152
2671.0,0.0152
2670.0,0.0151
2669.0,0.0151
2668.0,0.015
2667.0,0.0149
2666.0,0.0149
2665.0,0.0149
2664.0,0.0149
2663.0,0.015
2662.0,0.015
2661.0,0.015
2660.0,0.0149
2659.0,0.0149
2658.0,0.0149
2657.0,0.0149
2656.0,0.0149
2655.0,0.0149
2654.0,0.0149
2653.0,0.0148
2652.0,0.0148
2651.0,0.0147
2650.0,0.0148
2649.0,0.0148
2648.0,0.0149
2647.0,0.0149
2646.0,0.0149
2645.0,0.0149
2644.0,0.0148
2643.0,0.0148
2642.0,0.0148
2641.0,0.0148
2640.0,0.0148
2639.0,0.0148
2638.0,0.0149
2637.0,0.0149
2636.0,0.0148
2635.0,0.0148
2634.0,0.0148
2633.0,0.0149
2632.0,0.0149
2631.0,0.015
2630.0,0.015
2629.0,0.0151
2628.0,0.0151
2627.0,0.015
2626.0,0.0149
2625.0,0.0148
2624.0,0.0148
2623.0,0.0148
2622.0,0.0149
2621.0,0.0149
2620.0,0.0149
2619.0,0.0149
2618.0,0.0149
2617.0,0.0149
2616.0,0.0149
2615.0,0.0149
2614.0,0.0148
2613.0,0.0148
2612.0,0.0148
2611.0,0.0148
2610.0,0.0148
2609.0,0.0148
2608.0,0.0147
2607.0,0.0147
2606.0,0.0147
2605.0,0.0147
2604.0,0.0147
2603.0,0.0147
2602.0,0.0147
2601.0,0.0148
2600.0,0.0148
2599.0,0.0148
2598.0,0.0148
2597.0,0.0148
2596.0,0.0148
2595.0,0.0148
2594.0,0.0148
2593.0,0.0149
2592.0,0.0149
2591.0,0.0149
2590.0,0.015
2589.0,0.015
2588.0,0.015
2587.0,0.015
2586.0,0.015
2585.0,0.015
2584.0,0.015
2583.0,0.015
2582.0,0.015
2581.0,0.015
2580.0,0.015
2579.0,0.015
2578.0,0.0149
2577.0,0.0149
2576.0,0.0149
2575.0,0.0149
2574.0,0.0148
2573.0,0.0148
2572.0,0.0148
2571.0,0.0149
2570.0,0.0149
2569.0,0.0149
2568.0,0.0149
2567.0,0.0149
2566.0,0.0149
2565.0,0.0149
2564.0,0.0149
2563.0,0.0149
2562.0,0.0149
2561.0,0.0149
2560.0,0.0149
2559.0,0.0149
2558.0,0.0148
2557.0,0.0148
2556.0,0.0148
2555.0,0.0148
2554.0,0.0148
2553.0,0.0149
2552.0,0.0149
2551.0,0.0149
2550.0,0.0149
2549.0,0.0149
2548.0,0.0148
2547.0,0.0148
2546.0,0.0148
2545.0,0.0147
2544.0,0.0147
2543.0,0.0147
2542.0,0.0147
2541.0,0.0147
2540.0,0.0147
2539.0,0.0147
2538.0,0.0146
2537.0,0.0146
2536.0,0.0147
2535.0,0.0147
2534.0,0.0146
2533.0,0.0145
2532.0,0.0145
2531.0,0.0145
2530.0,0.0146
2529.0,0.0146
2528.0,0.0146
2527.0,0.0146
2526.0,0.0146
2525.0,0.0146
2524.0,0.0146
2523.0,0.0146
2522.0,0.0146
2521.0,0.0145
2520.0,0.0145
2519.0,0.0144
2518.0,0.0144
2517.0,0.0144
2516.0,0.0144
2515.0,0.0143
2514.0,0.0143
2513.0,0.0143
2512.0,0.0143
2511.0,0.0143
2510.0,0.0143
2509.0,0.0143
2508.0,0.0143
2507.0,0.0142
2506.0,0.0141
2505.0,0.0141
2504.0,0.0141
2503.0,0.0141
2502.0,0.0142
2501.0,0.0141
2500.0,0.0141
2499.0,0.014
2498.0,0.0139
2497.0,0.0139
2496.0,0.014
2495.0,0.014
2494.0,0.014
2493.0,0.0139
2492.0,0.0139
2491.0,0.0139
2490.0,0.0139
2489.0,0.0139
2488.0,0.0139
2487.0,0.0138
2486.0,0.0138
2485.0,0.0137
2484.0,0.0137
2483.0,0.0137
2482.0,0.0137
2481.0,0.0136
2480.0,0.0136
2479.0,0.0135
2478.0,0.0135
2477.0,0.0134
2476.0,0.0134
2475.0,0.0134
2474.0,0.0134
2473.0,0.0134
2472.0,0.0134
2471.0,0.0134
2470.0,0.0133
2469.0,0.0133
2468.0,0.0132
2467.0,0.0131
2466.0,0.0131
2465.0,0.0132
2464.0,0.0132
2463.0,0.0132
2462.0,0.0132
2461.0,0.0131
2460.0,0.0131
2459.0,0.0131
2458.0,0.013
2457.0,0.013
2456.0,0.013
2455.0,0.013
2454.0,0.013
2453.0,0.013
2452.0,0.013
2451.0,0.013
2450.0,0.013
2449.0,0.013
2448.0,0.0129
2447.0,0.0129
2446.0,0.013
2445.0,0.013
2444.0,0.013
2443.0,0.013
2442.0,0.0129
2441.0,0.0129
2440.0,0.0129
2439.0,0.0128
2438.0,0.0128
2437.0,0.0128
2436.0,0.0129
2435.0,0.0129
2434.0,0.0129
2433.0,0.0129
2432.0,0.0129
2431.0,0.0129
2430.0,0.0129
2429.0,0.0129
2428.0,0.0129
2427.0,0.0129
2426.0,0.0129
2425.0,0.0129
2424.0,0.013
2423.0,0.013
2422.0,0.013
2421.0,0.013
2420.0,0.013
2419.0,0.013
2418.0,0.013
2417.0,0.013
2416.0,0.0131
2415.0,0.0131
2414.0,0.0131
2413.0,0.0131
2412.0,0.0132
2411.0,0.0132
2410.0,0.0133
2409.0,0.0133
2408.0,0.0132
2407.0,0.0132
2406.0,0.0132
2405.0,0.0132
2404.0,0.0132
2403.0,0.0133
2402.0,0.0133
2401.0,0.0133
2400.0,0.0132
2399.0,0.0132
2398.0,0.0132
2397.0,0.0132
2396.0,0.0132
2395.0,0.0133
2394.0,0.0133
2393.0,0.0133
2392.0,0.0132
2391.0,0.0132
2390.0,0.0131
2389.0,0.0129
2388.0,0.0127
2387.0,0.0125
2386.0,0.0122
2385.0,0.0119
2384.0,0.0115
2383.0,0.0113
2382.0,0.0111
2381.0,0.011
2380.0,0.0109
2379.0,0.0109
2378.0,0.0109
2377.0,0.0108
2376.0,0.0107
2375.0,0.0103
2374.0,0.0097
2373.0,0.0091
2372.0,0.0089
2371.0,0.0091
2370.0,0.0095
2369.0,0.0096
2368.0,0.0095
2367.0,0.0094
2366.0,0.009
2365.0,0.0083
2364.0,0.0081
2363.0,0.0094
2362.0,0.0118
2361.0,0.014
2360.0,0.0146
2359.0,0.0131
2358.0,0.0107
2357.0,0.0085
2356.0,0.0071
2355.0,0.0061
2354.0,0.0054
2353.0,0.0056
2352.0,0.0063
2351.0,0.0069
2350.0,0.0072
2349.0,0.0071
2348.0,0.007
2347.0,0.0069
2346.0,0.0069
2345.0,0.0069
2344.0,0.0066
2343.0,0.006
2342.0,0.0057
2341.0,0.0059
2340.0,0.0064
2339.0,0.0067
2338.0,0.0066
2337.0,0.0059
2336.0,0.0051
2335.0,0.0042
2334.0,0.0037
2333.0,0.0038
2332.0,0.0046
2331.0,0.0055
2330.0,0.006
2329.0,0.006
2328.0,0.0059
2327.0,0.0061
2326.0,0.0066
2325.0,0.0074
2324.0,0.0082
2323.0,0.0087
2322.0,0.0086
2321.0,0.0081
2320.0,0.0076
2319.0,0.0072
2318.0,0.0071
2317.0,0.0069
2316.0,0.0067
2315.0,0.0066
2314.0,0.0064
2313.0,0.0062
2312.0,0.0061
2311.0,0.006
2310.0,0.0062
2309.0,0.0064
2308.0,0.0068
2307.0,0.0073
2306.0,0.0076
2305.0,0.0078
2304.0,0.0077
2303.0,0.0077
2302.0,0.0076
2301.0,0.0076
2300.0,0.0078
2299.0,0.0079
2298.0,0.0081
2297.0,0.0083
2296.0,0.0085
2295.0,0.0087
2294.0,0.009
2293.0,0.0093
2292.0,0.0096
2291.0,0.0099
2290.0,0.0101
2289.0,0.0103
2288.0,0.0106
2287.0,0.0108
2286.0,0.011
2285.0,0.0111
2284.0,0.0112
2283.0,0.0111
2282.0,0.0111
2281.0,0.011
2280.0,0.0109
2279.0,0.0109
2278.0,0.0108
2277.0,0.0108
2276.0,0.0108
2275.0,0.0107
2274.0,0.0107
2273.0,0.0106
2272.0,0.0105
2271.0,0.0106
2270.0,0.0106
2269.0,0.0106
2268.0,0.0106
2267.0,0.0106
2266.0,0.0105
2265.0,0.0104
2264.0,0.0104
2263.0,0.0104
2262.0,0.0104
2261.0,0.0105
2260.0,0.0105
2259.0,0.0106
2258.0,0.0107
2257.0,0.0107
2256.0,0.0107
2255.0,0.0107
2254.0,0.0108
2253.0,0.0107
2252.0,0.0107
2251.0,0.0107
2250.0,0.0107
2249.0,0.0107
2248.0,0.0107
2247.0,0.0108
2246.0,0.0107
2245.0,0.0107
2244.0,0.0107
2243.0,0.0107
2242.0,0.0107
2241.0,0.0107
2240.0,0.0106
2239.0,0.0106
2238.0,0.0106
2237.0,0.0106
2236.0,0.0106
2235.0,0.0105
2234.0,0.0105
2233.0,0.0105
2232.0,0.0105
2231.0,0.0105
2230.0,0.0105
2229.0,0.0105
2228.0,0.0105
2227.0,0.0105
2226.0,0.0104
2225.0,0.0104
2224.0,0.0104
2223.0,0.0103
2222.0,0.0103
2221.0,0.0102
2220.0,0.0102
2219.0,0.0102
2218.0,0.0102
2217.0,0.0101
2216.0,0.0101
2215.0,0.01
2214.0,0.01
2213.0,0.01
2212.0,0.01
2211.0,0.01
2210.0,0.01
2209.0,0.01
2208.0,0.0099
2207.0,0.0099
2206.0,0.0099
2205.0,0.0098
2204.0,0.0098
2203.0,0.0098
2202.0,0.0097
2201.0,0.0097
2200.0,0.0096
2199.0,0.0096
2198.0,0.0096
2197.0,0.0095
2196.0,0.0095
2195.0,0.0094
2194.0,0.0094
2193.0,0.0094
2192.0,0.0094
2191.0,0.0094
2190.0,0.0094
2189.0,0.0094
2188.0,0.0094
2187.0,0.0094
2186.0,0.0094
2185.0,0.0093
2184.0,0.0093
2183.0,0.0092
2182.0,0.0092
2181.0,0.0092
2180.0,0.0092
2179.0,0.0092
2178.0,0.0092
2177.0,0.0092
2176.0,0.0092
2175.0,0.0092
2174.0,0.0092
2173.0,0.0091
2172.0,0.0091
2171.0,0.0091
2170.0,0.0091
2169.0,0.0092
2168.0,0.0093
2167.0,0.0093
2166.0,0.0094
2165.0,0.0093
2164.0,0.0093
2163.0,0.0093
2162.0,0.0093
2161.0,0.0092
2160.0,0.0092
2159.0,0.0092
2158.0,0.0092
2157.0,0.0092
2156.0,0.0092
2155.0,0.0093
2154.0,0.0093
2153.0,0.0093
2152.0,0.0093
2151.0,0.0094
2150.0,0.0094
2149.0,0.0094
2148.0,0.0094
2147.0,0.0095
2146.0,0.0095
2145.0,0.0094
2144.0,0.0094
2143.0,0.0093
2142.0,0.0093
2141.0,0.0094
2140.0,0.0094
2139.0,0.0094
2138.0,0.0094
2137.0,0.0094
2136.0,0.0094
2135.0,0.0094
2134.0,0.0093
2133.0,0.0093
2132.0,0.0094
2131.0,0.0094
2130.0,0.0094
2129.0,0.0094
2128.0,0.0094
2127.0,0.0095
2126.0,0.0095
2125.0,0.0094
2124.0,0.0094
2123.0,0.0094
2122.0,0.0094
2121.0,0.0094
2120.0,0.0093
2119.0,0.0093
2118.0,0.0094
2117.0,0.0094
2116.0,0.0094
2115.0,0.0095
2114.0,0.0095
2113.0,0.0095
2112.0,0.0094
2111.0,0.0094
2110.0,0.0094
2109.0,0.0094
2108.0,0.0094
2107.0,0.0094
2106.0,0.0094
2105.0,0.0093
2104.0,0.0093
2103.0,0.0093
2102.0,0.0093
2101.0,0.0093
2100.0,0.0092
2099.0,0.0092
2098.0,0.0092
2097.0,0.0092
2096.0,0.0092
2095.0,0.0091
2094.0,0.0091
2093.0,0.0091
2092.0,0.0091
2091.0,0.009
2090.0,0.009
2089.0,0.0089
2088.0,0.0088
2087.0,0.0087
2086.0,0.0087
2085.0,0.0087
2084.0,0.0087
2083.0,0.0087
2082.0,0.0087
2081.0,0.0087
2080.0,0.0086
2079.0,0.0086
2078.0,0.0086
2077.0,0.0085
2076.0,0.0085
2075.0,0.0084
2074.0,0.0084
2073.0,0.0083
2072.0,0.0082
2071.0,0.0081
2070.0,0.0081
2069.0,0.008
2068.0,0.008
2067.0,0.0079
2066.0,0.0078
2065.0,0.0077
2064.0,0.0077
2063.0,0.0076
2062.0,0.0076
2061.0,0.0076
2060.0,0.0075
2059.0,0.0074
2058.0,0.0074
2057.0,0.0073
2056.0,0.0072
2055.0,0.0071
2054.0,0.0071
2053.0,0.0071
2052.0,0.007
2051.0,0.0069
2050.0,0.0068
2049.0,0.0068
2048.0,0.0067
2047.0,0.0067
2046.0,0.0067
2045.0,0.0066
2044.0,0.0066
2043.0,0.0067
2042.0,0.0067
2041.0,0.0066
2040.0,0.0066
2039.0,0.0065
2038.0,0.0064
2037.0,0.0063
2036.0,0.0063
2035.0,0.0062
2034.0,0.0062
2033.0,0.0062
2032.0,0.0062
2031.0,0.0062
2030.0,0.0062
2029.0,0.0061
2028.0,0.0061
2027.0,0.0061
2026.0,0.0061
2025.0,0.0062
2024.0,0.0062
2023.0,0.0062
2022.0,0.0062
2021.0,0.0061
2020.0,0.006
2019.0,0.006
2018.0,0.006
2017.0,0.006
2016.0,0.006
2015.0,0.006
2014.0,0.006
2013.0,0.006
2012.0,0.006
2011.0,0.006
2010.0,0.0061
2009.0,0.0061
2008.0,0.0061
2007.0,0.0062
2006.0,0.0062
2005.0,0.0062
2004.0,0.0061
2003.0,0.0062
2002.0,0.0062
2001.0,0.0062
2000.0,0.0062
1999.0,0.0062
1998.0,0.0063
1997.0,0.0063
1996.0,0.0063
1995.0,0.0064
1994.0,0.0064
1993.0,0.0064
1992.0,0.0065
1991.0,0.0066
1990.0,0.0067
1989.0,0.0067
1988.0,0.0067
1987.0,0.0067
1986.0,0.0067
1985.0,0.0067
1984.0,0.0067
1983.0,0.0067
1982.0,0.0067
1981.0,0.0067
1980.0,0.0067
1979.0,0.0067
1978.0,0.0067
1977.0,0.0067
1976.0,0.0067
1975.0,0.0068
1974.0,0.0069
1973.0,0.007
1972.0,0.0071
1971.0,0.0072
1970.0,0.0073
1969.0,0.0073
1968.0,0.0074
1967.0,0.0075
1966.0,0.0076
1965.0,0.0076
1964.0,0.0077
1963.0,0.0078
1962.0,0.008
1961.0,0.0081
1960.0,0.0082
1959.0,0.0083
1958.0,0.0084
1957.0,0.0085
1956.0,0.0086
1955.0,0.0087
1954.0,0.0088
1953.0,0.0088
1952.0,0.0087
1951.0,0.0087
1950.0,0.0087
1949.0,0.0086
1948.0,0.0086
1947.0,0.0085
1946.0,0.0085
1945.0,0.0085
1944.0,0.0083
1943.0,0.0081
1942.0,0.0078
1941.0,0.0076
1940.0,0.0073
1939.0,0.0071
1938.0,0.0069
1937.0,0.0067
1936.0,0.0066
1935.0,0.0064
1934.0,0.0062
1933.0,0.006
1932.0,0.0058
1931.0,0.0056
1930.0,0.0055
1929.0,0.0054
1928.0,0.0052
1927.0,0.0052
1926.0,0.0051
1925.0,0.005
1924.0,0.0049
1923.0,0.0048
1922.0,0.0047
1921.0,0.0045
1920.0,0.0043
1919.0,0.0041
1918.0,0.004
1917.0,0.0039
1916.0,0.0038
1915.0,0.0037
1914.0,0.0036
1913.0,0.0035
1912.0,0.0034
1911.0,0.0034
1910.0,0.0032
1909.0,0.0031
1908.0,0.003
1907.0,0.0029
1906.0,0.0028
1905.0,0.0027
1904.0,0.0026
1903.0,0.0025
1902.0,0.0024
1901.0,0.0023
1900.0,0.0022
1899.0,0.0022
1898.0,0.0021
1897.0,0.002
1896.0,0.0018
1895.0,0.0017
1894.0,0.0017
1893.0,0.0017
1892.0,0.0016
1891.0,0.0016
1890.0,0.0015
1889.0,0.0013
1888.0,0.0012
1887.0,0.0011
1886.0,0.001
1885.0,0.0009
1884.0,0.0008
1883.0,0.0007
1882.0,0.0006
1881.0,0.0004
1880.0,0.0003
1879.0,0.0003
1878.0,0.0003
1877.0,0.0002
1876.0,0.0001
1875.0,0.0001
1874.0,0.0
1873.0,0.0
1872.0,-0.0
1871.0,0.0
1870.0,0.0
1869.0,-0.0
1868.0,-0.0001
1867.0,-0.0002
1866.0,-0.0003
1865.0,-0.0005
1864.0,-0.0006
1863.0,-0.0006
1862.0,-0.0006
1861.0,-0.0007
1860.0,-0.0007
1859.0,-0.0008
1858.0,-0.0008
1857.0,-0.0008
1856.0,-0.0008
1855.0,-0.0008
1854.0,-0.0007
1853.0,-0.0007
1852.0,-0.0007
1851.0,-0.0006
1850.0,-0.0006
1849.0,-0.0005
1848.0,-0.0005
1847.0,-0.0005
1846.0,-0.0006
1845.0,-0.0008
1844.0,-0.0008
1843.0,-0.0007
1842.0,-0.0005
1841.0,-0.0004
1840.0,-0.0004
1839.0,-0.0003
1838.0,-0.0002
1837.0,-0.0002
1836.0,-0.0002
1835.0,-0.0002
1834.0,-0.0001
1833.0,0.0
1832.0,0.0002
1831.0,0.0003
1830.0,0.0004
1829.0,0.0004
1828.0,0.0004
1827.0,0.0004
1826.0,0.0004
1825.0,0.0002
1824.0,0.0
1823.0,-0.0
1822.0,-0.0001
1821.0,-0.0001
1820.0,-0.0001
1819.0,-0.0002
1818.0,-0.0003
1817.0,-0.0005
1816.0,-0.0006
1815.0,-0.0007
1814.0,-0.0006
1813.0,-0.0007
1812.0,-0.0009
1811.0,-0.001
1810.0,-0.0012
1809.0,-0.0014
1808.0,-0.0017
1807.0,-0.0018
1806.0,-0.0018
1805.0,-0.0019
1804.0,-0.0019
1803.0,-0.002
1802.0,-0.0021
1801.0,-0.0023
1800.0,-0.0026
1799.0,-0.0027
1798.0,-0.0027
1797.0,-0.0029
1796.0,-0.003
1795.0,-0.0031
1794.0,-0.0032
1793.0,-0.0035
1792.0,-0.0038
1791.0,-0.0038
1790.0,-0.0038
1789.0,-0.0039
1788.0,-0.004
1787.0,-0.0041
1786.0,-0.0042
1785.0,-0.0043
1784.0,-0.0044
1783.0,-0.0042
1782.0,-0.0041
1781.0,-0.0042
1780.0,-0.0044
1779.0,-0.0044
1778.0,-0.0043
1777.0,-0.0043
1776.0,-0.0043
1775.0,-0.0043
1774.0,-0.0042
1773.0,-0.0043
1772.0,-0.0044
1771.0,-0.0042
1770.0,-0.004
1769.0,-0.0041
1768.0,-0.004
1767.0,-0.0037
1766.0,-0.0032
1765.0,-0.0028
1764.0,-0.0025
1763.0,-0.002
1762.0,-0.0013
1761.0,-0.0007
1760.0,-0.0001
1759.0,0.0008
1758.0,0.0019
1757.0,0.0029
1756.0,0.0042
1755.0,0.0057
1754.0,0.0072
1753.0,0.0089
1752.0,0.0111
1751.0,0.0146
1750.0,0.0188
1749.0,0.0233
1748.0,0.0282
1747.0,0.0338
1746.0,0.0402
1745.0,0.0473
1744.0,0.0558
1743.0,0.0653
1742.0,0.0753
1741.0,0.0865
1740.0,0.1003
1739.0,0.1147
1738.0,0.1262
1737.0,0.1347
1736.0,0.1444
1735.0,0.1617
1734.0,0.1867
1733.0,0.2079
1732.0,0.2231
1731.0,0.2384
1730.0,0.2564
1729.0,0.2756
1728.0,0.2941
1727.0,0.3125
1726.0,0.3319
1725.0,0.3533
1724.0,0.3768
1723.0,0.4008
1722.0,0.4219
1721.0,0.4383
1720.0,0.4524
1719.0,0.4712
1718.0,0.4979
1717.0,0.5204
1716.0,0.5286
1715.0,0.5273
1714.0,0.5195
1713.0,0.5039
1712.0,0.4809
1711.0,0.4534
1710.0,0.4239
1709.0,0.3939
1708.0,0.3637
1707.0,0.332
1706.0,0.2997
1705.0,0.2723
1704.0,0.2527
1703.0,0.2375
1702.0,0.2221
1701.0,0.2035
1700.0,0.1856
1699.0,0.174
1698.0,0.166
1697.0,0.1579
1696.0,0.149
1695.0,0.1414
1694.0,0.1362
1693.0,0.1323
1692.0,0.1284
1691.0,0.1242
1690.0,0.1202
1689.0,0.1169
1688.0,0.1144
1687.0,0.1117
1686.0,0.1088
1685.0,0.1058
1684.0,0.1033
1683.0,0.101
1682.0,0.0986
1681.0,0.0963
1680.0,0.0939
1679.0,0.0914
1678.0,0.0889
1677.0,0.0864
1676.0,0.0839
1675.0,0.0816
1674.0,0.0797
1673.0,0.0782
1672.0,0.0765
1671.0,0.0745
1670.0,0.0723
1669.0,0.0704
1668.0,0.0689
1667.0,0.0673
1666.0,0.0657
1665.0,0.064
1664.0,0.0623
1663.0,0.0604
1662.0,0.0588
1661.0,0.0575
1660.0,0.0563
1659.0,0.055
1658.0,0.0539
1657.0,0.0529
1656.0,0.0518
1655.0,0.0505
1654.0,0.049
1653.0,0.0484
1652.0,0.0482
1651.0,0.0479
1650.0,0.0475
1649.0,0.0469
1648.0,0.0459
1647.0,0.0448
1646.0,0.044
1645.0,0.0436
1644.0,0.0431
1643.0,0.0426
1642.0,0.042
1641.0,0.0416
1640.0,0.0412
1639.0,0.0407
1638.0,0.0401
1637.0,0.0395
1636.0,0.0391
1635.0,0.0388
1634.0,0.0384
1633.0,0.0381
1632.0,0.0377
1631.0,0.0372
1630.0,0.0368
1629.0,0.0365
1628.0,0.0362
1627.0,0.0359
1626.0,0.0354
1625.0,0.0351
1624.0,0.0348
1623.0,0.0347
1622.0,0.0346
1621.0,0.0347
1620.0,0.0347
1619.0,0.0346
1618.0,0.035
1617.0,0.0362
1616.0,0.0375
1615.0,0.0381
1614.0,0.0381
1613.0,0.0378
1612.0,0.0373
1611.0,0.0367
1610.0,0.0358
1609.0,0.0349
1608.0,0.0341
1607.0,0.0331
1606.0,0.0322
1605.0,0.0313
1604.0,0.0305
1603.0,0.0296
1602.0,0.0288
1601.0,0.0281
1600.0,0.0275
1599.0,0.0269
1598.0,0.0264
1597.0,0.026
1596.0,0.0257
1595.0,0.0254
1594.0,0.0252
1593.0,0.0251
1592.0,0.0251
1591.0,0.025
1590.0,0.025
1589.0,0.0252
1588.0,0.0255
1587.0,0.0259
1586.0,0.0266
1585.0,0.0278
1584.0,0.0294
1583.0,0.0315
1582.0,0.0338
1581.0,0.0361
1580.0,0.038
1579.0,0.0392
1578.0,0.0393
1577.0,0.0383
1576.0,0.0365
1575.0,0.0348
1574.0,0.0333
1573.0,0.032
1572.0,0.0306
1571.0,0.0291
1570.0,0.0275
1569.0,0.0262
1568.0,0.0254
1567.0,0.0247
1566.0,0.024
1565.0,0.0234
1564.0,0.0229
1563.0,0.0224
1562.0,0.0219
1561.0,0.0215
1560.0,0.0213
1559.0,0.021
1558.0,0.0207
1557.0,0.0203
1556.0,0.0199
1555.0,0.0195
1554.0,0.0192
1553.0,0.0191
1552.0,0.019
1551.0,0.0188
1550.0,0.0184
1549.0,0.0181
1548.0,0.0178
1547.0,0.0175
1546.0,0.0173
1545.0,0.0172
1544.0,0.0171
1543.0,0.0169
1542.0,0.0166
1541.0,0.0165
1540.0,0.0166
1539.0,0.0165
1538.0,0.0163
1537.0,0.0163
1536.0,0.0163
1535.0,0.0164
1534.0,0.0166
1533.0,0.017
1532.0,0.0172
1531.0,0.0172
1530.0,0.0172
1529.0,0.0172
1528.0,0.0172
1527.0,0.0171
1526.0,0.017
1525.0,0.017
1524.0,0.0169
1523.0,0.0165
1522.0,0.0161
1521.0,0.016
1520.0,0.016
1519.0,0.0158
1518.0,0.0156
1517.0,0.0153
1516.0,0.0152
1515.0,0.0151
1514.0,0.0153
1513.0,0.0159
1512.0,0.0172
1511.0,0.019
1510.0,0.0213
1509.0,0.0244
1508.0,0.0305
1507.0,0.0398
1506.0,0.0456
1505.0,0.0459
1504.0,0.0434
1503.0,0.0395
1502.0,0.0347
1501.0,0.0299
1500.0,0.0256
1499.0,0.0217
1498.0,0.0185
1497.0,0.0161
1496.0,0.0145
1495.0,0.0135
1494.0,0.0129
1493.0,0.0127
1492.0,0.0126
1491.0,0.0126
1490.0,0.0128
1489.0,0.0134
1488.0,0.0141
1487.0,0.0147
1486.0,0.0153
1485.0,0.0162
1484.0,0.0172
1483.0,0.0183
1482.0,0.0196
1481.0,0.021
1480.0,0.0223
1479.0,0.0234
1478.0,0.0244
1477.0,0.0255
1476.0,0.0264
1475.0,0.027
1474.0,0.0273
1473.0,0.0278
1472.0,0.0283
1471.0,0.0286
1470.0,0.0288
1469.0,0.0291
1468.0,0.0295
1467.0,0.0301
1466.0,0.0311
1465.0,0.0328
1464.0,0.0348
1463.0,0.0365
1462.0,0.038
1461.0,0.0394
1460.0,0.0409
1459.0,0.0422
1458.0,0.0439
1457.0,0.0461
1456.0,0.0477
1455.0,0.0483
1454.0,0.0484
1453.0,0.0481
1452.0,0.0476
1451.0,0.0468
1450.0,0.046
1449.0,0.0451
1448.0,0.0442
1447.0,0.0433
1446.0,0.0427
1445.0,0.0421
1444.0,0.0416
1443.0,0.0411
1442.0,0.0406
1441.0,0.0401
1440.0,0.0394
1439.0,0.0383
1438.0,0.0368
1437.0,0.0347
1436.0,0.0326
1435.0,0.0308
1434.0,0.029
1433.0,0.0271
1432.0,0.025
1431.0,0.0228
1430.0,0.0206
1429.0,0.0188
1428.0,0.0174
1427.0,0.0165
1426.0,0.0159
1425.0,0.0155
1424.0,0.0154
1423.0,0.0157
1422.0,0.0162
1421.0,0.0174
1420.0,0.0201
1419.0,0.0249
1418.0,0.0312
1417.0,0.0382
1416.0,0.0466
1415.0,0.0568
1414.0,0.0692
1413.0,0.0839
1412.0,0.0997
1411.0,0.1141
1410.0,0.1246
1409.0,0.1303
1408.0,0.1306
1407.0,0.1257
1406.0,0.1164
1405.0,0.105
1404.0,0.094
1403.0,0.0848
1402.0,0.0775
1401.0,0.071
1400.0,0.0649
1399.0,0.0591
1398.0,0.0545
1397.0,0.0509
1396.0,0.0476
1395.0,0.0443
1394.0,0.0414
1393.0,0.0393
1392.0,0.0377
1391.0,0.0363
1390.0,0.035
1389.0,0.0338
1388.0,0.0329
1387.0,0.0323
1386.0,0.0321
1385.0,0.0321
1384.0,0.0324
1383.0,0.0329
1382.0,0.0337
1381.0,0.0346
1380.0,0.0359
1379.0,0.0373
1378.0,0.0387
1377.0,0.0403
1376.0,0.042
1375.0,0.0438
1374.0,0.0454
1373.0,0.0466
1372.0,0.0472
1371.0,0.0473
1370.0,0.0466
1369.0,0.0453
1368.0,0.0433
1367.0,0.0408
1366.0,0.038
1365.0,0.035
1364.0,0.0318
1363.0,0.0285
1362.0,0.0257
1361.0,0.0237
1360.0,0.0223
1359.0,0.0214
1358.0,0.0209
1357.0,0.0208
1356.0,0.021
1355.0,0.0217
1354.0,0.0227
1353.0,0.0242
1352.0,0.0263
1351.0,0.029
1350.0,0.0324
1349.0,0.0367
1348.0,0.0419
1347.0,0.048
1346.0,0.0551
1345.0,0.0631
1344.0,0.0717
1343.0,0.0803
1342.0,0.0886
1341.0,0.0962
1340.0,0.1019
1339.0,0.104
1338.0,0.1016
1337.0,0.0952
1336.0,0.086
1335.0,0.0751
1334.0,0.064
1333.0,0.0535
1332.0,0.0446
1331.0,0.0374
1330.0,0.0322
1329.0,0.0287
1328.0,0.0266
1327.0,0.0256
1326.0,0.0255
1325.0,0.0259
1324.0,0.0268
1323.0,0.028
1322.0,0.0294
1321.0,0.0311
1320.0,0.0328
1319.0,0.0346
1318.0,0.0364
1317.0,0.0383
1316.0,0.0402
1315.0,0.0423
1314.0,0.0446
1313.0,0.0472
1312.0,0.05
1311.0,0.0529
1310.0,0.0559
1309.0,0.0591
1308.0,0.0624
1307.0,0.0657
1306.0,0.0688
1305.0,0.0718
1304.0,0.0751
1303.0,0.0787
1302.0,0.0829
1301.0,0.0878
1300.0,0.0936
1299.0,0.1
1298.0,0.107
1297.0,0.1143
1296.0,0.1219
1295.0,0.1295
1294.0,0.137
1293.0,0.1444
1292.0,0.1516
1291.0,0.1586
1290.0,0.1653
1289.0,0.1718
1288.0,0.1782
1287.0,0.1842
1286.0,0.1897
1285.0,0.1948
1284.0,0.1997
1283.0,0.2043
1282.0,0.2085
1281.0,0.2127
1280.0,0.2169
1279.0,0.221
1278.0,0.2252
1277.0,0.2299
1276.0,0.2355
1275.0,0.242
1274.0,0.2496
1273.0,0.259
1272.0,0.2704
1271.0,0.2833
1270.0,0.2977
1269.0,0.3134
1268.0,0.3304
1267.0,0.348
1266.0,0.3659
1265.0,0.3839
1264.0,0.4016
1263.0,0.4179
1262.0,0.4322
1261.0,0.4447
1260.0,0.4551
1259.0,0.4628
1258.0,0.4681
1257.0,0.4726
1256.0,0.4773
1255.0,0.4824
1254.0,0.4885
1253.0,0.4964
1252.0,0.5066
1251.0,0.5182
1250.0,0.5309
1249.0,0.5451
1248.0,0.5605
1247.0,0.5754
1246.0,0.589
1245.0,0.6011
1244.0,0.6109
1243.0,0.6163
1242.0,0.6164
1241.0,0.6116
1240.0,0.6021
1239.0,0.5872
1238.0,0.5673
1237.0,0.5444
1236.0,0.5196
1235.0,0.4933
1234.0,0.4664
1233.0,0.4404
1232.0,0.4157
1231.0,0.3921
1230.0,0.3698
1229.0,0.3491
1228.0,0.33
1227.0,0.3118
1226.0,0.2947
1225.0,0.2788
1224.0,0.2641
1223.0,0.2503
1222.0,0.2373
1221.0,0.2252
1220.0,0.2139
1219.0,0.2033
1218.0,0.1933
1217.0,0.1842
1216.0,0.1758
1215.0,0.1681
1214.0,0.1609
1213.0,0.1543
1212.0,0.1483
1211.0,0.1427
1210.0,0.1375
1209.0,0.1327
1208.0,0.1282
1207.0,0.124
1206.0,0.1199
1205.0,0.1161
1204.0,0.1125
1203.0,0.1089
1202.0,0.1056
1201.0,0.1023
1200.0,0.0993
1199.0,0.0962
1198.0,0.0932
1197.0,0.0904
1196.0,0.0877
1195.0,0.085
1194.0,0.0825
1193.0,0.0801
1192.0,0.0779
1191.0,0.0759
1190.0,0.0742
1189.0,0.0726
1188.0,0.0713
1187.0,0.0703
1186.0,0.0696
1185.0,0.0695
1184.0,0.0698
1183.0,0.0705
1182.0,0.0717
1181.0,0.0732
1180.0,0.0751
1179.0,0.0771
1178.0,0.0789
1177.0,0.0805
1176.0,0.0817
1175.0,0.0823
1174.0,0.0822
1173.0,0.0812
1172.0,0.0794
1171.0,0.0768
1170.0,0.0736
1169.0,0.0702
1168.0,0.067
1167.0,0.0642
1166.0,0.0619
1165.0,0.0602
1164.0,0.0591
1163.0,0.0584
1162.0,0.058
1161.0,0.0578
1160.0,0.0578
1159.0,0.058
1158.0,0.0585
1157.0,0.0592
1156.0,0.0602
1155.0,0.0616
1154.0,0.0634
1153.0,0.0656
1152.0,0.0682
1151.0,0.0712
1150.0,0.0747
1149.0,0.0785
1148.0,0.0829
1147.0,0.0875
1146.0,0.0924
1145.0,0.0975
1144.0,0.1029
1143.0,0.1085
1142.0,0.1142
1141.0,0.1201
1140.0,0.1261
1139.0,0.1321
1138.0,0.1381
1137.0,0.1443
1136.0,0.1508
1135.0,0.1575
1134.0,0.1645
1133.0,0.172
1132.0,0.1802
1131.0,0.189
1130.0,0.1984
1129.0,0.2086
1128.0,0.2198
1127.0,0.2316
1126.0,0.2441
1125.0,0.2572
1124.0,0.2708
1123.0,0.2843
1122.0,0.2972
1121.0,0.3093
1120.0,0.32
1119.0,0.3285
1118.0,0.3342
1117.0,0.3369
1116.0,0.3367
1115.0,0.3337
1114.0,0.329
1113.0,0.3245
1112.0,0.3218
1111.0,0.3223
1110.0,0.327
1109.0,0.3367
1108.0,0.351
1107.0,0.3688
1106.0,0.3889
1105.0,0.4106
1104.0,0.4331
1103.0,0.455
1102.0,0.4755
1101.0,0.4945
1100.0,0.5115
1099.0,0.5252
1098.0,0.5351
1097.0,0.5417
1096.0,0.5448
1095.0,0.5436
1094.0,0.5381
1093.0,0.5295
1092.0,0.5186
1091.0,0.5053
1090.0,0.4904
1089.0,0.4751
1088.0,0.46
1087.0,0.4447
1086.0,0.4294
1085.0,0.4145
1084.0,0.3998
1083.0,0.3845
1082.0,0.3685
1081.0,0.3521
1080.0,0.3353
1079.0,0.318
1078.0,0.3006
1077.0,0.2838
1076.0,0.2678
1075.0,0.2526
1074.0,0.2383
1073.0,0.2255
1072.0,0.214
1071.0,0.2037
1070.0,0.1943
1069.0,0.186
1068.0,0.1786
1067.0,0.1718
1066.0,0.1656
1065.0,0.1601
1064.0,0.1552
1063.0,0.1507
1062.0,0.1467
1061.0,0.1433
1060.0,0.1405
1059.0,0.1382
1058.0,0.1366
1057.0,0.1356
1056.0,0.1354
1055.0,0.1358
1054.0,0.1366
1053.0,0.138
1052.0,0.1399
1051.0,0.1419
1050.0,0.144
1049.0,0.1462
1048.0,0.1483
1047.0,0.1502
1046.0,0.1518
1045.0,0.153
1044.0,0.1537
1043.0,0.1539
1042.0,0.1534
1041.0,0.1522
1040.0,0.1506
1039.0,0.1486
1038.0,0.1462
1037.0,0.1439
1036.0,0.1415
1035.0,0.139
1034.0,0.1365
1033.0,0.1342
1032.0,0.1322
1031.0,0.1303
1030.0,0.1289
1029.0,0.1282
1028.0,0.1288
1027.0,0.1315
1026.0,0.1371
1025.0,0.1466
1024.0,0.1608
1023.0,0.1803
1022.0,0.2048
1021.0,0.2334
1020.0,0.2635
1019.0,0.2902
1018.0,0.3075
1017.0,0.311
1016.0,0.2994
1015.0,0.2761
1014.0,0.2474
1013.0,0.2191
1012.0,0.1948
1011.0,0.1754
1010.0,0.1602
1009.0,0.1485
1008.0,0.1394
1007.0,0.132
1006.0,0.1261
1005.0,0.1214
1004.0,0.1177
1003.0,0.1146
1002.0,0.1119
1001.0,0.1095
1000.0,0.1074
999.0,0.1055
998.0,0.1038
997.0,0.1023
996.0,0.1009
995.0,0.0996
994.0,0.0985
993.0,0.0976
992.0,0.0969
991.0,0.0963
990.0,0.0959
989.0,0.0956
988.0,0.0955
987.0,0.0957
986.0,0.096
985.0,0.0967
984.0,0.0976
983.0,0.0987
982.0,0.1
981.0,0.1016
980.0,0.1034
979.0,0.1052
978.0,0.1069
977.0,0.1084
976.0,0.1098
975.0,0.1108
974.0,0.1115
973.0,0.1117
972.0,0.1115
971.0,0.1109
970.0,0.1098
969.0,0.1083
968.0,0.1065
967.0,0.1044
966.0,0.1021
965.0,0.0997
964.0,0.0974
963.0,0.095
962.0,0.0926
961.0,0.0905
960.0,0.0885
959.0,0.0865
958.0,0.0847
957.0,0.0829
956.0,0.0812
955.0,0.0797
954.0,0.0782
953.0,0.077
952.0,0.0759
951.0,0.075
950.0,0.0741
949.0,0.0733
948.0,0.0725
947.0,0.0718
946.0,0.071
945.0,0.0703
944.0,0.0696
943.0,0.069
942.0,0.0684
941.0,0.0679
940.0,0.0675
939.0,0.0671
938.0,0.0668
937.0,0.0664
936.0,0.0659
935.0,0.0654
934.0,0.0649
933.0,0.0644
932.0,0.064
931.0,0.0635
930.0,0.0631
929.0,0.0627
928.0,0.0622
927.0,0.0617
926.0,0.0611
925.0,0.0605
924.0,0.06
923.0,0.0596
922.0,0.0591
921.0,0.0588
920.0,0.0584
919.0,0.0582
918.0,0.0579
917.0,0.0578
916.0,0.0579
915.0,0.0581
914.0,0.0583
913.0,0.0588
912.0,0.0595
911.0,0.0604
910.0,0.0617
909.0,0.0633
908.0,0.065
907.0,0.0669
906.0,0.0689
905.0,0.0709
904.0,0.073
903.0,0.0749
902.0,0.0766
901.0,0.0781
900.0,0.0793
899.0,0.0802
898.0,0.0808
897.0,0.0811
896.0,0.0811
895.0,0.081
894.0,0.0806
893.0,0.0803
892.0,0.0801
891.0,0.08
890.0,0.0801
889.0,0.0806
888.0,0.0817
887.0,0.0833
886.0,0.0855
885.0,0.0886
884.0,0.0926
883.0,0.0977
882.0,0.1039
881.0,0.1114
880.0,0.1201
879.0,0.1298
878.0,0.1403
877.0,0.1513
876.0,0.1623
875.0,0.1723
874.0,0.1797
873.0,0.1831
872.0,0.1814
871.0,0.1748
870.0,0.1647
869.0,0.1535
868.0,0.1427
867.0,0.1333
866.0,0.1256
865.0,0.1197
864.0,0.1153
863.0,0.1119
862.0,0.1092
861.0,0.1071
860.0,0.1055
859.0,0.1042
858.0,0.1031
857.0,0.1024
856.0,0.102
855.0,0.1018
854.0,0.1018
853.0,0.1019
852.0,0.1021
851.0,0.1024
850.0,0.1027
849.0,0.1031
848.0,0.1035
847.0,0.1037
846.0,0.1037
845.0,0.1035
844.0,0.1031
843.0,0.1026
842.0,0.1018
841.0,0.1008
840.0,0.0996
839.0,0.0981
838.0,0.0964
837.0,0.0948
836.0,0.0932
835.0,0.0915
834.0,0.0895
833.0,0.0876
832.0,0.0857
831.0,0.0839
830.0,0.0821
829.0,0.0806
828.0,0.0794
827.0,0.0782
826.0,0.0771
825.0,0.076
824.0,0.0751
823.0,0.0742
822.0,0.0734
821.0,0.0728
820.0,0.0723
819.0,0.0718
818.0,0.0714
817.0,0.0713
816.0,0.0711
815.0,0.071
814.0,0.0707
813.0,0.0704
812.0,0.0702
811.0,0.0698
810.0,0.0692
809.0,0.0686
808.0,0.0681
807.0,0.0675
806.0,0.067
805.0,0.0664
804.0,0.0658
803.0,0.065
802.0,0.0641
801.0,0.0635
800.0,0.0635
799.0,0.0645
798.0,0.0669
797.0,0.0707
796.0,0.0754
795.0,0.0796
794.0,0.0823
793.0,0.0829
792.0,0.0817
791.0,0.0789
790.0,0.0753
789.0,0.0716
788.0,0.0682
787.0,0.0651
786.0,0.0623
785.0,0.0599
784.0,0.0578
783.0,0.0559
782.0,0.0542
781.0,0.0526
780.0,0.0512
779.0,0.05
778.0,0.0487
777.0,0.0474
776.0,0.0461
775.0,0.0447
774.0,0.0434
773.0,0.0422
772.0,0.0411
771.0,0.0398
770.0,0.0384
769.0,0.0371
768.0,0.0359
767.0,0.0346
766.0,0.0332
765.0,0.0318
764.0,0.0304
763.0,0.029
762.0,0.0278
761.0,0.0267
760.0,0.0256
759.0,0.0244
758.0,0.0232
757.0,0.0221
756.0,0.0212
755.0,0.0205
754.0,0.0197
753.0,0.0191
752.0,0.0184
751.0,0.0179
750.0,0.0176
749.0,0.0178
748.0,0.0184
747.0,0.0194
746.0,0.0208
745.0,0.0232
744.0,0.0268
743.0,0.0321
742.0,0.0396
741.0,0.0501
740.0,0.0641
739.0,0.0813
738.0,0.1013
737.0,0.1238
736.0,0.1482
735.0,0.1737
734.0,0.2003
733.0,0.2284
732.0,0.2583
731.0,0.2905
730.0,0.3258
729.0,0.3656
728.0,0.4102
727.0,0.4564
726.0,0.4984
725.0,0.5292
724.0,0.5432
723.0,0.5383
722.0,0.5169
721.0,0.4849
720.0,0.4478
719.0,0.41
718.0,0.3747
717.0,0.343
716.0,0.3155
715.0,0.2921
714.0,0.2729
713.0,0.2576
712.0,0.2455
711.0,0.2353
710.0,0.2261
709.0,0.2176
708.0,0.2095
707.0,0.2018
706.0,0.1943
705.0,0.1872
704.0,0.1806
703.0,0.1743
702.0,0.168
701.0,0.1612
700.0,0.1539
699.0,0.1465
698.0,0.1398
697.0,0.1341
696.0,0.1295
695.0,0.1254
694.0,0.1215
693.0,0.1181
692.0,0.1155
691.0,0.1138
690.0,0.1124
689.0,0.1109
688.0,0.109
687.0,0.1068
686.0,0.1048
685.0,0.1035
684.0,0.1031
683.0,0.1035
682.0,0.1042
681.0,0.1046
680.0,0.1043
679.0,0.1032
678.0,0.1014
677.0,0.0993
676.0,0.0969
675.0,0.0941
674.0,0.0916
673.0,0.0897
672.0,0.0888
671.0,0.0892
670.0,0.0906
669.0,0.0933
668.0,0.0958
667.0,0.0939
666.0,0.0887
665.0,0.0841
664.0,0.0813
663.0,0.0796
662.0,0.0785
661.0,0.078
660.0,0.078
659.0,0.0782
658.0,0.0781
657.0,0.0776
656.0,0.0765
655.0,0.0753
654.0,0.0744
653.0,0.0741
652.0,0.0743
651.0,0.0744
650.0,0.0742
649.0,0.0737
648.0,0.0731
647.0,0.0726
646.0,0.0721
645.0,0.0715
644.0,0.0706
643.0,0.0696
642.0,0.0691
641.0,0.0692
640.0,0.0698
639.0,0.0704
638.0,0.071
637.0,0.0721
636.0,0.0739
635.0,0.0767
634.0,0.0798
633.0,0.0823
632.0,0.0827
631.0,0.0805
630.0,0.077
629.0,0.0741
628.0,0.0723
627.0,0.0714
626.0,0.0707
625.0,0.0701
624.0,0.0695
623.0,0.0689
622.0,0.0685
621.0,0.0683
620.0,0.0682
619.0,0.068
618.0,0.0676
617.0,0.067
616.0,0.0663
615.0,0.0657
614.0,0.0655
613.0,0.066
612.0,0.067
611.0,0.0677
610.0,0.0677
609.0,0.0674
608.0,0.0668
607.0,0.0659
606.0,0.0645
605.0,0.0631
604.0,0.062
603.0,0.0615
602.0,0.0619
601.0,0.0629
600.0,0.0642
