nm,Intensity
526.508,831.5
526.645,830.2
526.782,830.6
526.919,828.6
527.055,831.5
527.192,831.2
527.329,830.1
527.465,831.4
527.602,831.2
527.739,829.9
527.875,829.3
528.012,831.5
528.149,829.8
528.285,830.4
528.422,829.7
528.558,829.6
528.695,828.6
528.832,831.0
528.968,828.9
529.105,829.3
529.241,830.1
529.378,829.6
529.514,830.4
529.651,828.9
529.787,828.8
529.924,830.3
530.061,830.2
530.197,828.5
530.334,831.3
530.47,830.9
530.606,830.1
530.743,829.2
530.879,831.0
531.016,829.9
531.152,830.1
531.289,828.8
531.425,830.6
531.562,829.5
531.698,829.9
531.834,829.7
531.971,832.0
532.107,855.8
532.244,865.8
532.38,838.0
532.516,831.6
532.653,830.6
532.789,831.6
532.925,830.3
533.062,830.1
533.198,829.8
533.334,829.0
533.471,832.0
533.607,839.7
533.743,907.3
533.879,1250.6
534.016,1828.7
534.152,2111.2
534.288,2097.6
534.424,2012.1
534.561,1965.6
534.697,1916.4
534.833,1861.4
534.969,1774.5
535.106,1717.6
535.242,1677.8
535.378,1650.7
535.514,1610.2
535.65,1597.8
535.786,1562.6
535.923,1538.8
536.059,1516.8
536.195,1495.5
536.331,1475.5
536.467,1462.0
536.603,1447.2
536.739,1441.0
536.876,1449.5
537.012,1440.7
537.148,1440.3
537.284,1438.0
537.42,1432.7
537.556,1427.5
537.692,1425.3
537.828,1427.1
537.964,1427.5
538.1,1428.9
538.236,1441.8
538.372,1441.7
538.508,1437.5
538.644,1445.9
538.78,1443.2
538.916,1443.1
539.052,1453.7
539.188,1437.9
539.324,1455.4
539.46,1461.7
539.596,1471.1
539.732,1481.7
539.868,1480.9
540.004,1484.1
540.14,1498.1
540.275,1500.2
540.411,1475.4
540.547,1467.4
540.683,1467.9
540.819,1462.9
540.955,1461.7
541.091,1466.0
541.227,1463.5
541.362,1466.7
541.498,1465.4
541.634,1470.8
541.77,1471.9
541.906,1474.0
542.041,1476.9
542.177,1471.2
542.313,1474.8
542.449,1481.7
542.585,1487.1
542.72,1490.8
542.856,1487.0
542.992,1496.7
543.128,1501.6
543.263,1495.8
543.399,1504.7
543.535,1494.8
543.67,1501.4
543.806,1505.2
543.942,1512.3
544.078,1520.4
544.213,1518.7
544.349,1518.6
544.485,1514.4
544.62,1524.3
544.756,1527.8
544.892,1514.3
545.027,1530.8
545.163,1531.0
545.298,1528.2
545.434,1538.5
545.57,1537.7
545.705,1537.9
545.841,1535.2
545.976,1533.8
546.112,1546.9
546.248,1551.0
546.383,1554.2
546.519,1553.3
546.654,1554.0
546.79,1555.4
546.925,1560.8
547.061,1566.3
547.196,1559.1
547.332,1556.6
547.467,1563.5
547.603,1560.0
547.738,1562.2
547.874,1577.9
548.009,1574.8
548.145,1561.8
548.28,1568.7
548.416,1577.1
548.551,1581.7
548.686,1579.7
548.822,1592.2
548.957,1597.1
549.093,1593.7
549.228,1596.5
549.363,1593.8
549.499,1590.5
549.634,1607.2
549.77,1601.7
549.905,1600.9
550.04,1596.8
550.176,1607.3
550.311,1609.0
550.446,1634.9
550.582,1703.6
550.717,1832.8
550.852,1746.2
550.988,1641.6
551.123,1619.4
551.258,1612.8
551.394,1629.7
551.529,1630.8
551.664,1629.7
551.799,1637.7
551.935,1629.4
552.07,1644.6
552.205,1652.9
552.34,1638.1
552.476,1642.1
552.611,1642.9
552.746,1689.6
552.881,1711.3
553.016,1693.5
553.152,1675.4
553.287,1660.5
553.422,1647.2
553.557,1653.4
553.692,1667.6
553.827,1668.1
553.963,1673.3
554.098,1662.9
554.233,1658.8
554.368,1678.8
554.503,1682.1
554.638,1665.1
554.773,1696.0
554.908,1678.8
555.043,1681.5
555.179,1682.5
555.314,1699.1
555.449,1706.8
555.584,1733.8
555.719,1751.5
555.854,1733.3
555.989,1727.3
556.124,1739.1
556.259,1742.0
556.394,1743.3
556.529,1749.2
556.664,1763.0
556.799,1770.9
556.934,1773.6
557.069,1777.1
557.204,1808.6
557.339,1850.6
557.474,1941.3
557.609,2026.2
557.744,2020.9
557.879,1920.5
558.014,1818.4
558.149,1793.1
558.284,1795.2
558.419,1801.7
558.553,1793.0
558.688,1792.2
558.823,1786.0
558.958,1771.9
559.093,1771.1
559.228,1766.4
559.363,1748.0
559.498,1756.4
559.632,1749.6
559.767,1759.5
559.902,1772.0
560.037,1771.9
560.172,1769.5
560.307,1776.2
560.441,1773.8
560.576,1783.1
560.711,1781.0
560.846,1777.6
560.981,1787.1
561.115,1786.1
561.25,1782.7
561.385,1793.7
561.52,1785.0
561.654,1809.0
561.789,1819.7
561.924,1827.7
562.059,1845.7
562.193,1845.0
562.328,1836.8
562.463,1814.6
562.598,1832.8
562.732,1827.8
562.867,1837.8
563.002,1847.2
563.136,1843.3
563.271,1847.6
563.406,1843.1
563.54,1857.3
563.675,1855.0
563.81,1868.8
563.944,1860.2
564.079,1862.1
564.213,1866.3
564.348,1882.3
564.483,1906.9
564.617,1902.2
564.752,1937.4
564.887,1956.8
565.021,1998.4
565.156,2040.8
565.29,2023.6
565.425,1999.1
565.559,2009.2
565.694,2019.5
565.828,2042.4
565.963,2019.4
566.098,2016.2
566.232,1971.7
566.367,1964.0
566.501,1927.7
566.636,1915.9
566.77,1912.1
566.905,1910.0
567.039,1911.5
567.174,1902.1
567.308,1910.8
567.443,1930.2
567.577,1951.2
567.711,1986.4
567.846,1983.5
567.98,1977.7
568.115,1958.8
568.249,1937.6
568.384,1940.1
568.518,1950.4
568.652,1957.0
568.787,1933.3
568.921,1941.1
569.056,1959.4
569.19,1951.5
569.324,1960.9
569.459,1962.6
569.593,1972.5
569.727,1979.2
569.862,1971.1
569.996,1987.5
570.131,1996.7
570.265,2010.0
570.399,2026.7
570.534,2052.4
570.668,2076.0
570.802,2134.9
570.936,2173.8
571.071,2241.7
571.205,2319.0
571.339,2367.0
571.474,2372.3
571.608,2313.6
571.742,2233.7
571.876,2168.3
572.011,2153.3
572.145,2120.3
572.279,2088.2
572.413,2068.7
572.548,2051.3
572.682,2033.5
572.816,2038.0
572.95,2018.9
573.084,2041.1
573.219,2038.8
573.353,2033.9
573.487,2043.3
573.621,2052.8
573.755,2056.0
573.889,2054.6
574.024,2071.3
574.158,2085.7
574.292,2058.1
574.426,2075.3
574.56,2064.9
574.694,2058.2
574.828,2076.4
574.963,2081.1
575.097,2085.4
575.231,2093.3
575.365,2134.0
575.499,2140.6
575.633,2142.9
575.767,2109.8
575.901,2098.2
576.035,2097.2
576.169,2101.0
576.303,2112.7
576.437,2126.2
576.571,2125.9
576.706,2129.3
576.84,2132.5
576.974,2148.3
577.108,2136.2
577.242,2135.0
577.376,2132.9
577.51,2124.7
577.644,2125.6
577.778,2109.4
577.912,2105.9
578.046,2128.6
578.179,2106.3
578.313,2124.4
578.447,2110.9
578.581,2119.5
578.715,2128.9
578.849,2120.3
578.983,2135.5
579.117,2128.2
579.251,2124.5
579.385,2148.0
579.519,2143.6
579.653,2142.5
579.787,2131.6
579.921,2144.6
580.054,2138.0
580.188,2148.9
580.322,2141.9
580.456,2164.2
580.59,2166.9
580.724,2156.1
580.858,2168.9
580.991,2185.5
581.125,2188.8
581.259,2186.1
581.393,2210.1
581.527,2241.9
581.661,2302.0
581.794,2410.8
581.928,2707.1
582.062,3253.2
582.196,3807.5
582.33,3510.3
582.463,2747.4
582.597,2380.2
582.731,2286.2
582.865,2237.0
582.998,2231.3
583.132,2222.1
583.266,2223.7
583.4,2204.5
583.533,2224.2
583.667,2214.1
583.801,2211.8
583.935,2228.5
584.068,2206.6
584.202,2212.1
584.336,2237.6
584.469,2231.5
584.603,2231.7
584.737,2233.2
584.87,2240.3
585.004,2248.6
585.138,2273.7
585.271,2288.6
585.405,2342.3
585.539,2451.5
585.672,2641.1
585.806,2833.9
585.94,2972.5
586.073,3050.0
586.207,2959.4
586.34,2835.4
586.474,2697.9
586.608,2565.7
586.741,2432.8
586.875,2382.1
587.008,2329.9
587.142,2314.1
587.276,2309.1
587.409,2296.1
587.543,2303.2
587.676,2292.6
587.81,2292.9
587.943,2282.8
588.077,2292.1
588.21,2271.9
588.344,2253.4
588.478,2252.7
588.611,2271.1
588.745,2275.6
588.878,2269.4
589.012,2257.0
589.145,2263.4
589.279,2265.8
589.412,2268.0
589.546,2258.9
589.679,2268.8
589.812,2285.6
589.946,2273.5
590.079,2275.1
590.213,2261.0
590.346,2280.5
590.48,2277.6
590.613,2280.6
590.747,2280.7
590.88,2281.8
591.013,2300.4
591.147,2277.3
591.28,2294.8
591.414,2292.1
591.547,2285.0
591.68,2273.4
591.814,2294.0
591.947,2286.1
592.081,2274.2
592.214,2296.3
592.347,2299.3
592.481,2293.8
592.614,2289.6
592.747,2289.1
592.881,2291.3
593.014,2314.1
593.147,2279.3
593.281,2302.5
593.414,2302.1
593.547,2288.4
593.681,2291.6
593.814,2298.1
593.947,2294.4
594.081,2299.7
594.214,2298.6
594.347,2307.7
594.48,2316.8
594.614,2311.5
594.747,2328.3
594.88,2316.2
595.014,2316.2
595.147,2319.0
595.28,2318.8
595.413,2339.6
595.547,2340.8
595.68,2338.1
595.813,2346.6
595.946,2327.0
596.079,2352.2
596.213,2327.5
596.346,2338.7
596.479,2346.0
596.612,2335.3
596.745,2339.4
596.879,2353.2
597.012,2351.1
597.145,2355.4
597.278,2349.6
597.411,2353.3
597.545,2345.0
597.678,2351.0
597.811,2367.6
597.944,2364.5
598.077,2371.1
598.21,2375.4
598.343,2386.8
598.476,2377.9
598.61,2394.2
598.743,2388.5
598.876,2386.1
599.009,2393.2
599.142,2397.9
599.275,2396.5
599.408,2399.5
599.541,2395.4
599.674,2398.4
599.807,2389.9
599.941,2386.4
600.074,2387.0
600.207,2389.4
600.34,2395.0
600.473,2393.2
600.606,2380.2
600.739,2393.0
600.872,2398.9
601.005,2392.5
601.138,2390.0
601.271,2383.0
601.404,2394.2
601.537,2383.0
601.67,2394.7
601.803,2395.8
601.936,2399.2
602.069,2375.2
602.202,2389.2
602.335,2406.2
602.468,2408.9
602.601,2410.3
602.734,2423.9
602.867,2417.2
603.0,2424.2
603.133,2420.9
603.266,2421.0
603.399,2415.2
603.532,2433.3
603.664,2422.2
603.797,2431.2
603.93,2433.8
604.063,2430.5
604.196,2447.9
604.329,2450.6
604.462,2432.8
604.595,2425.2
604.728,2427.9
604.861,2434.9
604.994,2415.6
605.126,2422.0
605.259,2427.4
605.392,2416.8
605.525,2421.5
605.658,2410.0
605.791,2417.8
605.924,2409.3
606.056,2418.3
606.189,2427.3
606.322,2420.4
606.455,2415.6
606.588,2415.7
606.721,2412.3
606.853,2434.0
606.986,2430.5
607.119,2438.9
607.252,2445.0
607.385,2445.3
607.517,2465.0
607.65,2458.4
607.783,2462.7
607.916,2479.8
608.049,2467.9
608.181,2481.1
608.314,2474.0
608.447,2490.0
608.58,2484.8
608.712,2499.7
608.845,2503.4
608.978,2497.7
609.111,2507.8
609.243,2512.6
609.376,2492.0
609.509,2506.5
609.641,2504.2
609.774,2500.1
609.907,2511.2
610.04,2506.1
610.172,2520.2
610.305,2517.6
610.438,2517.3
610.57,2526.2
610.703,2531.1
610.836,2527.1
610.968,2537.3
611.101,2538.6
611.234,2544.9
611.366,2532.4
611.499,2562.6
611.632,2552.0
611.764,2557.9
611.897,2566.4
612.03,2570.8
612.162,2580.2
612.295,2589.0
612.428,2615.8
612.56,2621.9
612.693,2625.7
612.825,2634.0
612.958,2634.7
613.091,2647.7
613.223,2654.2
613.356,2657.8
613.488,2667.3
613.621,2659.3
613.754,2674.4
613.886,2674.0
614.019,2688.8
614.151,2700.9
614.284,2718.9
614.416,2702.9
614.549,2698.0
614.681,2706.4
614.814,2718.3
614.947,2714.7
615.079,2719.2
615.212,2712.2
615.344,2727.4
615.477,2721.6
615.609,2734.7
615.742,2730.8
615.874,2749.8
616.007,2748.7
616.139,2746.0
616.272,2760.4
616.404,2757.3
616.537,2769.0
616.669,2785.2
616.802,2777.7
616.934,2778.2
617.067,2775.8
617.199,2808.2
617.332,2824.6
617.464,2814.2
617.596,2826.5
617.729,2829.6
617.861,2836.2
617.994,2839.9
618.126,2861.6
618.259,2851.8
618.391,2867.9
618.524,2881.5
618.656,2876.0
618.788,2888.7
618.921,2898.3
619.053,2880.2
619.186,2882.0
619.318,2890.1
619.45,2897.1
619.583,2904.6
619.715,2914.6
619.848,2904.5
619.98,2917.3
620.112,2906.7
620.245,2920.7
620.377,2916.9
620.509,2932.3
620.642,2916.3
620.774,2940.2
620.907,2936.8
621.039,2936.9
621.171,2926.7
621.304,2946.9
621.436,2967.9
621.568,2955.5
621.701,2971.1
621.833,2983.8
621.965,2992.1
622.097,2981.2
622.23,2997.5
622.362,3032.9
622.494,3018.7
622.627,3044.9
622.759,3037.5
622.891,3031.0
623.024,3050.4
623.156,3068.6
623.288,3072.3
623.42,3060.7
623.553,3075.0
623.685,3077.8
623.817,3088.4
623.949,3113.0
624.082,3119.9
624.214,3117.6
624.346,3128.3
624.479,3126.4
624.611,3136.7
624.743,3162.4
624.875,3155.5
625.007,3167.0
625.14,3174.7
625.272,3196.3
625.404,3184.5
625.536,3175.0
625.669,3183.2
625.801,3185.4
625.933,3201.5
626.065,3221.4
626.197,3216.6
626.33,3205.4
626.462,3205.8
626.594,3230.1
626.726,3225.9
626.858,3257.9
626.99,3251.9
627.123,3245.4
627.255,3250.7
627.387,3260.7
627.519,3246.8
627.651,3276.1
627.783,3294.6
627.916,3275.0
628.048,3294.6
628.18,3309.3
628.312,3330.4
628.444,3317.7
628.576,3337.7
628.708,3339.2
628.84,3342.0
628.973,3375.2
629.105,3382.9
629.237,3393.1
629.369,3405.8
629.501,3405.2
629.633,3424.8
629.765,3444.6
629.897,3426.9
630.029,3445.4
630.161,3446.4
630.294,3448.0
630.426,3456.2
630.558,3468.2
630.69,3458.4
630.822,3477.2
630.954,3493.7
631.086,3528.7
631.218,3565.3
631.35,3576.0
631.482,3622.8
631.614,3656.2
631.746,3673.3
631.878,3691.1
632.01,3676.9
632.142,3680.4
632.274,3650.8
632.406,3644.1
632.538,3641.6
632.67,3653.4
632.802,3615.9
632.934,3608.3
633.066,3615.3
633.198,3657.8
633.33,3648.8
633.462,3643.0
633.594,3624.6
633.726,3661.0
633.858,3631.8
633.99,3633.3
634.122,3624.0
634.254,3622.8
634.386,3642.6
634.518,3620.5
634.65,3636.7
634.782,3614.9
634.914,3620.4
635.046,3641.8
635.178,3660.4
635.31,3670.0
635.442,3685.0
635.574,3703.4
635.706,3707.4
635.838,3763.0
635.97,3823.3
636.102,3841.2
636.234,3907.7
636.365,3948.9
636.497,4008.4
636.629,4072.3
636.761,4059.1
636.893,3978.0
637.025,3896.5
637.157,3848.7
637.289,3820.1
637.421,3805.8
637.553,3798.8
637.685,3814.2
637.816,3806.9
637.948,3807.5
638.08,3805.1
638.212,3806.2
638.344,3799.2
638.476,3796.0
638.608,3817.5
638.74,3813.3
638.871,3824.0
639.003,3831.3
639.135,3845.6
639.267,3852.6
639.399,3860.3
639.531,3845.9
639.662,3839.0
639.794,3862.1
639.926,3860.7
640.058,3854.5
640.19,3862.9
640.322,3875.4
640.453,3889.4
640.585,3897.1
640.717,3902.1
640.849,3919.5
640.981,3891.3
641.113,3911.8
641.244,3907.9
641.376,3940.9
641.508,3948.8
641.64,3961.8
641.772,3943.7
641.903,3956.4
642.035,3975.2
642.167,3938.9
642.299,3965.5
642.43,3967.5
642.562,3990.0
642.694,3966.4
642.826,3955.8
642.958,3972.7
643.089,3953.6
643.221,3945.4
643.353,3959.5
643.485,3938.6
643.616,3943.0
643.748,3972.6
643.88,3938.4
644.012,3930.6
644.143,3953.7
644.275,3946.6
644.407,3952.6
644.538,3934.9
644.67,3948.1
644.802,3960.1
644.934,3950.9
645.065,3945.5
645.197,3976.9
645.329,3960.6
645.461,3964.5
645.592,3961.4
645.724,3977.0
645.856,4006.9
645.987,3980.5
646.119,3993.1
646.251,4005.1
646.382,4002.3
646.514,4007.2
646.646,3998.9
646.777,4030.9
646.909,4031.4
647.041,4039.4
647.172,4055.9
647.304,4060.2
647.436,4056.0
647.567,4061.8
647.699,4053.0
647.831,4068.4
647.962,4050.4
648.094,4056.5
648.226,4045.3
648.357,4053.6
648.489,4063.7
648.621,4044.2
648.752,4051.0
648.884,4060.5
649.016,4077.1
649.147,4064.0
649.279,4066.8
649.411,4079.9
649.542,4092.3
649.674,4041.4
649.805,4090.2
649.937,4056.6
650.069,4069.1
650.2,4038.7
650.332,4077.4
650.463,4053.2
650.595,4061.8
650.727,4076.8
650.858,4075.2
650.99,4062.1
651.121,4073.8
651.253,4073.3
651.385,4096.9
651.516,4067.7
651.648,4103.4
651.779,4106.7
651.911,4116.6
652.043,4094.6
652.174,4097.3
652.306,4106.8
652.437,4121.8
652.569,4103.3
652.7,4121.4
652.832,4134.8
652.963,4149.3
653.095,4113.7
653.227,4124.4
653.358,4166.7
653.49,4128.7
653.621,4158.0
653.753,4168.1
653.884,4158.1
654.016,4151.4
654.147,4157.5
654.279,4172.2
654.41,4144.8
654.542,4150.5
654.674,4146.2
654.805,4141.8
654.937,4146.5
655.068,4161.5
655.2,4144.2
655.331,4153.2
655.463,4178.5
655.594,4195.0
655.726,4166.1
655.857,4172.4
655.989,4186.5
656.12,4165.9
656.252,4163.5
656.383,4175.9
656.515,4155.3
656.646,4162.9
656.778,4190.2
656.909,4183.3
657.041,4190.6
657.172,4197.5
657.304,4170.6
657.435,4186.5
657.567,4218.8
657.698,4194.6
657.829,4204.0
657.961,4203.2
658.092,4197.4
658.224,4217.7
658.355,4223.6
658.487,4207.2
658.618,4204.4
658.75,4225.7
658.881,4237.5
659.013,4218.1
659.144,4238.6
659.275,4257.7
659.407,4239.0
659.538,4238.0
659.67,4225.9
659.801,4217.1
659.933,4247.2
660.064,4245.6
660.196,4230.0
660.327,4207.6
660.458,4215.4
660.59,4235.7
660.721,4220.0
660.853,4230.5
660.984,4193.1
661.116,4197.6
661.247,4227.7
661.378,4205.3
661.51,4205.3
661.641,4182.0
661.773,4188.4
661.904,4207.4
662.035,4187.6
662.167,4183.0
662.298,4170.9
662.43,4156.2
662.561,4193.8
662.692,4210.9
662.824,4204.0
662.955,4172.9
663.087,4180.8
