cm-1,A
4000.0,0.0003475746339209884
3999.0,0.0003475746339209884
3998.0,0.00030411258916074324
3997.0,0.00030411258916074324
3996.0,0.00030411258916074324
3995.0,0.00030411258916074324
3994.0,0.00021720154586435392
3993.0,0.0001303078917322953
3992.0,0.0
3991.0,-8.685021164911433e-05
3990.0,-4.3427276862573194e-05
3989.0,4.343161980746579e-05
3988.0,0.0001303078917322953
3987.0,0.00017375254558760211
3986.0,0.00021720154586435392
3985.0,0.00021720154586435392
3984.0,0.00026065489343207737
3983.0,0.0003475746339209884
3982.0,0.0003910410285830057
3981.0,0.00043451177401765406
3980.0,0.0003910410285830057
3979.0,0.00030411258916074324
3978.0,0.00021720154586435392
3977.0,0.0001303078917322953
3976.0,0.0001303078917322953
3975.0,0.00017375254558760211
3974.0,0.00017375254558760211
3973.0,0.00017375254558760211
3972.0,0.00017375254558760211
3971.0,0.00017375254558760211
3970.0,0.00017375254558760211
3969.0,0.00017375254558760211
3968.0,0.00017375254558760211
3967.0,0.00017375254558760211
3966.0,0.0001303078917322953
3965.0,8.686758342868472e-05
3964.0,4.343161980746579e-05
3963.0,8.686758342868472e-05
3962.0,0.00017375254558760211
3961.0,0.00021720154586435392
3960.0,0.00026065489343207737
3959.0,0.00021720154586435392
3958.0,0.00017375254558760211
3957.0,0.0001303078917322953
3956.0,8.686758342868472e-05
3955.0,4.343161980746579e-05
3954.0,0.0
3953.0,-0.00013026880522692963
3952.0,-0.00017368305846510168
3951.0,-0.00021709297223004853
3950.0,-0.00013026880522692963
3949.0,-4.3427276862573194e-05
3948.0,8.686758342868472e-05
3947.0,0.0001303078917322953
3946.0,0.0001303078917322953
3945.0,4.343161980746579e-05
3944.0,-4.3427276862573194e-05
3943.0,-0.00017368305846510168
3942.0,-0.00021709297223004853
3941.0,-0.00021709297223004853
3940.0,-0.00013026880522692963
3939.0,-4.3427276862573194e-05
3938.0,4.343161980746579e-05
3937.0,4.343161980746579e-05
3936.0,0.0
3935.0,-4.3427276862573194e-05
3934.0,-0.00013026880522692963
3933.0,-0.00013026880522692963
3932.0,-0.00013026880522692963
3931.0,-8.685021164911433e-05
3930.0,-4.3427276862573194e-05
3929.0,4.343161980746579e-05
3928.0,0.0001303078917322953
3927.0,0.00017375254558760211
3926.0,0.00017375254558760211
3925.0,0.0001303078917322953
3924.0,8.686758342868472e-05
3923.0,0.0
3922.0,-0.00013026880522692963
3921.0,-0.00030389978481260016
3920.0,-0.0003906892499099257
3919.0,-0.0003906892499099257
3918.0,-0.00030389978481260016
3917.0,-0.00021709297223004853
3916.0,-0.00013026880522692963
3915.0,-0.00013026880522692963
3914.0,-0.00013026880522692963
3913.0,-8.685021164911433e-05
3912.0,-4.3427276862573194e-05
3911.0,4.343161980746579e-05
3910.0,0.0001303078917322953
3909.0,8.686758342868472e-05
3908.0,-4.3427276862573194e-05
3907.0,-0.0003472966853634851
3906.0,-0.0006943158663546001
3905.0,-0.0008677215312267172
3904.0,-0.0009110621312231615
3903.0,-0.0008243766056055257
3902.0,-0.0007810273534953893
3901.0,-0.0007810273534953893
3900.0,-0.0007376737740329986
3899.0,-0.0006943158663546001
3898.0,-0.0006075870628903246
3897.0,-0.0005208409361854294
3896.0,-0.0004774613744551459
3895.0,-0.00043407747931878404
3894.0,-0.0003906892499099257
3893.0,-0.00030389978481260016
3892.0,-0.0002604985473904087
3891.0,-0.00030389978481260016
3890.0,-0.00043407747931878404
3889.0,-0.0005208409361854294
3888.0,-0.0005642161653756084
3887.0,-0.0005642161653756084
3886.0,-0.0004774613744551459
3885.0,-0.0004774613744551459
3884.0,-0.0006075870628903246
3883.0,-0.0006943158663546001
3882.0,-0.0007376737740329986
3881.0,-0.0006509536295951079
3880.0,-0.0004774613744551459
3879.0,-0.0003472966853634851
3878.0,-0.00030389978481260016
3877.0,-0.00030389978481260016
3876.0,-0.00030389978481260016
3875.0,-0.00030389978481260016
3874.0,-0.0003472966853634851
3873.0,-0.0005208409361854294
3872.0,-0.0006943158663546001
3871.0,-0.0008243766056055257
3870.0,-0.0008677215312267172
3869.0,-0.0009543984064577238
3868.0,-0.0010843812922201046
3867.0,-0.0011710149414008164
3866.0,-0.00121432528617893
3865.0,-0.0011710149414008164
3864.0,-0.0009977303577937136
3863.0,-0.0008243766056055257
3862.0,-0.0007376737740329986
3861.0,-0.0006943158663546001
3860.0,-0.0006509536295951079
3859.0,-0.0006943158663546001
3858.0,-0.0008677215312267172
3857.0,-0.001257631312230778
3856.0,-0.0019067040408846658
3855.0,-0.0025116312849080558
3854.0,-0.002684312989729598
3853.0,-0.002597980719908577
3852.0,-0.0023820749327607693
3851.0,-0.0020796263931210923
3850.0,-0.0016904542321527494
3849.0,-0.001257631312230778
3848.0,-0.0009110621312231615
3847.0,-0.0006509536295951079
3846.0,-0.0005208409361854294
3845.0,-0.0004774613744551459
3844.0,-0.0005208409361854294
3843.0,-0.0006075870628903246
3842.0,-0.0008243766056055257
3841.0,-0.001041057986093552
3840.0,-0.001257631312230778
3839.0,-0.0014308122463981832
3838.0,-0.0015606526425728795
3837.0,-0.0016039241497978196
3836.0,-0.0016039241497978196
3835.0,-0.001474096691732818
3834.0,-0.001257631312230778
3833.0,-0.0009110621312231615
3832.0,-0.0006075870628903246
3831.0,-0.0003906892499099257
3830.0,-0.0002604985473904087
3829.0,-0.00021709297223004853
3828.0,-0.00017368305846510168
3827.0,-0.00017368305846510168
3826.0,-0.00030389978481260016
3825.0,-0.0005642161653756084
3824.0,-0.0009543984064577238
3823.0,-0.001344230411601366
3822.0,-0.001474096691732818
3821.0,-0.0013875234866409514
3820.0,-0.0013009330204178937
3819.0,-0.0013009330204178937
3818.0,-0.001257631312230778
3817.0,-0.0010843812922201046
3816.0,-0.0008243766056055257
3815.0,-0.0005642161653756084
3814.0,-0.00043407747931878404
3813.0,-0.0003906892499099257
3812.0,-0.00030389978481260016
3811.0,-0.00030389978481260016
3810.0,-0.00030389978481260016
3809.0,-0.00030389978481260016
3808.0,-0.00030389978481260016
3807.0,-0.0002604985473904087
3806.0,-0.0003472966853634851
3805.0,-0.0005642161653756084
3804.0,-0.0009110621312231615
3803.0,-0.0011710149414008164
3802.0,-0.00121432528617893
3801.0,-0.001041057986093552
3800.0,-0.0009110621312231615
3799.0,-0.0008677215312267172
3798.0,-0.0007810273534953893
3797.0,-0.0005642161653756084
3796.0,-0.0002604985473904087
3795.0,0.0
3794.0,0.0001303078917322953
3793.0,0.00017375254558760211
3792.0,0.00026065489343207737
3791.0,0.00030411258916074324
3790.0,0.0003475746339209884
3789.0,0.00030411258916074324
3788.0,0.00017375254558760211
3787.0,4.343161980746579e-05
3786.0,-8.685021164911433e-05
3785.0,-0.00013026880522692963
3784.0,-0.00017368305846510168
3783.0,-0.00017368305846510168
3782.0,-0.00021709297223004853
3781.0,-0.00017368305846510168
3780.0,-8.685021164911433e-05
3779.0,0.0
3778.0,4.343161980746579e-05
3777.0,8.686758342868472e-05
3776.0,0.0001303078917322953
3775.0,0.00021720154586435392
3774.0,0.00030411258916074324
3773.0,0.00026065489343207737
3772.0,0.00021720154586435392
3771.0,0.00017375254558760211
3770.0,0.0001303078917322953
3769.0,4.343161980746579e-05
3768.0,-8.685021164911433e-05
3767.0,-0.00017368305846510168
3766.0,-0.00021709297223004853
3765.0,-0.00017368305846510168
3764.0,-0.00017368305846510168
3763.0,-0.00021709297223004853
3762.0,-0.00030389978481260016
3761.0,-0.00030389978481260016
3760.0,-0.00021709297223004853
3759.0,-8.685021164911433e-05
3758.0,-0.00013026880522692963
3757.0,-0.00030389978481260016
3756.0,-0.0005208409361854294
3755.0,-0.0007810273534953893
3754.0,-0.001041057986093552
3753.0,-0.0011710149414008164
3752.0,-0.0011710149414008164
3751.0,-0.0010843812922201046
3750.0,-0.001257631312230778
3749.0,-0.0015606526425728795
3748.0,-0.0018202170383281313
3747.0,-0.0019067040408846658
3746.0,-0.0019067040408846658
3745.0,-0.001776967077439462
3744.0,-0.0016904542321527494
3743.0,-0.001733712809000476
3742.0,-0.001733712809000476
3741.0,-0.0016471913460383014
3740.0,-0.0015173768235041685
3739.0,-0.0014308122463981832
3738.0,-0.0013875234866409514
3737.0,-0.0013875234866409514
3736.0,-0.0013875234866409514
3735.0,-0.0013009330204178937
3734.0,-0.001257631312230778
3733.0,-0.0011710149414008164
3732.0,-0.001041057986093552
3731.0,-0.0008243766056055257
3730.0,-0.0005642161653756084
3729.0,-0.00030389978481260016
3728.0,-8.685021164911433e-05
3727.0,8.686758342868472e-05
3726.0,0.00017375254558760211
3725.0,0.00017375254558760211
3724.0,8.686758342868472e-05
3723.0,-4.3427276862573194e-05
3722.0,-4.3427276862573194e-05
3721.0,0.0
3720.0,8.686758342868472e-05
3719.0,0.0001303078917322953
3718.0,0.00017375254558760211
3717.0,0.0001303078917322953
3716.0,0.0
3715.0,-0.0002604985473904087
3714.0,-0.0006509536295951079
3713.0,-0.0009543984064577238
3712.0,-0.0009977303577937136
3711.0,-0.0008243766056055257
3710.0,-0.0006509536295951079
3709.0,-0.0004774613744551459
3708.0,-0.0003472966853634851
3707.0,-0.00021709297223004853
3706.0,-4.3427276862573194e-05
3705.0,4.343161980746579e-05
3704.0,8.686758342868472e-05
3703.0,0.0
3702.0,-8.685021164911433e-05
3701.0,-8.685021164911433e-05
3700.0,0.0
3699.0,0.0001303078917322953
3698.0,0.00026065489343207737
3697.0,0.00043451177401765406
3696.0,0.0004779868710962365
3695.0,0.0003910410285830057
3694.0,0.00017375254558760211
3693.0,-0.00013026880522692963
3692.0,-0.0003906892499099257
3691.0,-0.00043407747931878404
3690.0,-0.0002604985473904087
3689.0,-4.3427276862573194e-05
3688.0,-8.685021164911433e-05
3687.0,-0.00021709297223004853
3686.0,-0.00030389978481260016
3685.0,-0.0002604985473904087
3684.0,-8.685021164911433e-05
3683.0,0.0001303078917322953
3682.0,0.00026065489343207737
3681.0,0.00026065489343207737
3680.0,0.0001303078917322953
3679.0,-8.685021164911433e-05
3678.0,-0.0002604985473904087
3677.0,-0.0003906892499099257
3676.0,-0.00043407747931878404
3675.0,-0.0006075870628903246
3674.0,-0.0009110621312231615
3673.0,-0.0011710149414008164
3672.0,-0.0013009330204178937
3671.0,-0.0010843812922201046
3670.0,-0.0006075870628903246
3669.0,-0.00017368305846510168
3668.0,0.0
3667.0,0.0001303078917322953
3666.0,0.00026065489343207737
3665.0,0.00043451177401765406
3664.0,0.0006519307932786322
3663.0,0.0008259444115150671
3662.0,0.000869458712629001
3661.0,0.0008259444115150671
3660.0,0.0006954276616513155
3659.0,0.0005649501236701937
3658.0,0.0005649501236701937
3657.0,0.0006519307932786322
3656.0,0.0007389288868995258
3655.0,0.0006084382809090627
3654.0,0.0003475746339209884
3653.0,0.0
3652.0,-0.00030389978481260016
3651.0,-0.00043407747931878404
3650.0,-0.0003472966853634851
3649.0,-0.0002604985473904087
3648.0,-0.0003472966853634851
3647.0,-0.0003906892499099257
3646.0,-0.0003472966853634851
3645.0,-0.00017368305846510168
3644.0,8.686758342868472e-05
3643.0,0.00043451177401765406
3642.0,0.0007389288868995258
3641.0,0.0009565003968372565
3640.0,0.0010435595295137379
3639.0,0.0010870956412141197
3638.0,0.0010870956412141197
3637.0,0.0011306361176557367
3636.0,0.0011306361176557367
3635.0,0.0011306361176557367
3634.0,0.0010435595295137379
3633.0,0.000869458712629001
3632.0,0.0006519307932786322
3631.0,0.0003910410285830057
3630.0,0.0003910410285830057
3629.0,0.0005649501236701937
3628.0,0.0006954276616513155
3627.0,0.0006519307932786322
3626.0,0.0006084382809090627
3625.0,0.0006519307932786322
3624.0,0.0006954276616513155
3623.0,0.0006954276616513155
3622.0,0.0006519307932786322
3621.0,0.0006084382809090627
3620.0,0.0006954276616513155
3619.0,0.000869458712629001
3618.0,0.0010000277816797354
3617.0,0.0010000277816797354
3616.0,0.0010000277816797354
3615.0,0.0009565003968372565
3614.0,0.0010000277816797354
3613.0,0.0010000277816797354
3612.0,0.0009565003968372565
3611.0,0.0009129773741116676
3610.0,0.0009129773741116676
3609.0,0.0010435595295137379
3608.0,0.001348404001626502
3607.0,0.001609869681952425
3606.0,0.0017406615763013722
3605.0,0.0017842676290416026
3604.0,0.0018278780605593958
3603.0,0.0018714928717336043
3602.0,0.0019587356365717845
3601.0,0.0019587356365717845
3600.0,0.0019587356365717845
3599.0,0.0019587356365717845
3598.0,0.0019587356365717845
3597.0,0.0020459959305969555
3596.0,0.0022642234021015284
3595.0,0.002482560585275184
3594.0,0.002569926202528716
3593.0,0.0025262411970197185
3592.0,0.002395212539545666
3591.0,0.0022205691343961664
3590.0,0.0021332737608552588
3589.0,0.0021332737608552588
3588.0,0.0022205691343961664
3587.0,0.0022205691343961664
3586.0,0.0021332737608552588
3585.0,0.002089632653256679
3584.0,0.0021769192542746563
3583.0,0.002395212539545666
3582.0,0.0026573093983774942
3581.0,0.0028758443407954637
3580.0,0.0030070181092942683
3579.0,0.003050751504618754
3578.0,0.0030944893043338695
3577.0,0.0031382315093266833
3576.0,0.0031819781204844855
3575.0,0.0032257291386954545
3574.0,0.0031819781204844855
3573.0,0.0030070181092942683
3572.0,0.0027884171674950053
3571.0,0.002482560585275184
3570.0,0.0021769192542746563
3569.0,0.0020459959305969555
3568.0,0.0021769192542746563
3567.0,0.002482560585275184
3566.0,0.0028321285541661467
3565.0,0.0030944893043338695
3564.0,0.0032694845648473247
3563.0,0.0034445503666347133
3562.0,0.0035321097382827737
3561.0,0.0036634819042162814
3560.0,0.003707281458678491
3559.0,0.003707281458678491
3558.0,0.0036634819042162814
3557.0,0.0035758960449088217
3556.0,0.0034445503666347133
3555.0,0.0034007772998332353
3554.0,0.0033570086445275926
3553.0,0.0033570086445275926
3552.0,0.0034007772998332353
3551.0,0.0034007772998332353
3550.0,0.0034007772998332353
3549.0,0.0033570086445275926
3548.0,0.0034007772998332353
3547.0,0.0034445503666347133
3546.0,0.003619686766589858
3545.0,0.003794893821675638
3544.0,0.00401400208620073
3543.0,0.004145520125434121
3542.0,0.004233220950025984
3541.0,0.004189368323957332
3540.0,0.004145520125434121
3539.0,0.004189368323957332
3538.0,0.004233220950025984
3537.0,0.004320939488377862
3536.0,0.004408675747646695
3535.0,0.004452550524862486
3534.0,0.0044964297349936455
3533.0,0.004540313378935901
3532.0,0.00458420145758498
3531.0,0.004628093971837721
3530.0,0.004671990922590297
3529.0,0.004759798137184523
3528.0,0.00489154225525934
3527.0,0.004979393875242044
3526.0,0.004979393875242044
3525.0,0.004979393875242044
3524.0,0.004979393875242044
3523.0,0.005023326350308999
3522.0,0.004979393875242044
3521.0,0.004935465843858511
3520.0,0.004935465843858511
3519.0,0.004935465843858511
3518.0,0.004935465843858511
3517.0,0.004979393875242044
3516.0,0.005023326350308999
3515.0,0.005067263269958211
3514.0,0.005111204635089406
3513.0,0.005155150446602086
3512.0,0.005155150446602086
3511.0,0.005155150446602086
3510.0,0.005199100705396198
3509.0,0.005330978174470591
3508.0,0.00541891874010525
3507.0,0.005462895701502157
3506.0,0.005462895701502157
3505.0,0.00541891874010525
3504.0,0.00537494623139545
3503.0,0.00537494623139545
3502.0,0.00537494623139545
3501.0,0.00537494623139545
3500.0,0.005330978174470591
3499.0,0.005330978174470591
3498.0,0.00537494623139545
3497.0,0.005462895701502157
3496.0,0.005506877116487674
3495.0,0.005594853310833647
3494.0,0.005682847330363394
3493.0,0.00577085918230158
3492.0,0.005858888873877532
3491.0,0.005946936412324799
3490.0,0.005990966876386672
3489.0,0.006035001804881146
3488.0,0.005990966876386672
3487.0,0.005946936412324799
3486.0,0.00590291041179003
3485.0,0.005858888873877532
3484.0,0.005858888873877532
3483.0,0.005946936412324799
3482.0,0.00612308505878878
3481.0,0.00625524344553785
3480.0,0.006343371384537999
3479.0,0.006387442061109638
3478.0,0.006343371384537999
3477.0,0.006387442061109638
3476.0,0.006431517210272464
3475.0,0.006475596832934416
3474.0,0.006519680930003435
3473.0,0.00656376950238835
3472.0,0.00656376950238835
3471.0,0.006607862550997545
3470.0,0.006651960076740071
3469.0,0.006651960076740071
3468.0,0.006607862550997545
3467.0,0.00656376950238835
3466.0,0.006475596832934416
3465.0,0.006475596832934416
3464.0,0.006519680930003435
3463.0,0.006607862550997545
3462.0,0.006740168563263094
3461.0,0.006828394969235152
3460.0,0.006872514894289861
3459.0,0.006828394969235152
3458.0,0.006784279525863024
3457.0,0.006784279525863024
3456.0,0.006784279525863024
3455.0,0.006784279525863024
3454.0,0.006828394969235152
3453.0,0.006872514894289861
3452.0,0.006916639301937977
3451.0,0.00696076819309055
3450.0,0.006916639301937977
3449.0,0.006872514894289861
3448.0,0.006828394969235152
3447.0,0.006784279525863024
3446.0,0.006828394969235152
3445.0,0.006916639301937977
3444.0,0.007004901568658406
3443.0,0.007093181776687496
3442.0,0.007137328610972382
3441.0,0.007137328610972382
3440.0,0.007137328610972382
3439.0,0.007137328610972382
3438.0,0.007181479933320523
3437.0,0.007225635744644521
3436.0,0.007313960837872058
3435.0,0.007402303897961815
3434.0,0.0074464821678643656
3433.0,0.007490664932224611
3432.0,0.007534852191956709
3431.0,0.0075790439479759275
3430.0,0.00762324020119709
3429.0,0.007667440952535687
3428.0,0.00762324020119709
3427.0,0.007667440952535687
3426.0,0.007711646202907652
3425.0,0.007800070204414977
3424.0,0.007800070204414977
3423.0,0.007755855953228474
3422.0,0.007711646202907652
3421.0,0.007755855953228474
3420.0,0.007844288957383316
3419.0,0.007976972236149349
3418.0,0.008065450281052211
3417.0,0.008109696063975047
3416.0,0.008109696063975047
3415.0,0.008021209005416363
3414.0,0.007976972236149349
3413.0,0.007932739972333236
3412.0,0.007932739972333236
3411.0,0.007932739972333236
3410.0,0.007976972236149349
3409.0,0.008065450281052211
3408.0,0.008198201155356077
3407.0,0.008286724286910463
3406.0,0.008330992620051436
3405.0,0.008330992620051436
3404.0,0.008375265465994541
3403.0,0.008375265465994541
3402.0,0.008375265465994541
3401.0,0.008330992620051436
3400.0,0.008286724286910463
3399.0,0.008198201155356077
3398.0,0.008109696063975047
3397.0,0.008109696063975047
3396.0,0.008153946355103248
3395.0,0.008198201155356077
3394.0,0.008242460465651913
3393.0,0.008286724286910463
3392.0,0.008242460465651913
3391.0,0.008153946355103248
3390.0,0.008065450281052211
3389.0,0.008021209005416363
3388.0,0.008021209005416363
3387.0,0.007976972236149349
3386.0,0.008021209005416363
3385.0,0.008065450281052211
3384.0,0.008153946355103248
3383.0,0.008242460465651913
3382.0,0.008242460465651913
3381.0,0.008198201155356077
3380.0,0.008109696063975047
3379.0,0.008021209005416363
3378.0,0.007976972236149349
3377.0,0.008065450281052211
3376.0,0.008153946355103248
3375.0,0.008198201155356077
3374.0,0.008198201155356077
3373.0,0.008153946355103248
3372.0,0.008198201155356077
3371.0,0.008286724286910463
3370.0,0.008419542825660153
3369.0,0.00850811108984062
3368.0,0.008463824699968647
3367.0,0.008375265465994541
3366.0,0.008330992620051436
3365.0,0.008375265465994541
3364.0,0.008419542825660153
3363.0,0.008419542825660153
3362.0,0.008463824699968647
3361.0,0.008419542825660153
3360.0,0.008419542825660153
3359.0,0.008463824699968647
3358.0,0.008463824699968647
3357.0,0.008463824699968647
3356.0,0.00850811108984062
3355.0,0.008463824699968647
3354.0,0.008463824699968647
3353.0,0.008419542825660153
3352.0,0.008419542825660153
3351.0,0.008419542825660153
3350.0,0.008419542825660153
3349.0,0.008419542825660153
3348.0,0.008286724286910463
3347.0,0.008198201155356077
3346.0,0.008065450281052211
3345.0,0.008065450281052211
3344.0,0.008109696063975047
3343.0,0.008109696063975047
3342.0,0.008109696063975047
3341.0,0.008109696063975047
3340.0,0.008153946355103248
3339.0,0.008198201155356077
3338.0,0.008242460465651913
3337.0,0.008242460465651913
3336.0,0.008198201155356077
3335.0,0.008109696063975047
3334.0,0.008021209005416363
3333.0,0.007932739972333236
3332.0,0.007932739972333236
3331.0,0.007932739972333236
3330.0,0.007976972236149349
3329.0,0.008109696063975047
3328.0,0.008198201155356077
3327.0,0.008198201155356077
3326.0,0.008109696063975047
3325.0,0.007932739972333236
3324.0,0.007844288957383316
3323.0,0.007800070204414977
3322.0,0.007800070204414977
3321.0,0.007888512213050314
3320.0,0.007976972236149349
3319.0,0.008065450281052211
3318.0,0.008065450281052211
3317.0,0.008065450281052211
3316.0,0.007976972236149349
3315.0,0.007932739972333236
3314.0,0.007932739972333236
3313.0,0.008021209005416363
3312.0,0.008109696063975047
3311.0,0.008198201155356077
3310.0,0.008198201155356077
3309.0,0.008109696063975047
3308.0,0.008065450281052211
3307.0,0.008021209005416363
3306.0,0.008021209005416363
3305.0,0.007976972236149349
3304.0,0.007976972236149349
3303.0,0.007976972236149349
3302.0,0.007976972236149349
3301.0,0.007932739972333236
3300.0,0.007932739972333236
3299.0,0.007932739972333236
3298.0,0.007976972236149349
3297.0,0.007976972236149349
3296.0,0.007976972236149349
3295.0,0.007888512213050314
3294.0,0.007755855953228474
3293.0,0.00762324020119709
3292.0,0.0075790439479759275
3291.0,0.007534852191956709
3290.0,0.0075790439479759275
3289.0,0.0075790439479759275
3288.0,0.00762324020119709
3287.0,0.007667440952535687
3286.0,0.007711646202907652
3285.0,0.007755855953228474
3284.0,0.007800070204414977
3283.0,0.007755855953228474
3282.0,0.007711646202907652
3281.0,0.00762324020119709
3280.0,0.0075790439479759275
3279.0,0.007534852191956709
3278.0,0.007490664932224611
3277.0,0.0074464821678643656
3276.0,0.0074464821678643656
3275.0,0.007534852191956709
3274.0,0.0075790439479759275
3273.0,0.0075790439479759275
3272.0,0.0075790439479759275
3271.0,0.007490664932224611
3270.0,0.0074464821678643656
3269.0,0.007402303897961815
3268.0,0.007402303897961815
3267.0,0.007402303897961815
3266.0,0.007358130121602358
3265.0,0.007269796045857202
3264.0,0.007181479933320523
3263.0,0.007049039429553483
3262.0,0.007004901568658406
3261.0,0.00696076819309055
3260.0,0.006916639301937977
3259.0,0.006916639301937977
3258.0,0.00696076819309055
3257.0,0.00696076819309055
3256.0,0.00696076819309055
3255.0,0.007004901568658406
3254.0,0.007004901568658406
3253.0,0.007049039429553483
3252.0,0.007093181776687496
3251.0,0.007137328610972382
3250.0,0.007137328610972382
3249.0,0.007181479933320523
3248.0,0.007137328610972382
3247.0,0.007049039429553483
3246.0,0.00696076819309055
3245.0,0.006916639301937977
3244.0,0.006872514894289861
3243.0,0.006916639301937977
3242.0,0.006916639301937977
3241.0,0.00696076819309055
3240.0,0.00696076819309055
3239.0,0.006872514894289861
3238.0,0.006784279525863024
3237.0,0.006696062080525422
3236.0,0.006651960076740071
3235.0,0.006651960076740071
3234.0,0.006651960076740071
3233.0,0.006651960076740071
3232.0,0.006651960076740071
3231.0,0.006696062080525422
3230.0,0.006784279525863024
3229.0,0.006828394969235152
3228.0,0.006828394969235152
3227.0,0.006784279525863024
3226.0,0.006740168563263094
3225.0,0.006784279525863024
3224.0,0.006784279525863024
3223.0,0.006828394969235152
3222.0,0.006784279525863024
3221.0,0.006740168563263094
3220.0,0.006696062080525422
3219.0,0.006696062080525422
3218.0,0.006696062080525422
3217.0,0.006740168563263094
3216.0,0.006784279525863024
3215.0,0.006828394969235152
3214.0,0.006828394969235152
3213.0,0.006740168563263094
3212.0,0.00656376950238835
3211.0,0.006431517210272464
3210.0,0.006387442061109638
3209.0,0.006431517210272464
3208.0,0.006519680930003435
3207.0,0.006607862550997545
3206.0,0.006607862550997545
3205.0,0.00656376950238835
3204.0,0.00656376950238835
3203.0,0.00656376950238835
3202.0,0.006607862550997545
3201.0,0.006607862550997545
3200.0,0.00656376950238835
3199.0,0.006519680930003435
3198.0,0.006475596832934416
3197.0,0.006475596832934416
3196.0,0.006519680930003435
3195.0,0.006519680930003435
3194.0,0.006519680930003435
3193.0,0.006475596832934416
3192.0,0.006475596832934416
3191.0,0.006475596832934416
3190.0,0.006431517210272464
3189.0,0.006343371384537999
3188.0,0.00621118618129457
3187.0,0.00612308505878878
3186.0,0.00612308505878878
3185.0,0.006167133386013823
3184.0,0.00625524344553785
3183.0,0.00625524344553785
3182.0,0.00621118618129457
3181.0,0.006167133386013823
3180.0,0.00612308505878878
3179.0,0.00612308505878878
3178.0,0.006079041198713275
3177.0,0.005946936412324799
3176.0,0.00577085918230158
3175.0,0.005726851026829571
3174.0,0.00577085918230158
3173.0,0.005858888873877532
3172.0,0.005946936412324799
3171.0,0.00590291041179003
3170.0,0.00577085918230158
3169.0,0.005638848091999105
3168.0,0.005462895701502157
3167.0,0.00537494623139545
3166.0,0.00537494623139545
3165.0,0.00541891874010525
3164.0,0.00541891874010525
3163.0,0.005330978174470591
3162.0,0.0052870145684298375
3161.0,0.005330978174470591
3160.0,0.00537494623139545
3159.0,0.00541891874010525
3158.0,0.00541891874010525
3157.0,0.0052870145684298375
3156.0,0.005199100705396198
3155.0,0.005067263269958211
3154.0,0.005067263269958211
3153.0,0.005155150446602086
3152.0,0.005199100705396198
3151.0,0.005243055412371911
3150.0,0.005243055412371911
3149.0,0.005199100705396198
3148.0,0.005111204635089406
3147.0,0.005067263269958211
3146.0,0.004979393875242044
3145.0,0.004979393875242044
3144.0,0.004979393875242044
3143.0,0.004979393875242044
3142.0,0.00489154225525934
3141.0,0.004759798137184523
3140.0,0.004759798137184523
3139.0,0.004803708402820517
3138.0,0.00489154225525934
3137.0,0.00484762310854614
3136.0,0.004671990922590297
3135.0,0.0044964297349936455
3134.0,0.004320939488377862
3133.0,0.004233220950025984
3132.0,0.004277078004534696
3131.0,0.004320939488377862
3130.0,0.0043648054024501
3129.0,0.004408675747646695
3128.0,0.0043648054024501
3127.0,0.0043648054024501
3126.0,0.004277078004534696
3125.0,0.004189368323957332
3124.0,0.004145520125434121
3123.0,0.004101676353562844
3122.0,0.004101676353562844
3121.0,0.004101676353562844
3120.0,0.0040578370074493275
3119.0,0.003970171588923321
3118.0,0.0038825238627120395
3117.0,0.0038387066319929275
3116.0,0.0038825238627120395
3115.0,0.003926345514724705
3114.0,0.003970171588923321
3113.0,0.003926345514724705
3112.0,0.0038825238627120395
3111.0,0.0038825238627120395
3110.0,0.0038825238627120395
3109.0,0.003926345514724705
3108.0,0.0038825238627120395
3107.0,0.0038387066319929275
3106.0,0.0037510854308679953
3105.0,0.003707281458678491
3104.0,0.0036634819042162814
3103.0,0.0036634819042162814
3102.0,0.003707281458678491
3101.0,0.0037510854308679953
3100.0,0.003707281458678491
3099.0,0.0036634819042162814
3098.0,0.0035321097382827737
3097.0,0.003488327845821315
3096.0,0.0034007772998332353
3095.0,0.0033570086445275926
3094.0,0.0032694845648473247
3093.0,0.0031819781204844855
3092.0,0.0031819781204844855
3091.0,0.0031819781204844855
3090.0,0.0031382315093266833
3089.0,0.0031382315093266833
3088.0,0.0030944893043338695
3087.0,0.003050751504618754
3086.0,0.0030070181092942683
3085.0,0.0029632891174733444
3084.0,0.0028321285541661467
3083.0,0.0026573093983774942
3082.0,0.0025262411970197185
3081.0,0.0025262411970197185
3080.0,0.002569926202528716
3079.0,0.0026573093983774942
3078.0,0.0026573093983774942
3077.0,0.002613615602686581
3076.0,0.0025262411970197185
3075.0,0.0025262411970197185
3074.0,0.0025262411970197185
3073.0,0.002569926202528716
3072.0,0.002569926202528716
3071.0,0.0025262411970197185
3070.0,0.002482560585275184
3069.0,0.0024388843664115978
3068.0,0.0024388843664115978
3067.0,0.002395212539545666
3066.0,0.0023078820582733695
3065.0,0.0022205691343961664
3064.0,0.0021332737608552588
3063.0,0.0021332737608552588
3062.0,0.0021332737608552588
3061.0,0.0021332737608552588
3060.0,0.0021332737608552588
3059.0,0.002089632653256679
3058.0,0.0020459959305969555
3057.0,0.0020023635919956817
3056.0,0.0019587356365717845
3055.0,0.001915112063444413
3054.0,0.0018714928717336043
3053.0,0.0018714928717336043
3052.0,0.0018714928717336043
3051.0,0.001915112063444413
3050.0,0.0018714928717336043
3049.0,0.0018278780605593958
3048.0,0.0017842676290416026
3047.0,0.0017406615763013722
3046.0,0.0017406615763013722
3045.0,0.0016970599014589638
3044.0,0.0016534626036355249
3043.0,0.0015662811355310335
3042.0,0.0015226969634936083
3041.0,0.0014791171649619628
3040.0,0.0014791171649619628
3039.0,0.0014791171649619628
3038.0,0.0014791171649619628
3037.0,0.0014355417390583547
3036.0,0.0013919706849057079
3035.0,0.001304841688344327
3034.0,0.0012612837441823288
3033.0,0.0011741809597138886
3032.0,0.0011741809597138886
3031.0,0.0011741809597138886
3030.0,0.0012177301682640973
3029.0,0.0012177301682640973
3028.0,0.0012177301682640973
3027.0,0.0012177301682640973
3026.0,0.0012177301682640973
3025.0,0.0012177301682640973
3024.0,0.0012177301682640973
3023.0,0.0012177301682640973
3022.0,0.0011741809597138886
3021.0,0.0011306361176557367
3020.0,0.0011306361176557367
3019.0,0.0011741809597138886
3018.0,0.0012612837441823288
3017.0,0.0012612837441823288
3016.0,0.0012177301682640973
3015.0,0.0010870956412141197
3014.0,0.0010435595295137379
3013.0,0.0010000277816797354
3012.0,0.0010870956412141197
3011.0,0.0011306361176557367
3010.0,0.0012177301682640973
3009.0,0.0012612837441823288
3008.0,0.0012612837441823288
3007.0,0.001348404001626502
3006.0,0.0015226969634936083
3005.0,0.0016970599014589638
3004.0,0.0018278780605593958
3003.0,0.001915112063444413
3002.0,0.001915112063444413
3001.0,0.001915112063444413
3000.0,0.001915112063444413
2999.0,0.0020459959305969555
2998.0,0.0023078820582733695
2997.0,0.002613615602686581
2996.0,0.0028758443407954637
2995.0,0.0030944893043338695
2994.0,0.0033132443998284966
2993.0,0.0035321097382827737
2992.0,0.0038825238627120395
2991.0,0.004189368323957332
2990.0,0.004540313378935901
2989.0,0.004979393875242044
2988.0,0.005506877116487674
2987.0,0.00612308505878878
2986.0,0.006828394969235152
2985.0,0.0075790439479759275
2984.0,0.008330992620051436
2983.0,0.009128595198514056
2982.0,0.010105436281226954
2981.0,0.011218156546359825
2980.0,0.012512493866907004
2979.0,0.013990068146738865
2978.0,0.015697768020096703
2977.0,0.017638298366853045
2976.0,0.019814763052665052
2975.0,0.022322112326006227
2974.0,0.02512002699306959
2973.0,0.02826040911222183
2972.0,0.03179733185715028
2971.0,0.035740369803151095
2970.0,0.04010041213405646
2969.0,0.04484161307420642
2968.0,0.050073556332087765
2967.0,0.05561604235915585
2966.0,0.061380218497318895
2965.0,0.06712054217620067
2964.0,0.07262963696097646
2963.0,0.07763790321520991
2962.0,0.08196966321511989
2961.0,0.08549817717268593
2960.0,0.0881502035005799
2959.0,0.0900697402471693
2958.0,0.09167586072382083
2957.0,0.09323411045927221
2956.0,0.09506817260434741
2955.0,0.09739886933346864
2954.0,0.10017949757290379
2953.0,0.10319830233507843
2952.0,0.10596099919539115
2951.0,0.10796107965870849
2950.0,0.10857405715200596
2949.0,0.10729336219433439
2948.0,0.10397008760377302
2947.0,0.09886874864462802
2946.0,0.09248115389337075
2945.0,0.08549817717268593
2944.0,0.07862570458152551
2943.0,0.07237303755504598
2942.0,0.0671712330991534
2941.0,0.06318476880236723
2940.0,0.06048074738138154
2939.0,0.05898575629443026
2938.0,0.058538260652670315
2937.0,0.05918479134919874
2936.0,0.060730413661268745
2935.0,0.06313454102437754
2934.0,0.06620911585658007
2933.0,0.06986635415888243
2932.0,0.07406940213152868
2931.0,0.07862570458152551
2930.0,0.08349341288484435
2929.0,0.0884695376928375
2928.0,0.09334178232840018
2927.0,0.09799710864927058
2926.0,0.10237290870955862
2925.0,0.10651565378151395
2924.0,0.11058623595729111
2923.0,0.11475189221861393
2922.0,0.11895789180659433
2921.0,0.12303203256741524
2920.0,0.12667939818460128
2919.0,0.1295960947209729
2918.0,0.1312967977214634
2917.0,0.13159069668503998
2916.0,0.1305922506177981
2915.0,0.1284854412916181
2914.0,0.12575017722159698
2913.0,0.12262865413022594
2912.0,0.11958660012208333
2911.0,0.11679296664760996
2910.0,0.11429961987167014
2909.0,0.1120452961911984
2908.0,0.10997041383658313
2907.0,0.10784972209863586
2906.0,0.10557316203581202
2905.0,0.10303309806684524
2904.0,0.10023419805561384
2903.0,0.09729018703012282
2902.0,0.09425807260839858
2901.0,0.09113982698272349
2900.0,0.08799062441302175
2899.0,0.08502252755566908
2898.0,0.08223199755224364
2897.0,0.07966792846041071
2896.0,0.07732643214144574
2895.0,0.07525564752005143
2894.0,0.07350321072677968
2893.0,0.07206531825882068
2892.0,0.0709900145060387
2891.0,0.0702746216219956
2890.0,0.06976434723371505
2889.0,0.06950943469373039
2888.0,0.06945847013556561
2887.0,0.06966236426227002
2886.0,0.06996838504902692
2885.0,0.07042782092345012
2884.0,0.0710411591191702
2883.0,0.07196279359311708
2882.0,0.07309189829456408
2881.0,0.07443009045662374
2880.0,0.07572071393811841
2879.0,0.07675598136972361
2878.0,0.07737832847680104
2877.0,0.07753405470158659
2876.0,0.07727454200674
2875.0,0.07691148455760066
2874.0,0.07665234350217442
2873.0,0.07670415934449615
2872.0,0.0772226580712021
2871.0,0.07820951434181311
2870.0,0.07951143534170213
2869.0,0.08081727095749947
2868.0,0.08160266115629988
2867.0,0.08144546944972642
2866.0,0.07998108397108505
2865.0,0.07717078033335123
2864.0,0.07314329105030759
2863.0,0.068389593637038
2862.0,0.06333548699992453
2861.0,0.05843887976392925
2860.0,0.05413767551038262
2859.0,0.050463626623857394
2858.0,0.04754660357696672
2857.0,0.04527520902093718
2856.0,0.04363944632667782
2855.0,0.04248848854552012
2854.0,0.041914151478914974
2853.0,0.0417706858116178
2852.0,0.04210551278710151
2851.0,0.04287180232318688
2850.0,0.04411991377462465
2849.0,0.04585401117045196
2848.0,0.04807992647970649
2847.0,0.05085404758005607
2846.0,0.054186873412661596
2845.0,0.05804158346918653
2844.0,0.062331685600995
2843.0,0.06686717627326577
2842.0,0.0713481533463054
2841.0,0.07546228222451012
2840.0,0.07893810920972144
2839.0,0.08134070657817682
2838.0,0.08228448344050654
2837.0,0.08149786036382611
2836.0,0.07899019850296574
2835.0,0.07499749231902242
2834.0,0.07001940948448526
2833.0,0.06459351024765114
2832.0,0.05928434309333741
2831.0,0.05443294655761144
2830.0,0.05026854768429301
2829.0,0.04677202844014605
2828.0,0.0437835307566099
2827.0,0.04129280891271536
2826.0,0.03910132267333921
2825.0,0.037251946641359446
2824.0,0.035646070707806565
2823.0,0.03428102975577918
2822.0,0.033154576345083564
2821.0,0.03207779326948268
2820.0,0.031096969696171817
2819.0,0.030164906924202484
2818.0,0.02932775731028059
2817.0,0.02863136320857662
2816.0,0.02798240132598462
2815.0,0.02738066094037661
2814.0,0.02682594731702781
2813.0,0.026318081496016443
2812.0,0.025856900097785074
2811.0,0.02544225514642018
2810.0,0.025074013910237447
2809.0,0.024660115394541604
2808.0,0.024154774532432866
2807.0,0.02355831062115543
2806.0,0.02291687968414724
2805.0,0.02227639471115217
2804.0,0.02168250325324883
2803.0,0.0211806132671577
2802.0,0.020770406977844713
2801.0,0.020406104151069693
2800.0,0.02013307743509718
2799.0,0.019860222254245663
2798.0,0.019632973815224997
2797.0,0.019451260640229506
2796.0,0.019178833355664393
2795.0,0.018906576854070378
2794.0,0.018543833477873584
2793.0,0.018136109008649592
2792.0,0.017728766960431575
2791.0,0.017367005605150476
2790.0,0.017095882207371904
2789.0,0.016870075265299933
2788.0,0.016599261819461697
2787.0,0.01632861713980338
2786.0,0.016058141016111804
2785.0,0.015832872853011715
2784.0,0.015607721475734415
2783.0,0.01538268676325183
2782.0,0.015202742910707112
2781.0,0.015067833932588037
2780.0,0.014932966849499074
2779.0,0.014753209197138295
2778.0,0.014618439768003144
2777.0,0.014438812226654996
2776.0,0.014259258949925524
2775.0,0.014079779876432497
2774.0,0.013900374944870508
2773.0,0.013676222949234651
2772.0,0.013496984613259544
2771.0,0.013273040668781544
2770.0,0.013049212141483357
2769.0,0.012914970375878188
2768.0,0.012825498912458322
2767.0,0.012780770091995297
2766.0,0.012780770091995297
2765.0,0.012691326268817527
2764.0,0.01264661126420652
2763.0,0.012512493866907004
2762.0,0.012423105273012602
2761.0,0.012378417874516323
2760.0,0.012333735073725371
2759.0,0.012244383261476699
2758.0,0.01215504982870197
2757.0,0.012065734767841452
2756.0,0.0119764380713403
2755.0,0.011842527443247208
2754.0,0.011753276624621556
2753.0,0.011619434777991433
2752.0,0.011530229790124524
2751.0,0.011441043121384498
2750.0,0.011351874764248926
2749.0,0.011351874764248926
2748.0,0.011307297450183107
2747.0,0.011307297450183107
2746.0,0.011351874764248926
2745.0,0.011441043121384498
2744.0,0.011530229790124524
2743.0,0.011619434777991433
2742.0,0.011664044143949504
2741.0,0.011664044143949504
2740.0,0.011619434777991433
2739.0,0.011619434777991433
2738.0,0.011664044143949504
2737.0,0.011753276624621556
2736.0,0.011842527443247208
2735.0,0.011931796607364653
2734.0,0.012021084124518078
2733.0,0.01215504982870197
2732.0,0.012244383261476699
2731.0,0.012378417874516323
2730.0,0.012557195064198723
2729.0,0.012780770091995297
2728.0,0.012959713020733288
2727.0,0.013138729709955221
2726.0,0.01322826573375524
2725.0,0.013317820220494436
2724.0,0.013407393177789162
2723.0,0.013407393177789162
2722.0,0.013407393177789162
2721.0,0.013317820220494436
2720.0,0.013138729709955221
2719.0,0.012959713020733288
2718.0,0.012736045877764557
2717.0,0.012557195064198723
2716.0,0.012333735073725371
2715.0,0.012110390002254778
2714.0,0.011887159731648111
2713.0,0.011708658092512314
2712.0,0.011574829993696856
2711.0,0.011351874764248926
2710.0,0.011129033935354915
2709.0,0.010950843561779777
2708.0,0.01077272626946324
2707.0,0.010683695010048622
2706.0,0.010639186223752484
2705.0,0.010594681998483901
2704.0,0.010550182333308289
2703.0,0.010505687227290839
2702.0,0.01037222925484893
2701.0,0.010194349063173958
2700.0,0.01001654169860089
2699.0,0.009927665307847056
2698.0,0.009883233932095559
2697.0,0.009838807101520963
2696.0,0.009838807101520963
2695.0,0.009794384815193347
2694.0,0.009794384815193347
2693.0,0.009794384815193347
2692.0,0.00974996707218323
2691.0,0.009705553871561357
2690.0,0.00966114521239847
2689.0,0.00966114521239847
2688.0,0.009705553871561357
2687.0,0.009705553871561357
2686.0,0.00966114521239847
2685.0,0.009572341514736404
2684.0,0.009527946474380489
2683.0,0.009439170005980158
2682.0,0.009350411681145587
2681.0,0.009306039320248427
2680.0,0.009350411681145587
2679.0,0.009439170005980158
2678.0,0.009483555971770974
2677.0,0.009439170005980158
2676.0,0.00939478857608056
2675.0,0.009306039320248427
2674.0,0.009261671492462709
2673.0,0.009217308196862062
2672.0,0.009217308196862062
2671.0,0.009172949432521227
2670.0,0.009172949432521227
2669.0,0.009172949432521227
2668.0,0.009172949432521227
2667.0,0.009217308196862062
2666.0,0.009217308196862062
2665.0,0.009172949432521227
2664.0,0.009128595198514056
2663.0,0.00908424549391551
2662.0,0.00908424549391551
2661.0,0.00908424549391551
2660.0,0.009039900317800775
2659.0,0.008995559669244813
2658.0,0.008951223547323472
2657.0,0.008906891951112605
2656.0,0.008862564879688284
2655.0,0.008773924307505121
2654.0,0.008685301823389224
2653.0,0.008640997362049818
2652.0,0.008596697419959609
2651.0,0.008640997362049818
2650.0,0.008640997362049818
2649.0,0.008640997362049818
2648.0,0.008596697419959609
2647.0,0.008463824699968647
2646.0,0.008375265465994541
2645.0,0.008330992620051436
2644.0,0.008286724286910463
2643.0,0.008286724286910463
2642.0,0.008242460465651913
2641.0,0.008198201155356077
2640.0,0.008153946355103248
2639.0,0.008065450281052211
2638.0,0.007976972236149349
2637.0,0.007888512213050314
2636.0,0.007800070204414977
2635.0,0.007755855953228474
2634.0,0.007755855953228474
2633.0,0.007800070204414977
2632.0,0.007800070204414977
2631.0,0.007844288957383316
2630.0,0.007844288957383316
2629.0,0.007932739972333236
2628.0,0.008021209005416363
2627.0,0.008109696063975047
2626.0,0.008153946355103248
2625.0,0.008153946355103248
2624.0,0.008109696063975047
2623.0,0.008065450281052211
2622.0,0.008065450281052211
2621.0,0.008109696063975047
2620.0,0.008153946355103248
2619.0,0.008109696063975047
2618.0,0.008109696063975047
2617.0,0.008065450281052211
2616.0,0.008065450281052211
2615.0,0.008021209005416363
2614.0,0.007976972236149349
2613.0,0.007976972236149349
2612.0,0.007976972236149349
2611.0,0.007888512213050314
2610.0,0.007844288957383316
2609.0,0.007755855953228474
2608.0,0.007711646202907652
2607.0,0.007667440952535687
2606.0,0.00762324020119709
2605.0,0.0075790439479759275
2604.0,0.007534852191956709
2603.0,0.007534852191956709
2602.0,0.007490664932224611
2601.0,0.007402303897961815
2600.0,0.007269796045857202
2599.0,0.007225635744644521
2598.0,0.007181479933320523
2597.0,0.007181479933320523
2596.0,0.007181479933320523
2595.0,0.007225635744644521
2594.0,0.007269796045857202
2593.0,0.007269796045857202
2592.0,0.007269796045857202
2591.0,0.007269796045857202
2590.0,0.007358130121602358
2589.0,0.007490664932224611
2588.0,0.0075790439479759275
2587.0,0.00762324020119709
2586.0,0.007667440952535687
2585.0,0.007755855953228474
2584.0,0.007800070204414977
2583.0,0.007844288957383316
2582.0,0.007844288957383316
2581.0,0.007800070204414977
2580.0,0.007667440952535687
2579.0,0.0075790439479759275
2578.0,0.0074464821678643656
2577.0,0.007358130121602358
2576.0,0.007358130121602358
2575.0,0.007313960837872058
2574.0,0.007313960837872058
2573.0,0.007269796045857202
2572.0,0.007181479933320523
2571.0,0.007093181776687496
2570.0,0.007004901568658406
2569.0,0.00696076819309055
2568.0,0.00696076819309055
2567.0,0.007004901568658406
2566.0,0.007004901568658406
2565.0,0.007004901568658406
2564.0,0.00696076819309055
2563.0,0.006872514894289861
2562.0,0.006740168563263094
2561.0,0.006607862550997545
2560.0,0.006519680930003435
2559.0,0.006475596832934416
2558.0,0.006475596832934416
2557.0,0.006431517210272464
2556.0,0.006431517210272464
2555.0,0.006431517210272464
2554.0,0.006431517210272464
2553.0,0.006475596832934416
2552.0,0.006431517210272464
2551.0,0.006431517210272464
2550.0,0.006343371384537999
2549.0,0.006299305179649828
2548.0,0.00621118618129457
2547.0,0.006167133386013823
2546.0,0.006167133386013823
2545.0,0.00621118618129457
2544.0,0.00625524344553785
2543.0,0.00625524344553785
2542.0,0.00621118618129457
2541.0,0.006167133386013823
2540.0,0.006079041198713275
2539.0,0.005990966876386672
2538.0,0.005946936412324799
2537.0,0.005946936412324799
2536.0,0.00590291041179003
2535.0,0.005858888873877532
2534.0,0.005858888873877532
2533.0,0.00590291041179003
2532.0,0.005858888873877532
2531.0,0.005814871797682919
2530.0,0.005726851026829571
2529.0,0.005726851026829571
2528.0,0.00577085918230158
2527.0,0.005814871797682919
2526.0,0.00577085918230158
2525.0,0.005682847330363394
2524.0,0.005550862985963967
2523.0,0.00541891874010525
2522.0,0.00537494623139545
2521.0,0.00541891874010525
2520.0,0.005462895701502157
2519.0,0.005462895701502157
2518.0,0.00541891874010525
2517.0,0.00541891874010525
2516.0,0.00541891874010525
2515.0,0.00541891874010525
2514.0,0.00537494623139545
2513.0,0.005330978174470591
2512.0,0.005243055412371911
2511.0,0.005155150446602086
2510.0,0.005155150446602086
2509.0,0.005199100705396198
2508.0,0.005243055412371911
2507.0,0.005199100705396198
2506.0,0.005155150446602086
2505.0,0.005155150446602086
2504.0,0.005155150446602086
2503.0,0.005199100705396198
2502.0,0.005199100705396198
2501.0,0.005155150446602086
2500.0,0.005155150446602086
2499.0,0.005111204635089406
2498.0,0.005111204635089406
2497.0,0.005111204635089406
2496.0,0.005155150446602086
2495.0,0.005199100705396198
2494.0,0.005243055412371911
2493.0,0.005243055412371911
2492.0,0.005199100705396198
2491.0,0.005155150446602086
2490.0,0.005155150446602086
2489.0,0.005155150446602086
2488.0,0.005243055412371911
2487.0,0.00537494623139545
2486.0,0.00541891874010525
2485.0,0.005462895701502157
2484.0,0.00541891874010525
2483.0,0.00537494623139545
2482.0,0.005330978174470591
2481.0,0.0052870145684298375
2480.0,0.005199100705396198
2479.0,0.005111204635089406
2478.0,0.005023326350308999
2477.0,0.004979393875242044
2476.0,0.004935465843858511
2475.0,0.004979393875242044
2474.0,0.004979393875242044
2473.0,0.004979393875242044
2472.0,0.004935465843858511
2471.0,0.00484762310854614
2470.0,0.004803708402820517
2469.0,0.004803708402820517
2468.0,0.00484762310854614
2467.0,0.00489154225525934
2466.0,0.00489154225525934
2465.0,0.00489154225525934
2464.0,0.00484762310854614
2463.0,0.00484762310854614
2462.0,0.00484762310854614
2461.0,0.00484762310854614
2460.0,0.00484762310854614
2459.0,0.00484762310854614
2458.0,0.00484762310854614
2457.0,0.00489154225525934
2456.0,0.00484762310854614
2455.0,0.004803708402820517
2454.0,0.004715892310740433
2453.0,0.004671990922590297
2452.0,0.004715892310740433
2451.0,0.004803708402820517
2450.0,0.00484762310854614
2449.0,0.004803708402820517
2448.0,0.004759798137184523
2447.0,0.004715892310740433
2446.0,0.004715892310740433
2445.0,0.004759798137184523
2444.0,0.004759798137184523
2443.0,0.004715892310740433
2442.0,0.004671990922590297
2441.0,0.004628093971837721
2440.0,0.004715892310740433
2439.0,0.004803708402820517
2438.0,0.00489154225525934
2437.0,0.00489154225525934
2436.0,0.00484762310854614
2435.0,0.00484762310854614
2434.0,0.00484762310854614
2433.0,0.00484762310854614
2432.0,0.00489154225525934
2431.0,0.00489154225525934
2430.0,0.004935465843858511
2429.0,0.004935465843858511
2428.0,0.004979393875242044
2427.0,0.004979393875242044
2426.0,0.005023326350308999
2425.0,0.005023326350308999
2424.0,0.004979393875242044
2423.0,0.004935465843858511
2422.0,0.00484762310854614
2421.0,0.00484762310854614
2420.0,0.004803708402820517
2419.0,0.004803708402820517
2418.0,0.004803708402820517
2417.0,0.00484762310854614
2416.0,0.00489154225525934
2415.0,0.004935465843858511
2414.0,0.004979393875242044
2413.0,0.004979393875242044
2412.0,0.00489154225525934
2411.0,0.00484762310854614
2410.0,0.00484762310854614
2409.0,0.00489154225525934
2408.0,0.004979393875242044
2407.0,0.005023326350308999
2406.0,0.004979393875242044
2405.0,0.00484762310854614
2404.0,0.004715892310740433
2403.0,0.00458420145758498
2402.0,0.0044964297349936455
2401.0,0.004540313378935901
2400.0,0.004628093971837721
2399.0,0.004759798137184523
2398.0,0.004803708402820517
2397.0,0.004759798137184523
2396.0,0.004671990922590297
2395.0,0.004628093971837721
2394.0,0.00458420145758498
2393.0,0.00458420145758498
2392.0,0.004628093971837721
2391.0,0.004628093971837721
2390.0,0.004628093971837721
2389.0,0.004540313378935901
2388.0,0.004452550524862486
2387.0,0.0043648054024501
2386.0,0.004320939488377862
2385.0,0.0043648054024501
2384.0,0.004408675747646695
2383.0,0.0044964297349936455
2382.0,0.0044964297349936455
2381.0,0.004452550524862486
2380.0,0.004320939488377862
2379.0,0.004101676353562844
2378.0,0.003926345514724705
2377.0,0.003794893821675638
2376.0,0.0036634819042162814
2375.0,0.0034445503666347133
2374.0,0.003050751504618754
2373.0,0.0026573093983774942
2372.0,0.002569926202528716
2371.0,0.0029195645282691363
2370.0,0.003707281458678491
2369.0,0.004540313378935901
2368.0,0.005155150446602086
2367.0,0.00541891874010525
2366.0,0.005462895701502157
2365.0,0.005462895701502157
2364.0,0.005330978174470591
2363.0,0.004935465843858511
2362.0,0.004277078004534696
2361.0,0.003619686766589858
2360.0,0.0031819781204844855
2359.0,0.0029195645282691363
2358.0,0.0027447101798967477
2357.0,0.0027884171674950053
2356.0,0.0031382315093266833
2355.0,0.0035758960449088217
2354.0,0.003926345514724705
2353.0,0.00401400208620073
2352.0,0.0038387066319929275
2351.0,0.003619686766589858
2350.0,0.0035758960449088217
2349.0,0.0036634819042162814
2348.0,0.0038387066319929275
2347.0,0.0040578370074493275
2346.0,0.004320939488377862
2345.0,0.004408675747646695
2344.0,0.004189368323957332
2343.0,0.0037510854308679953
2342.0,0.0032694845648473247
2341.0,0.0029195645282691363
2340.0,0.0027884171674950053
2339.0,0.0028321285541661467
2338.0,0.0029632891174733444
2337.0,0.003050751504618754
2336.0,0.0030944893043338695
2335.0,0.0030944893043338695
2334.0,0.0032694845648473247
2333.0,0.0035321097382827737
2332.0,0.003707281458678491
2331.0,0.003707281458678491
2330.0,0.003619686766589858
2329.0,0.0035321097382827737
2328.0,0.003619686766589858
2327.0,0.003794893821675638
2326.0,0.003970171588923321
2325.0,0.0040578370074493275
2324.0,0.00401400208620073
2323.0,0.0038387066319929275
2322.0,0.0037510854308679953
2321.0,0.003707281458678491
2320.0,0.003707281458678491
2319.0,0.003707281458678491
2318.0,0.0036634819042162814
2317.0,0.003619686766589858
2316.0,0.003619686766589858
2315.0,0.003619686766589858
2314.0,0.0036634819042162814
2313.0,0.0037510854308679953
2312.0,0.0038825238627120395
2311.0,0.00401400208620073
2310.0,0.004101676353562844
2309.0,0.0040578370074493275
2308.0,0.00401400208620073
2307.0,0.00401400208620073
2306.0,0.0040578370074493275
2305.0,0.004145520125434121
2304.0,0.004233220950025984
2303.0,0.004320939488377862
2302.0,0.004320939488377862
2301.0,0.004320939488377862
2300.0,0.004277078004534696
2299.0,0.004189368323957332
2298.0,0.004145520125434121
2297.0,0.004145520125434121
2296.0,0.004189368323957332
2295.0,0.004189368323957332
2294.0,0.004145520125434121
2293.0,0.0040578370074493275
2292.0,0.00401400208620073
2291.0,0.00401400208620073
2290.0,0.0040578370074493275
2289.0,0.0040578370074493275
2288.0,0.0040578370074493275
2287.0,0.00401400208620073
2286.0,0.00401400208620073
2285.0,0.003970171588923321
2284.0,0.003970171588923321
2283.0,0.003926345514724705
2282.0,0.003926345514724705
2281.0,0.003926345514724705
2280.0,0.003970171588923321
2279.0,0.003970171588923321
2278.0,0.00401400208620073
2277.0,0.0040578370074493275
2276.0,0.004101676353562844
2275.0,0.004101676353562844
2274.0,0.0040578370074493275
2273.0,0.0040578370074493275
2272.0,0.0040578370074493275
2271.0,0.00401400208620073
2270.0,0.00401400208620073
2269.0,0.00401400208620073
2268.0,0.00401400208620073
2267.0,0.00401400208620073
2266.0,0.003970171588923321
2265.0,0.003926345514724705
2264.0,0.0038825238627120395
2263.0,0.0038387066319929275
2262.0,0.0038387066319929275
2261.0,0.0038825238627120395
2260.0,0.0038825238627120395
2259.0,0.0038825238627120395
2258.0,0.003926345514724705
2257.0,0.003970171588923321
2256.0,0.00401400208620073
2255.0,0.00401400208620073
2254.0,0.0040578370074493275
2253.0,0.004101676353562844
2252.0,0.004101676353562844
2251.0,0.004101676353562844
2250.0,0.0040578370074493275
2249.0,0.003970171588923321
2248.0,0.003926345514724705
2247.0,0.003926345514724705
2246.0,0.003970171588923321
2245.0,0.003970171588923321
2244.0,0.003926345514724705
2243.0,0.0038825238627120395
2242.0,0.0038387066319929275
2241.0,0.0038387066319929275
2240.0,0.0038387066319929275
2239.0,0.0038387066319929275
2238.0,0.003794893821675638
2237.0,0.003707281458678491
2236.0,0.003707281458678491
2235.0,0.003707281458678491
2234.0,0.003794893821675638
2233.0,0.0038387066319929275
2232.0,0.0038825238627120395
2231.0,0.003970171588923321
2230.0,0.00401400208620073
2229.0,0.004101676353562844
2228.0,0.004145520125434121
2227.0,0.004189368323957332
2226.0,0.004145520125434121
2225.0,0.0040578370074493275
2224.0,0.003926345514724705
2223.0,0.003794893821675638
2222.0,0.0037510854308679953
2221.0,0.003794893821675638
2220.0,0.0038825238627120395
2219.0,0.003970171588923321
2218.0,0.00401400208620073
2217.0,0.00401400208620073
2216.0,0.003970171588923321
2215.0,0.003926345514724705
2214.0,0.003926345514724705
2213.0,0.0038825238627120395
2212.0,0.0038825238627120395
2211.0,0.0038387066319929275
2210.0,0.003794893821675638
2209.0,0.0037510854308679953
2208.0,0.003794893821675638
2207.0,0.0038825238627120395
2206.0,0.003970171588923321
2205.0,0.0040578370074493275
2204.0,0.00401400208620073
2203.0,0.003970171588923321
2202.0,0.0038825238627120395
2201.0,0.0038387066319929275
2200.0,0.003926345514724705
2199.0,0.00401400208620073
2198.0,0.004145520125434121
2197.0,0.004189368323957332
2196.0,0.004145520125434121
2195.0,0.00401400208620073
2194.0,0.0038825238627120395
2193.0,0.0038387066319929275
2192.0,0.0038387066319929275
2191.0,0.0038825238627120395
2190.0,0.0038825238627120395
2189.0,0.003926345514724705
2188.0,0.003926345514724705
2187.0,0.0038825238627120395
2186.0,0.0038825238627120395
2185.0,0.0038825238627120395
2184.0,0.0038387066319929275
2183.0,0.0038387066319929275
2182.0,0.0038387066319929275
2181.0,0.0038825238627120395
2180.0,0.003926345514724705
2179.0,0.0038825238627120395
2178.0,0.0038825238627120395
2177.0,0.003926345514724705
2176.0,0.003970171588923321
2175.0,0.00401400208620073
2174.0,0.00401400208620073
2173.0,0.00401400208620073
2172.0,0.003970171588923321
2171.0,0.003926345514724705
2170.0,0.003970171588923321
2169.0,0.003970171588923321
2168.0,0.00401400208620073
2167.0,0.0040578370074493275
2166.0,0.00401400208620073
2165.0,0.003970171588923321
2164.0,0.003926345514724705
2163.0,0.0038387066319929275
2162.0,0.003794893821675638
2161.0,0.0037510854308679953
2160.0,0.0037510854308679953
2159.0,0.003707281458678491
2158.0,0.003707281458678491
2157.0,0.0037510854308679953
2156.0,0.0037510854308679953
2155.0,0.0037510854308679953
2154.0,0.003707281458678491
2153.0,0.0036634819042162814
2152.0,0.0036634819042162814
2151.0,0.0036634819042162814
2150.0,0.003707281458678491
2149.0,0.0037510854308679953
2148.0,0.0037510854308679953
2147.0,0.003707281458678491
2146.0,0.0036634819042162814
2145.0,0.003619686766589858
2144.0,0.0035758960449088217
2143.0,0.003488327845821315
2142.0,0.0034445503666347133
2141.0,0.0034445503666347133
2140.0,0.003488327845821315
2139.0,0.0035758960449088217
2138.0,0.0036634819042162814
2137.0,0.003707281458678491
2136.0,0.0037510854308679953
2135.0,0.003794893821675638
2134.0,0.0037510854308679953
2133.0,0.0037510854308679953
2132.0,0.003707281458678491
2131.0,0.003619686766589858
2130.0,0.0035321097382827737
2129.0,0.003488327845821315
2128.0,0.0035321097382827737
2127.0,0.003619686766589858
2126.0,0.003707281458678491
2125.0,0.0037510854308679953
2124.0,0.0037510854308679953
2123.0,0.003707281458678491
2122.0,0.003619686766589858
2121.0,0.0035321097382827737
2120.0,0.003488327845821315
2119.0,0.0034445503666347133
2118.0,0.0033570086445275926
2117.0,0.0033570086445275926
2116.0,0.0034007772998332353
2115.0,0.0034445503666347133
2114.0,0.0035321097382827737
2113.0,0.0035758960449088217
2112.0,0.0035758960449088217
2111.0,0.0035758960449088217
2110.0,0.0035321097382827737
2109.0,0.0035758960449088217
2108.0,0.0035758960449088217
2107.0,0.0035758960449088217
2106.0,0.003619686766589858
2105.0,0.0035758960449088217
2104.0,0.0035758960449088217
2103.0,0.0035758960449088217
2102.0,0.0035321097382827737
2101.0,0.0035321097382827737
2100.0,0.0035758960449088217
2099.0,0.003619686766589858
2098.0,0.003619686766589858
2097.0,0.0036634819042162814
2096.0,0.0036634819042162814
2095.0,0.0036634819042162814
2094.0,0.003707281458678491
2093.0,0.0036634819042162814
2092.0,0.003619686766589858
2091.0,0.0035321097382827737
2090.0,0.0034445503666347133
2089.0,0.0034445503666347133
2088.0,0.0034445503666347133
2087.0,0.003488327845821315
2086.0,0.003488327845821315
2085.0,0.003488327845821315
2084.0,0.0034007772998332353
2083.0,0.0033132443998284966
2082.0,0.0032257291386954545
2081.0,0.0031819781204844855
2080.0,0.0031819781204844855
2079.0,0.0031819781204844855
2078.0,0.0031819781204844855
2077.0,0.0031819781204844855
2076.0,0.0031819781204844855
2075.0,0.0032257291386954545
2074.0,0.0032257291386954545
2073.0,0.0032257291386954545
2072.0,0.0031819781204844855
2071.0,0.0031382315093266833
2070.0,0.0031819781204844855
2069.0,0.0032257291386954545
2068.0,0.0032257291386954545
2067.0,0.0032257291386954545
2066.0,0.0032694845648473247
2065.0,0.0032694845648473247
2064.0,0.0033132443998284966
2063.0,0.0033570086445275926
2062.0,0.0034007772998332353
2061.0,0.0034007772998332353
2060.0,0.0033570086445275926
2059.0,0.0033132443998284966
2058.0,0.0032694845648473247
2057.0,0.0032257291386954545
2056.0,0.0032257291386954545
2055.0,0.0032257291386954545
2054.0,0.0032694845648473247
2053.0,0.0032694845648473247
2052.0,0.0033132443998284966
2051.0,0.0033570086445275926
2050.0,0.0033570086445275926
2049.0,0.0033132443998284966
2048.0,0.0032257291386954545
2047.0,0.0032257291386954545
2046.0,0.0032694845648473247
2045.0,0.0033132443998284966
2044.0,0.0034007772998332353
2043.0,0.0034007772998332353
2042.0,0.0034007772998332353
2041.0,0.0034007772998332353
2040.0,0.0034007772998332353
2039.0,0.0034007772998332353
2038.0,0.0033570086445275926
2037.0,0.0033570086445275926
2036.0,0.0033570086445275926
2035.0,0.0034007772998332353
2034.0,0.0034007772998332353
2033.0,0.0034007772998332353
2032.0,0.0033570086445275926
2031.0,0.0033132443998284966
2030.0,0.0032257291386954545
2029.0,0.0031819781204844855
2028.0,0.0032257291386954545
2027.0,0.0032694845648473247
2026.0,0.0033132443998284966
2025.0,0.0033132443998284966
2024.0,0.0033570086445275926
2023.0,0.0033570086445275926
2022.0,0.0033570086445275926
2021.0,0.0033570086445275926
2020.0,0.0033570086445275926
2019.0,0.0033132443998284966
2018.0,0.0032694845648473247
2017.0,0.0031819781204844855
2016.0,0.0031819781204844855
2015.0,0.0031819781204844855
2014.0,0.0032257291386954545
2013.0,0.0032257291386954545
2012.0,0.0031819781204844855
2011.0,0.0031382315093266833
2010.0,0.0030944893043338695
2009.0,0.003050751504618754
2008.0,0.003050751504618754
2007.0,0.0030070181092942683
2006.0,0.0030070181092942683
2005.0,0.0030070181092942683
2004.0,0.0030070181092942683
2003.0,0.0030070181092942683
2002.0,0.003050751504618754
2001.0,0.0030944893043338695
2000.0,0.0031819781204844855
1999.0,0.0031819781204844855
1998.0,0.0031382315093266833
1997.0,0.0030944893043338695
1996.0,0.003050751504618754
1995.0,0.003050751504618754
1994.0,0.0031382315093266833
1993.0,0.0031819781204844855
1992.0,0.0031819781204844855
1991.0,0.0031382315093266833
1990.0,0.0030944893043338695
1989.0,0.0030944893043338695
1988.0,0.0031382315093266833
1987.0,0.0031819781204844855
1986.0,0.0031819781204844855
1985.0,0.0031819781204844855
1984.0,0.0031382315093266833
1983.0,0.0030944893043338695
1982.0,0.0030944893043338695
1981.0,0.0030944893043338695
1980.0,0.003050751504618754
1979.0,0.003050751504618754
1978.0,0.003050751504618754
1977.0,0.003050751504618754
1976.0,0.0030944893043338695
1975.0,0.0030944893043338695
1974.0,0.0030944893043338695
1973.0,0.0030944893043338695
1972.0,0.0030944893043338695
1971.0,0.0031382315093266833
1970.0,0.0031382315093266833
1969.0,0.0031382315093266833
1968.0,0.0031382315093266833
1967.0,0.0031382315093266833
1966.0,0.0031382315093266833
1965.0,0.0030944893043338695
1964.0,0.003050751504618754
1963.0,0.0030070181092942683
1962.0,0.0030070181092942683
1961.0,0.0030070181092942683
1960.0,0.0030070181092942683
1959.0,0.003050751504618754
1958.0,0.0030944893043338695
1957.0,0.0030944893043338695
1956.0,0.0030944893043338695
1955.0,0.0030944893043338695
1954.0,0.0030944893043338695
1953.0,0.0030944893043338695
1952.0,0.003050751504618754
1951.0,0.003050751504618754
1950.0,0.003050751504618754
1949.0,0.0030944893043338695
1948.0,0.0031382315093266833
1947.0,0.0031382315093266833
1946.0,0.0030944893043338695
1945.0,0.0030944893043338695
1944.0,0.0031382315093266833
1943.0,0.0031819781204844855
1942.0,0.0032694845648473247
1941.0,0.0032694845648473247
1940.0,0.0032257291386954545
1939.0,0.0031382315093266833
1938.0,0.0030944893043338695
1937.0,0.003050751504618754
1936.0,0.0030070181092942683
1935.0,0.003050751504618754
1934.0,0.003050751504618754
1933.0,0.003050751504618754
1932.0,0.0030944893043338695
1931.0,0.0030944893043338695
1930.0,0.0030944893043338695
1929.0,0.0030944893043338695
1928.0,0.003050751504618754
1927.0,0.0030070181092942683
1926.0,0.0029632891174733444
1925.0,0.0029632891174733444
1924.0,0.0029632891174733444
1923.0,0.0029195645282691363
1922.0,0.0029195645282691363
1921.0,0.0030070181092942683
1920.0,0.0030944893043338695
1919.0,0.0031382315093266833
1918.0,0.0031382315093266833
1917.0,0.0030944893043338695
1916.0,0.003050751504618754
1915.0,0.0030070181092942683
1914.0,0.0030070181092942683
1913.0,0.0030070181092942683
1912.0,0.003050751504618754
1911.0,0.0030944893043338695
1910.0,0.0031382315093266833
1909.0,0.0030944893043338695
1908.0,0.0030944893043338695
1907.0,0.003050751504618754
1906.0,0.0030070181092942683
1905.0,0.003050751504618754
1904.0,0.0030944893043338695
1903.0,0.0030944893043338695
1902.0,0.003050751504618754
1901.0,0.003050751504618754
1900.0,0.003050751504618754
1899.0,0.003050751504618754
1898.0,0.0030070181092942683
1897.0,0.0030070181092942683
1896.0,0.0029632891174733444
1895.0,0.0029632891174733444
1894.0,0.0030070181092942683
1893.0,0.003050751504618754
1892.0,0.0031382315093266833
1891.0,0.0031819781204844855
1890.0,0.0031819781204844855
1889.0,0.0031382315093266833
1888.0,0.003050751504618754
1887.0,0.0029632891174733444
1886.0,0.0029195645282691363
1885.0,0.0029195645282691363
1884.0,0.0028758443407954637
1883.0,0.0028758443407954637
1882.0,0.0029195645282691363
1881.0,0.0029632891174733444
1880.0,0.0029632891174733444
1879.0,0.0029195645282691363
1878.0,0.0028758443407954637
1877.0,0.0028321285541661467
1876.0,0.0027884171674950053
1875.0,0.0027884171674950053
1874.0,0.0027884171674950053
1873.0,0.0028321285541661467
1872.0,0.0028758443407954637
1871.0,0.0028758443407954637
1870.0,0.0028321285541661467
1869.0,0.0028321285541661467
1868.0,0.0027884171674950053
1867.0,0.0027884171674950053
1866.0,0.0028321285541661467
1865.0,0.0028321285541661467
1864.0,0.0028321285541661467
1863.0,0.0027884171674950053
1862.0,0.0028321285541661467
1861.0,0.0029195645282691363
1860.0,0.0030070181092942683
1859.0,0.003050751504618754
1858.0,0.0030944893043338695
1857.0,0.0030944893043338695
1856.0,0.003050751504618754
1855.0,0.0030070181092942683
1854.0,0.0029632891174733444
1853.0,0.0029632891174733444
1852.0,0.0029632891174733444
1851.0,0.0029195645282691363
1850.0,0.0028758443407954637
1849.0,0.0028321285541661467
1848.0,0.0028321285541661467
1847.0,0.0029195645282691363
1846.0,0.0030070181092942683
1845.0,0.0030944893043338695
1844.0,0.0030944893043338695
1843.0,0.003050751504618754
1842.0,0.003050751504618754
1841.0,0.003050751504618754
1840.0,0.003050751504618754
1839.0,0.0030070181092942683
1838.0,0.003050751504618754
1837.0,0.0030944893043338695
1836.0,0.0031382315093266833
1835.0,0.0031382315093266833
1834.0,0.0030944893043338695
1833.0,0.003050751504618754
1832.0,0.0029632891174733444
1831.0,0.0028758443407954637
1830.0,0.0027884171674950053
1829.0,0.0028321285541661467
1828.0,0.0029195645282691363
1827.0,0.0030070181092942683
1826.0,0.003050751504618754
1825.0,0.003050751504618754
1824.0,0.0029632891174733444
1823.0,0.0029195645282691363
1822.0,0.0029195645282691363
1821.0,0.0029195645282691363
1820.0,0.0029195645282691363
1819.0,0.0029195645282691363
1818.0,0.0028758443407954637
1817.0,0.0028758443407954637
1816.0,0.0028321285541661467
1815.0,0.0027884171674950053
1814.0,0.0027447101798967477
1813.0,0.002701007590486082
1812.0,0.002701007590486082
1811.0,0.0026573093983774942
1810.0,0.0026573093983774942
1809.0,0.0026573093983774942
1808.0,0.0026573093983774942
1807.0,0.002613615602686581
1806.0,0.002613615602686581
1805.0,0.0026573093983774942
1804.0,0.0026573093983774942
1803.0,0.0026573093983774942
1802.0,0.002701007590486082
1801.0,0.0027447101798967477
1800.0,0.0027447101798967477
1799.0,0.002701007590486082
1798.0,0.0026573093983774942
1797.0,0.0026573093983774942
1796.0,0.0026573093983774942
1795.0,0.0026573093983774942
1794.0,0.002613615602686581
1793.0,0.002613615602686581
1792.0,0.002701007590486082
1791.0,0.0027884171674950053
1790.0,0.0028758443407954637
1789.0,0.0029195645282691363
1788.0,0.0029195645282691363
1787.0,0.0028758443407954637
1786.0,0.0028758443407954637
1785.0,0.0028758443407954637
1784.0,0.0028758443407954637
1783.0,0.0028758443407954637
1782.0,0.0029195645282691363
1781.0,0.0029632891174733444
1780.0,0.0030070181092942683
1779.0,0.0029195645282691363
1778.0,0.0028321285541661467
1777.0,0.0027447101798967477
1776.0,0.0027884171674950053
1775.0,0.0028758443407954637
1774.0,0.0029632891174733444
1773.0,0.0030070181092942683
1772.0,0.0030070181092942683
1771.0,0.0029195645282691363
1770.0,0.0029195645282691363
1769.0,0.0029632891174733444
1768.0,0.0029632891174733444
1767.0,0.0029195645282691363
1766.0,0.0028758443407954637
1765.0,0.0028758443407954637
1764.0,0.0029195645282691363
1763.0,0.0029632891174733444
1762.0,0.0030070181092942683
1761.0,0.003050751504618754
1760.0,0.0031382315093266833
1759.0,0.0031819781204844855
1758.0,0.0032257291386954545
1757.0,0.0032694845648473247
1756.0,0.0033570086445275926
1755.0,0.0034007772998332353
1754.0,0.0035321097382827737
1753.0,0.0036634819042162814
1752.0,0.0037510854308679953
1751.0,0.003794893821675638
1750.0,0.003794893821675638
1749.0,0.0038387066319929275
1748.0,0.0038387066319929275
1747.0,0.0038387066319929275
1746.0,0.0038387066319929275
1745.0,0.0038387066319929275
1744.0,0.0038387066319929275
1743.0,0.003794893821675638
1742.0,0.003794893821675638
1741.0,0.003794893821675638
1740.0,0.0037510854308679953
1739.0,0.0036634819042162814
1738.0,0.003619686766589858
1737.0,0.0036634819042162814
1736.0,0.0036634819042162814
1735.0,0.0036634819042162814
1734.0,0.003707281458678491
1733.0,0.0036634819042162814
1732.0,0.003707281458678491
1731.0,0.003707281458678491
1730.0,0.003707281458678491
1729.0,0.0036634819042162814
1728.0,0.0036634819042162814
1727.0,0.003707281458678491
1726.0,0.003707281458678491
1725.0,0.003707281458678491
1724.0,0.0037510854308679953
1723.0,0.003794893821675638
1722.0,0.003794893821675638
1721.0,0.0038825238627120395
1720.0,0.003926345514724705
1719.0,0.0038825238627120395
1718.0,0.003794893821675638
1717.0,0.0038825238627120395
1716.0,0.00401400208620073
1715.0,0.004101676353562844
1714.0,0.004189368323957332
1713.0,0.004189368323957332
1712.0,0.004233220950025984
1711.0,0.004189368323957332
1710.0,0.004189368323957332
1709.0,0.004189368323957332
1708.0,0.004145520125434121
1707.0,0.004145520125434121
1706.0,0.004145520125434121
1705.0,0.004277078004534696
1704.0,0.004452550524862486
1703.0,0.004671990922590297
1702.0,0.004803708402820517
1701.0,0.004759798137184523
1700.0,0.004628093971837721
1699.0,0.004540313378935901
1698.0,0.004759798137184523
1697.0,0.005067263269958211
1696.0,0.005199100705396198
1695.0,0.005023326350308999
1694.0,0.00489154225525934
1693.0,0.004935465843858511
1692.0,0.005023326350308999
1691.0,0.005023326350308999
1690.0,0.005067263269958211
1689.0,0.005155150446602086
1688.0,0.005243055412371911
1687.0,0.005330978174470591
1686.0,0.0052870145684298375
1685.0,0.00537494623139545
1684.0,0.005550862985963967
1683.0,0.005550862985963967
1682.0,0.005594853310833647
1681.0,0.005726851026829571
1680.0,0.005814871797682919
1679.0,0.005858888873877532
1678.0,0.00590291041179003
1677.0,0.005946936412324799
1676.0,0.005946936412324799
1675.0,0.005946936412324799
1674.0,0.005990966876386672
1673.0,0.006035001804881146
1672.0,0.006079041198713275
1671.0,0.00612308505878878
1670.0,0.00625524344553785
1669.0,0.006431517210272464
1668.0,0.00656376950238835
1667.0,0.006651960076740071
1666.0,0.006696062080525422
1665.0,0.006740168563263094
1664.0,0.006784279525863024
1663.0,0.006828394969235152
1662.0,0.006872514894289861
1661.0,0.006872514894289861
1660.0,0.006872514894289861
1659.0,0.006872514894289861
1658.0,0.006828394969235152
1657.0,0.006828394969235152
1656.0,0.006828394969235152
1655.0,0.006828394969235152
1654.0,0.00696076819309055
1653.0,0.007225635744644521
1652.0,0.007093181776687496
1651.0,0.007004901568658406
1650.0,0.007004901568658406
1649.0,0.006872514894289861
1648.0,0.006784279525863024
1647.0,0.006828394969235152
1646.0,0.006872514894289861
1645.0,0.006872514894289861
1644.0,0.00696076819309055
1643.0,0.007004901568658406
1642.0,0.007004901568658406
1641.0,0.006872514894289861
1640.0,0.006651960076740071
1639.0,0.006431517210272464
1638.0,0.00621118618129457
1637.0,0.00612308505878878
1636.0,0.00621118618129457
1635.0,0.00625524344553785
1634.0,0.00625524344553785
1633.0,0.006299305179649828
1632.0,0.006343371384537999
1631.0,0.006299305179649828
1630.0,0.00621118618129457
1629.0,0.006079041198713275
1628.0,0.006035001804881146
1627.0,0.006035001804881146
1626.0,0.006035001804881146
1625.0,0.006035001804881146
1624.0,0.005990966876386672
1623.0,0.005858888873877532
1622.0,0.005682847330363394
1621.0,0.005506877116487674
1620.0,0.005462895701502157
1619.0,0.00541891874010525
1618.0,0.00541891874010525
1617.0,0.00537494623139545
1616.0,0.0052870145684298375
1615.0,0.005199100705396198
1614.0,0.005199100705396198
1613.0,0.005199100705396198
1612.0,0.005111204635089406
1611.0,0.005023326350308999
1610.0,0.004979393875242044
1609.0,0.004935465843858511
1608.0,0.00484762310854614
1607.0,0.004759798137184523
1606.0,0.004715892310740433
1605.0,0.004628093971837721
1604.0,0.004540313378935901
1603.0,0.0044964297349936455
1602.0,0.0044964297349936455
1601.0,0.004452550524862486
1600.0,0.004408675747646695
1599.0,0.0043648054024501
1598.0,0.004320939488377862
1597.0,0.004320939488377862
1596.0,0.004277078004534696
1595.0,0.004189368323957332
1594.0,0.004101676353562844
1593.0,0.00401400208620073
1592.0,0.00401400208620073
1591.0,0.003970171588923321
1590.0,0.003970171588923321
1589.0,0.003970171588923321
1588.0,0.003926345514724705
1587.0,0.0038387066319929275
1586.0,0.0037510854308679953
1585.0,0.0036634819042162814
1584.0,0.003619686766589858
1583.0,0.0035758960449088217
1582.0,0.0035758960449088217
1581.0,0.0035321097382827737
1580.0,0.003488327845821315
1579.0,0.0034445503666347133
1578.0,0.0034007772998332353
1577.0,0.0033570086445275926
1576.0,0.0033570086445275926
1575.0,0.0033570086445275926
1574.0,0.0034445503666347133
1573.0,0.0035321097382827737
1572.0,0.0035758960449088217
1571.0,0.0035758960449088217
1570.0,0.0035321097382827737
1569.0,0.0035758960449088217
1568.0,0.0035758960449088217
1567.0,0.0035758960449088217
1566.0,0.0035758960449088217
1565.0,0.0035321097382827737
1564.0,0.0035758960449088217
1563.0,0.003619686766589858
1562.0,0.0037510854308679953
1561.0,0.003707281458678491
1560.0,0.0035758960449088217
1559.0,0.0036634819042162814
1558.0,0.003619686766589858
1557.0,0.0036634819042162814
1556.0,0.0038387066319929275
1555.0,0.003970171588923321
1554.0,0.003926345514724705
1553.0,0.0038387066319929275
1552.0,0.003794893821675638
1551.0,0.003794893821675638
1550.0,0.003794893821675638
1549.0,0.003794893821675638
1548.0,0.0038387066319929275
1547.0,0.0038387066319929275
1546.0,0.0037510854308679953
1545.0,0.0036634819042162814
1544.0,0.003619686766589858
1543.0,0.0035758960449088217
1542.0,0.003488327845821315
1541.0,0.0035758960449088217
1540.0,0.003707281458678491
1539.0,0.0035321097382827737
1538.0,0.0033570086445275926
1537.0,0.0033570086445275926
1536.0,0.0033570086445275926
1535.0,0.0032694845648473247
1534.0,0.0031819781204844855
1533.0,0.0030944893043338695
1532.0,0.0030944893043338695
1531.0,0.0030944893043338695
1530.0,0.0030944893043338695
1529.0,0.003050751504618754
1528.0,0.003050751504618754
1527.0,0.0029632891174733444
1526.0,0.0028321285541661467
1525.0,0.0028321285541661467
1524.0,0.0028758443407954637
1523.0,0.0028321285541661467
1522.0,0.0027447101798967477
1521.0,0.002701007590486082
1520.0,0.002701007590486082
1519.0,0.002701007590486082
1518.0,0.0027447101798967477
1517.0,0.0027884171674950053
1516.0,0.0027884171674950053
1515.0,0.002701007590486082
1514.0,0.002613615602686581
1513.0,0.002569926202528716
1512.0,0.002569926202528716
1511.0,0.002569926202528716
1510.0,0.0025262411970197185
1509.0,0.002569926202528716
1508.0,0.002701007590486082
1507.0,0.0028321285541661467
1506.0,0.0027447101798967477
1505.0,0.0026573093983774942
1504.0,0.002701007590486082
1503.0,0.0027447101798967477
1502.0,0.0027884171674950053
1501.0,0.0028758443407954637
1500.0,0.0030070181092942683
1499.0,0.003050751504618754
1498.0,0.0030944893043338695
1497.0,0.0032257291386954545
1496.0,0.0033132443998284966
1495.0,0.0033132443998284966
1494.0,0.0032694845648473247
1493.0,0.0033132443998284966
1492.0,0.0033570086445275926
1491.0,0.0034007772998332353
1490.0,0.0035758960449088217
1489.0,0.003970171588923321
1488.0,0.0043648054024501
1487.0,0.00458420145758498
1486.0,0.004759798137184523
1485.0,0.005023326350308999
1484.0,0.005330978174470591
1483.0,0.005638848091999105
1482.0,0.006079041198713275
1481.0,0.006696062080525422
1480.0,0.007402303897961815
1479.0,0.008109696063975047
1478.0,0.008906891951112605
1477.0,0.010060986715464404
1476.0,0.011396456654336085
1475.0,0.012825498912458322
1474.0,0.015067833932588037
1473.0,0.01899731005860028
1472.0,0.023741750742954926
1471.0,0.027750864037404455
1470.0,0.031236951802751545
1469.0,0.03475124903287918
1468.0,0.038531444649213764
1467.0,0.042775942156833
1466.0,0.048225491918274965
1465.0,0.05458065739693696
1464.0,0.060131455540490375
1463.0,0.06348625752110681
1462.0,0.06529959828457499
1461.0,0.06636088747507496
1460.0,0.06712054217620067
1459.0,0.06813548650796819
1458.0,0.07058107428570715
1457.0,0.07417242537525759
1456.0,0.07613452481449845
1455.0,0.07618627890881036
1454.0,0.07566901529132153
1453.0,0.07499749231902242
1452.0,0.07406940213152868
1451.0,0.07252697900472405
1450.0,0.07022356719509815
1449.0,0.06681652082538614
1448.0,0.06223143295006417
1447.0,0.057049929922901255
1446.0,0.05212534510230182
1445.0,0.04754660357696672
1444.0,0.04339941178682327
1443.0,0.039909932095080425
1442.0,0.03720463014276687
1441.0,0.03526907894637077
1440.0,0.033905220553829274
1439.0,0.033201453616638954
1438.0,0.033201453616638954
1437.0,0.03367050483612166
1436.0,0.033482823553208085
1435.0,0.03207779326948268
1434.0,0.029746130405213123
1433.0,0.02677975314776626
1432.0,0.023604163388120325
1431.0,0.020724852408976924
1430.0,0.01845319495476394
1429.0,0.016734647433454652
1428.0,0.01547268665620738
1427.0,0.014618439768003144
1426.0,0.013945219230304673
1425.0,0.013273040668781544
1424.0,0.01264661126420652
1423.0,0.012289056869694281
1422.0,0.012021084124518078
1421.0,0.011664044143949504
1420.0,0.011218156546359825
1419.0,0.011039929609661936
1418.0,0.01086177578421088
1417.0,0.010639186223752484
1416.0,0.01037222925484893
1415.0,0.010149890396819572
1414.0,0.009972101229705377
1413.0,0.009705553871561357
1412.0,0.009483555971770974
1411.0,0.009350411681145587
1410.0,0.009261671492462709
1409.0,0.009039900317800775
1408.0,0.008818242332126802
1407.0,0.008685301823389224
1406.0,0.008596697419959609
1405.0,0.008375265465994541
1404.0,0.008198201155356077
1403.0,0.008153946355103248
1402.0,0.008109696063975047
1401.0,0.008021209005416363
1400.0,0.007888512213050314
1399.0,0.007888512213050314
1398.0,0.007932739972333236
1397.0,0.007844288957383316
1396.0,0.007755855953228474
1395.0,0.007844288957383316
1394.0,0.008021209005416363
1393.0,0.008065450281052211
1392.0,0.008198201155356077
1391.0,0.008463824699968647
1390.0,0.008995559669244813
1389.0,0.00974996707218323
1388.0,0.011084479487313281
1387.0,0.013362604389846044
1386.0,0.01646391839700767
1385.0,0.02036058777709271
1384.0,0.02562649291857677
1383.0,0.032873418923587305
1382.0,0.042201225070002124
1381.0,0.053596866100945384
1380.0,0.0671712330991534
1379.0,0.08207457793525874
1378.0,0.09604229147682952
1377.0,0.10612732120491852
1376.0,0.11036219959333216
1375.0,0.10723776538418317
1374.0,0.09761631556752848
1373.0,0.08507535179485148
1372.0,0.07283502570063005
1371.0,0.061880730805688344
1370.0,0.05232126006306337
1369.0,0.044456557540257124
1368.0,0.038721320914956836
1367.0,0.0349394793888016
1366.0,0.03263926003405038
1365.0,0.03147035562516054
1364.0,0.03128362253321426
1363.0,0.03207779326948268
1362.0,0.03357665405630694
1361.0,0.03512779136222477
1360.0,0.03621217265444465
1359.0,0.03649550058570927
1358.0,0.035740369803151095
1357.0,0.03409308450480819
1356.0,0.031657169041054534
1355.0,0.02890978686288448
1354.0,0.02617967564731627
1353.0,0.023787622882622816
1352.0,0.021819483062586187
1351.0,0.02013307743509718
1350.0,0.018725167293411005
1349.0,0.017547848615010242
1348.0,0.016599261819461697
1347.0,0.01578783323856614
1346.0,0.015067833932588037
1345.0,0.014438812226654996
1344.0,0.01385553528947936
1343.0,0.013317820220494436
1342.0,0.012825498912458322
1341.0,0.012467797270160563
1340.0,0.012199714248127602
1339.0,0.012065734767841452
1338.0,0.0119764380713403
1337.0,0.011931796607364653
1336.0,0.011931796607364653
1335.0,0.0119764380713403
1334.0,0.01215504982870197
1333.0,0.012423105273012602
1332.0,0.012691326268817527
1331.0,0.012914970375878188
1330.0,0.012959713020733288
1329.0,0.012914970375878188
1328.0,0.012736045877764557
1327.0,0.012467797270160563
1326.0,0.012110390002254778
1325.0,0.011664044143949504
1324.0,0.011218156546359825
1323.0,0.01086177578421088
1322.0,0.010594681998483901
1321.0,0.01037222925484893
1320.0,0.010149890396819572
1319.0,0.009883233932095559
1318.0,0.00966114521239847
1317.0,0.009483555971770974
1316.0,0.009350411681145587
1315.0,0.009217308196862062
1314.0,0.00908424549391551
1313.0,0.008995559669244813
1312.0,0.008995559669244813
1311.0,0.00908424549391551
1310.0,0.009261671492462709
1309.0,0.009705553871561357
1308.0,0.01037222925484893
1307.0,0.011262724711199823
1306.0,0.012110390002254778
1305.0,0.01264661126420652
1304.0,0.012780770091995297
1303.0,0.012557195064198723
1302.0,0.01215504982870197
1301.0,0.011797899741219142
1300.0,0.011619434777991433
1299.0,0.011574829993696856
1298.0,0.011574829993696856
1297.0,0.011530229790124524
1296.0,0.011485634166333858
1295.0,0.011307297450183107
1294.0,0.011039929609661936
1293.0,0.010683695010048622
1292.0,0.010283280051895272
1291.0,0.009838807101520963
1290.0,0.009483555971770974
1289.0,0.009172949432521227
1288.0,0.008906891951112605
1287.0,0.0087296108049002
1286.0,0.008552401996197112
1285.0,0.008375265465994541
1284.0,0.008198201155356077
1283.0,0.008021209005416363
1282.0,0.007932739972333236
1281.0,0.007888512213050314
1280.0,0.007844288957383316
1279.0,0.007755855953228474
1278.0,0.00762324020119709
1277.0,0.007534852191956709
1276.0,0.0074464821678643656
1275.0,0.0074464821678643656
1274.0,0.0074464821678643656
1273.0,0.0074464821678643656
1272.0,0.007490664932224611
1271.0,0.007534852191956709
1270.0,0.0075790439479759275
1269.0,0.0075790439479759275
1268.0,0.00762324020119709
1267.0,0.007711646202907652
1266.0,0.007800070204414977
1265.0,0.007932739972333236
1264.0,0.008109696063975047
1263.0,0.008330992620051436
1262.0,0.008596697419959609
1261.0,0.008995559669244813
1260.0,0.009527946474380489
1259.0,0.010194349063173958
1258.0,0.01086177578421088
1257.0,0.011441043121384498
1256.0,0.011797899741219142
1255.0,0.011797899741219142
1254.0,0.011485634166333858
1253.0,0.010906307389674463
1252.0,0.01023881228122181
1251.0,0.009572341514736404
1250.0,0.00908424549391551
1249.0,0.008773924307505121
1248.0,0.008596697419959609
1247.0,0.00850811108984062
1246.0,0.008419542825660153
1245.0,0.008286724286910463
1244.0,0.008109696063975047
1243.0,0.007932739972333236
1242.0,0.007800070204414977
1241.0,0.007755855953228474
1240.0,0.007755855953228474
1239.0,0.007755855953228474
1238.0,0.007711646202907652
1237.0,0.007667440952535687
1236.0,0.0075790439479759275
1235.0,0.0075790439479759275
1234.0,0.0075790439479759275
1233.0,0.007667440952535687
1232.0,0.007755855953228474
1231.0,0.007844288957383316
1230.0,0.007888512213050314
1229.0,0.007932739972333236
1228.0,0.007976972236149349
1227.0,0.008109696063975047
1226.0,0.008330992620051436
1225.0,0.008596697419959609
1224.0,0.008906891951112605
1223.0,0.009172949432521227
1222.0,0.009439170005980158
1221.0,0.009616741093766423
1220.0,0.009794384815193347
1219.0,0.009838807101520963
1218.0,0.009838807101520963
1217.0,0.009705553871561357
1216.0,0.009527946474380489
1215.0,0.009350411681145587
1214.0,0.009172949432521227
1213.0,0.009039900317800775
1212.0,0.008951223547323472
1211.0,0.008862564879688284
1210.0,0.008862564879688284
1209.0,0.008818242332126802
1208.0,0.008773924307505121
1207.0,0.008773924307505121
1206.0,0.0087296108049002
1205.0,0.0087296108049002
1204.0,0.0087296108049002
1203.0,0.008685301823389224
1202.0,0.008640997362049818
1201.0,0.008596697419959609
1200.0,0.008596697419959609
1199.0,0.008640997362049818
1198.0,0.008640997362049818
1197.0,0.008640997362049818
1196.0,0.008640997362049818
1195.0,0.008640997362049818
1194.0,0.008640997362049818
1193.0,0.008640997362049818
1192.0,0.008685301823389224
1191.0,0.0087296108049002
1190.0,0.008685301823389224
1189.0,0.008685301823389224
1188.0,0.008685301823389224
1187.0,0.008773924307505121
1186.0,0.008906891951112605
1185.0,0.009039900317800775
1184.0,0.009217308196862062
1183.0,0.009350411681145587
1182.0,0.009527946474380489
1181.0,0.00974996707218323
1180.0,0.009972101229705377
1179.0,0.010327752376126709
1178.0,0.01086177578421088
1177.0,0.011530229790124524
1176.0,0.012512493866907004
1175.0,0.013765869865004277
1174.0,0.01547268665620738
1173.0,0.01759307113620534
1172.0,0.020087589665283012
1171.0,0.022733787572707387
1170.0,0.025258095499050004
1169.0,0.027288159452933503
1168.0,0.028538594975413334
1167.0,0.028956208163971375
1166.0,0.02858497661500481
1165.0,0.0277045713888604
1164.0,0.026595025589939425
1163.0,0.025488307262671706
1162.0,0.024522236834125355
1161.0,0.023695883447997224
1160.0,0.02296266477531872
1159.0,0.02245929405346514
1158.0,0.022139270735302752
1157.0,0.021956506090037076
1156.0,0.021819483062586187
1155.0,0.02168250325324883
1154.0,0.021499930688540836
1153.0,0.021317434843055594
1152.0,0.0209982515252789
1151.0,0.020497151212598652
1150.0,0.019814763052665052
1149.0,0.0190880622231564
1148.0,0.018271974638383703
1147.0,0.017412209298337533
1146.0,0.016599261819461697
1145.0,0.01578783323856614
1144.0,0.015112798935672522
1143.0,0.01452861671041239
1142.0,0.014079779876432497
1141.0,0.013586594534531482
1140.0,0.013138729709955221
1139.0,0.012736045877764557
1138.0,0.012333735073725371
1137.0,0.0119764380713403
1136.0,0.011664044143949504
1135.0,0.011396456654336085
1134.0,0.01117359295472431
1133.0,0.010995384301463185
1132.0,0.01086177578421088
1131.0,0.01077272626946324
1130.0,0.010683695010048622
1129.0,0.010594681998483901
1128.0,0.010550182333308289
1127.0,0.010505687227290839
1126.0,0.010505687227290839
1125.0,0.010550182333308289
1124.0,0.010639186223752484
1123.0,0.010728208358306901
1122.0,0.010817248744452446
1121.0,0.01086177578421088
1120.0,0.01086177578421088
1119.0,0.01086177578421088
1118.0,0.010950843561779777
1117.0,0.011218156546359825
1116.0,0.011485634166333858
1115.0,0.011753276624621556
1114.0,0.011887159731648111
1113.0,0.012021084124518078
1112.0,0.012110390002254778
1111.0,0.012289056869694281
1110.0,0.012512493866907004
1109.0,0.012825498912458322
1108.0,0.013317820220494436
1107.0,0.01385553528947936
1106.0,0.0144837121472845
1105.0,0.014977917890464765
1104.0,0.01538268676325183
1103.0,0.015652742414136167
1102.0,0.015697768020096703
1101.0,0.015652742414136167
1100.0,0.01538268676325183
1099.0,0.015022873584506602
1098.0,0.014618439768003144
1097.0,0.014259258949925524
1096.0,0.013990068146738865
1095.0,0.013765869865004277
1094.0,0.013586594534531482
1093.0,0.013407393177789162
1092.0,0.013273040668781544
1091.0,0.013093968619278806
1090.0,0.012959713020733288
1089.0,0.012825498912458322
1088.0,0.012736045877764557
1087.0,0.01264661126420652
1086.0,0.012557195064198723
1085.0,0.012467797270160563
1084.0,0.012289056869694281
1083.0,0.012110390002254778
1082.0,0.0119764380713403
1081.0,0.011842527443247208
1080.0,0.011708658092512314
1079.0,0.011619434777991433
1078.0,0.011485634166333858
1077.0,0.011396456654336085
1076.0,0.011262724711199823
1075.0,0.011129033935354915
1074.0,0.01086177578421088
1073.0,0.010594681998483901
1072.0,0.01037222925484893
1071.0,0.010283280051895272
1070.0,0.01023881228122181
1069.0,0.01023881228122181
1068.0,0.010149890396819572
1067.0,0.009972101229705377
1066.0,0.009794384815193347
1065.0,0.00966114521239847
1064.0,0.009527946474380489
1063.0,0.009483555971770974
1062.0,0.009483555971770974
1061.0,0.009527946474380489
1060.0,0.009616741093766423
1059.0,0.00966114521239847
1058.0,0.009705553871561357
1057.0,0.009616741093766423
1056.0,0.009616741093766423
1055.0,0.00966114521239847
1054.0,0.009838807101520963
1053.0,0.01001654169860089
1052.0,0.010149890396819572
1051.0,0.01023881228122181
1050.0,0.010327752376126709
1049.0,0.01046119667949763
1048.0,0.010639186223752484
1047.0,0.010817248744452446
1046.0,0.011039929609661936
1045.0,0.011218156546359825
1044.0,0.011262724711199823
1043.0,0.01117359295472431
1042.0,0.011039929609661936
1041.0,0.010906307389674463
1040.0,0.010817248744452446
1039.0,0.01077272626946324
1038.0,0.010683695010048622
1037.0,0.010550182333308289
1036.0,0.010416710688994968
1035.0,0.010283280051895272
1034.0,0.01023881228122181
1033.0,0.010194349063173958
1032.0,0.010194349063173958
1031.0,0.010105436281226954
1030.0,0.009972101229705377
1029.0,0.009838807101520963
1028.0,0.00966114521239847
1027.0,0.009527946474380489
1026.0,0.009439170005980158
1025.0,0.00939478857608056
1024.0,0.00939478857608056
1023.0,0.009350411681145587
1022.0,0.009217308196862062
1021.0,0.00908424549391551
1020.0,0.009039900317800775
1019.0,0.00908424549391551
1018.0,0.009217308196862062
1017.0,0.009306039320248427
1016.0,0.009350411681145587
1015.0,0.009306039320248427
1014.0,0.009261671492462709
1013.0,0.009261671492462709
1012.0,0.00939478857608056
1011.0,0.00966114521239847
1010.0,0.009927665307847056
1009.0,0.01023881228122181
1008.0,0.010594681998483901
1007.0,0.011084479487313281
1006.0,0.011664044143949504
1005.0,0.012467797270160563
1004.0,0.013631406429727155
1003.0,0.01538268676325183
1002.0,0.01781925440359733
1001.0,0.020861530453190058
1000.0,0.024200690320592466
999.0,0.027056991894431892
998.0,0.02863136320857662
997.0,0.02849221828874393
996.0,0.026733563891471412
995.0,0.023925268380126097
994.0,0.020907099361673565
993.0,0.018181392829336396
992.0,0.016058141016111804
991.0,0.0144837121472845
990.0,0.013317820220494436
989.0,0.012423105273012602
988.0,0.011708658092512314
987.0,0.011218156546359825
986.0,0.010950843561779777
985.0,0.010906307389674463
984.0,0.011129033935354915
983.0,0.011574829993696856
982.0,0.012333735073725371
981.0,0.013407393177789162
980.0,0.015067833932588037
979.0,0.017367005605150476
978.0,0.02036058777709271
977.0,0.023971159908874107
976.0,0.027750864037404455
975.0,0.03128362253321426
974.0,0.03385826726096752
973.0,0.03484535401307465
972.0,0.03385826726096752
971.0,0.031096969696171817
970.0,0.027288159452933503
969.0,0.023329119375188556
968.0,0.01995115493504329
967.0,0.01727661233145472
966.0,0.015292705517326866
965.0,0.01381070026317599
964.0,0.01264661126420652
963.0,0.011753276624621556
962.0,0.010995384301463185
961.0,0.010327752376126709
960.0,0.00974996707218323
959.0,0.009217308196862062
958.0,0.008818242332126802
957.0,0.008552401996197112
956.0,0.008330992620051436
955.0,0.008153946355103248
954.0,0.007932739972333236
953.0,0.007667440952535687
952.0,0.0074464821678643656
951.0,0.007313960837872058
950.0,0.007269796045857202
949.0,0.007313960837872058
948.0,0.007313960837872058
947.0,0.007313960837872058
946.0,0.007402303897961815
945.0,0.007534852191956709
944.0,0.007844288957383316
943.0,0.008153946355103248
942.0,0.008463824699968647
941.0,0.008552401996197112
940.0,0.00850811108984062
939.0,0.008419542825660153
938.0,0.008153946355103248
937.0,0.007844288957383316
936.0,0.007402303897961815
935.0,0.007004901568658406
934.0,0.006696062080525422
933.0,0.006519680930003435
932.0,0.006387442061109638
931.0,0.006343371384537999
930.0,0.006299305179649828
929.0,0.006343371384537999
928.0,0.006431517210272464
927.0,0.006475596832934416
926.0,0.006519680930003435
925.0,0.006475596832934416
924.0,0.006387442061109638
923.0,0.006343371384537999
922.0,0.006299305179649828
921.0,0.006387442061109638
920.0,0.006475596832934416
919.0,0.006607862550997545
918.0,0.006696062080525422
917.0,0.006740168563263094
916.0,0.006696062080525422
915.0,0.006696062080525422
914.0,0.006651960076740071
913.0,0.006607862550997545
912.0,0.006651960076740071
911.0,0.006696062080525422
910.0,0.006740168563263094
909.0,0.006828394969235152
908.0,0.00696076819309055
907.0,0.007225635744644521
906.0,0.007711646202907652
905.0,0.00850811108984062
904.0,0.009616741093766423
903.0,0.010950843561779777
902.0,0.012467797270160563
901.0,0.013900374944870508
900.0,0.014977917890464765
899.0,0.01538268676325183
898.0,0.014977917890464765
897.0,0.01385553528947936
896.0,0.012423105273012602
895.0,0.010950843561779777
894.0,0.00966114521239847
893.0,0.008640997362049818
892.0,0.007932739972333236
891.0,0.007490664932224611
890.0,0.007225635744644521
889.0,0.007093181776687496
888.0,0.006916639301937977
887.0,0.006740168563263094
886.0,0.006475596832934416
885.0,0.006167133386013823
884.0,0.005946936412324799
883.0,0.005946936412324799
882.0,0.006079041198713275
881.0,0.00625524344553785
880.0,0.006431517210272464
879.0,0.00656376950238835
878.0,0.006607862550997545
877.0,0.006651960076740071
876.0,0.006740168563263094
875.0,0.006916639301937977
874.0,0.007049039429553483
873.0,0.007093181776687496
872.0,0.007093181776687496
871.0,0.007093181776687496
870.0,0.007137328610972382
869.0,0.007181479933320523
868.0,0.007225635744644521
867.0,0.007269796045857202
866.0,0.007313960837872058
865.0,0.007358130121602358
864.0,0.0074464821678643656
863.0,0.007534852191956709
862.0,0.007534852191956709
861.0,0.007534852191956709
860.0,0.0075790439479759275
859.0,0.007711646202907652
858.0,0.007976972236149349
857.0,0.008109696063975047
856.0,0.008198201155356077
855.0,0.008198201155356077
854.0,0.008330992620051436
853.0,0.00850811108984062
852.0,0.008640997362049818
851.0,0.008818242332126802
850.0,0.008995559669244813
849.0,0.009350411681145587
848.0,0.009927665307847056
847.0,0.01086177578421088
846.0,0.012378417874516323
845.0,0.014663358264387139
844.0,0.017955020928509757
843.0,0.021865152601710403
842.0,0.02521206778644225
841.0,0.026502691267936695
840.0,0.02521206778644225
839.0,0.021956506090037076
838.0,0.018181392829336396
837.0,0.015067833932588037
836.0,0.012914970375878188
835.0,0.011530229790124524
834.0,0.010639186223752484
833.0,0.01001654169860089
832.0,0.009483555971770974
831.0,0.008995559669244813
830.0,0.008552401996197112
829.0,0.008153946355103248
828.0,0.007844288957383316
827.0,0.007711646202907652
826.0,0.00762324020119709
825.0,0.0075790439479759275
824.0,0.007490664932224611
823.0,0.007402303897961815
822.0,0.007402303897961815
821.0,0.007534852191956709
820.0,0.007711646202907652
819.0,0.007976972236149349
818.0,0.008286724286910463
817.0,0.008640997362049818
816.0,0.009128595198514056
815.0,0.009883233932095559
814.0,0.011129033935354915
813.0,0.012780770091995297
812.0,0.014618439768003144
811.0,0.01632861713980338
810.0,0.017638298366853045
809.0,0.018362575344230914
808.0,0.018271974638383703
807.0,0.017502630802287644
806.0,0.01628352608625061
805.0,0.015022873584506602
804.0,0.01385553528947936
803.0,0.012914970375878188
802.0,0.012065734767841452
801.0,0.011351874764248926
800.0,0.01077272626946324
799.0,0.010416710688994968
798.0,0.010105436281226954
797.0,0.009883233932095559
796.0,0.009616741093766423
795.0,0.009439170005980158
794.0,0.009217308196862062
793.0,0.008995559669244813
792.0,0.008773924307505121
791.0,0.008552401996197112
790.0,0.008330992620051436
789.0,0.008153946355103248
788.0,0.007932739972333236
787.0,0.00762324020119709
786.0,0.007313960837872058
785.0,0.007004901568658406
784.0,0.006784279525863024
783.0,0.006607862550997545
782.0,0.006387442061109638
781.0,0.00612308505878878
780.0,0.00577085918230158
779.0,0.005462895701502157
778.0,0.005243055412371911
777.0,0.005067263269958211
776.0,0.004935465843858511
775.0,0.004759798137184523
774.0,0.004540313378935901
773.0,0.004320939488377862
772.0,0.004233220950025984
771.0,0.004145520125434121
770.0,0.004101676353562844
769.0,0.003970171588923321
768.0,0.0038387066319929275
767.0,0.003794893821675638
766.0,0.003794893821675638
765.0,0.0038825238627120395
764.0,0.003970171588923321
763.0,0.004101676353562844
762.0,0.004145520125434121
761.0,0.004233220950025984
760.0,0.004408675747646695
759.0,0.0044964297349936455
758.0,0.0044964297349936455
757.0,0.0043648054024501
756.0,0.004277078004534696
755.0,0.0043648054024501
754.0,0.00458420145758498
753.0,0.004803708402820517
752.0,0.004935465843858511
751.0,0.005111204635089406
750.0,0.005243055412371911
749.0,0.005330978174470591
748.0,0.00541891874010525
747.0,0.00541891874010525
746.0,0.00537494623139545
745.0,0.005330978174470591
744.0,0.00541891874010525
743.0,0.005594853310833647
742.0,0.005814871797682919
741.0,0.005946936412324799
740.0,0.005946936412324799
739.0,0.00577085918230158
738.0,0.005550862985963967
737.0,0.0052870145684298375
736.0,0.005155150446602086
735.0,0.005111204635089406
734.0,0.005243055412371911
733.0,0.00541891874010525
732.0,0.005550862985963967
731.0,0.005550862985963967
730.0,0.005506877116487674
729.0,0.00541891874010525
728.0,0.0052870145684298375
727.0,0.005023326350308999
726.0,0.004759798137184523
725.0,0.004628093971837721
724.0,0.004671990922590297
723.0,0.004803708402820517
722.0,0.004803708402820517
721.0,0.004540313378935901
720.0,0.004189368323957332
719.0,0.0038387066319929275
718.0,0.0035758960449088217
717.0,0.003488327845821315
716.0,0.0035321097382827737
715.0,0.0037510854308679953
714.0,0.0040578370074493275
713.0,0.004233220950025984
712.0,0.004233220950025984
711.0,0.004145520125434121
710.0,0.00401400208620073
709.0,0.003970171588923321
708.0,0.004101676353562844
707.0,0.004408675747646695
706.0,0.004715892310740433
705.0,0.004671990922590297
704.0,0.0043648054024501
703.0,0.004101676353562844
702.0,0.004189368323957332
701.0,0.004452550524862486
700.0,0.004715892310740433
699.0,0.004759798137184523
698.0,0.004671990922590297
697.0,0.004540313378935901
696.0,0.0044964297349936455
695.0,0.00458420145758498
694.0,0.004715892310740433
693.0,0.00484762310854614
692.0,0.004935465843858511
691.0,0.005067263269958211
690.0,0.005243055412371911
689.0,0.00541891874010525
688.0,0.005682847330363394
687.0,0.006167133386013823
686.0,0.006828394969235152
685.0,0.0074464821678643656
684.0,0.007800070204414977
683.0,0.007755855953228474
682.0,0.00762324020119709
681.0,0.007402303897961815
680.0,0.007137328610972382
679.0,0.006740168563263094
678.0,0.006387442061109638
677.0,0.006167133386013823
676.0,0.006167133386013823
675.0,0.006343371384537999
674.0,0.006696062080525422
673.0,0.007049039429553483
672.0,0.007049039429553483
671.0,0.006343371384537999
670.0,0.004671990922590297
669.0,0.0023078820582733695
668.0,0.0009565003968372565
667.0,0.0015662811355310335
666.0,0.0026573093983774942
665.0,0.0032257291386954545
664.0,0.0032694845648473247
663.0,0.003050751504618754
662.0,0.0031382315093266833
661.0,0.0037510854308679953
660.0,0.004759798137184523
659.0,0.005594853310833647
658.0,0.00590291041179003
657.0,0.00541891874010525
656.0,0.004540313378935901
655.0,0.0040578370074493275
654.0,0.004277078004534696
653.0,0.004979393875242044
652.0,0.005594853310833647
651.0,0.005858888873877532
650.0,0.00590291041179003
649.0,0.00590291041179003
648.0,0.00577085918230158
647.0,0.00541891874010525
646.0,0.005023326350308999
645.0,0.004759798137184523
644.0,0.004671990922590297
643.0,0.004671990922590297
642.0,0.00489154225525934
641.0,0.005506877116487674
640.0,0.006387442061109638
639.0,0.007181479933320523
638.0,0.007711646202907652
637.0,0.008242460465651913
636.0,0.00908424549391551
635.0,0.010060986715464404
634.0,0.010194349063173958
633.0,0.009217308196862062
632.0,0.007755855953228474
631.0,0.006828394969235152
630.0,0.006740168563263094
629.0,0.007093181776687496
628.0,0.007667440952535687
627.0,0.008375265465994541
626.0,0.009039900317800775
625.0,0.009439170005980158
624.0,0.009572341514736404
623.0,0.009483555971770974
622.0,0.009527946474380489
621.0,0.009927665307847056
620.0,0.01046119667949763
619.0,0.010817248744452446
618.0,0.010550182333308289
617.0,0.00966114521239847
616.0,0.008596697419959609
615.0,0.007888512213050314
614.0,0.007490664932224611
613.0,0.007181479933320523
612.0,0.006607862550997545
611.0,0.005726851026829571
610.0,0.005111204635089406
609.0,0.0052870145684298375
608.0,0.00656376950238835
607.0,0.008153946355103248
606.0,0.008951223547323472
605.0,0.008419542825660153
604.0,0.006740168563263094
603.0,0.004540313378935901
602.0,0.002569926202528716
601.0,0.0015226969634936083
600.0,0.0019587356365717845
