cm-1,A
4000.0,0.00017375254558760211
3999.0,0.0001303078917322953
3998.0,8.686758342868472e-05
3997.0,4.343161980746579e-05
3996.0,0.0
3995.0,0.0
3994.0,0.0
3993.0,0.0
3992.0,4.343161980746579e-05
3991.0,8.686758342868472e-05
3990.0,8.686758342868472e-05
3989.0,4.343161980746579e-05
3988.0,4.343161980746579e-05
3987.0,4.343161980746579e-05
3986.0,8.686758342868472e-05
3985.0,0.0001303078917322953
3984.0,0.0001303078917322953
3983.0,8.686758342868472e-05
3982.0,4.343161980746579e-05
3981.0,4.343161980746579e-05
3980.0,4.343161980746579e-05
3979.0,8.686758342868472e-05
3978.0,8.686758342868472e-05
3977.0,0.0001303078917322953
3976.0,0.0001303078917322953
3975.0,8.686758342868472e-05
3974.0,4.343161980746579e-05
3973.0,0.0
3972.0,0.0
3971.0,8.686758342868472e-05
3970.0,0.00021720154586435392
3969.0,0.00030411258916074324
3968.0,0.0003475746339209884
3967.0,0.00030411258916074324
3966.0,0.00017375254558760211
3965.0,4.343161980746579e-05
3964.0,-4.3427276862573194e-05
3963.0,-0.00013026880522692963
3962.0,-0.00017368305846510168
3961.0,-0.00021709297223004853
3960.0,-0.0002604985473904087
3959.0,-0.00021709297223004853
3958.0,-0.00017368305846510168
3957.0,-0.00013026880522692963
3956.0,-0.00013026880522692963
3955.0,-0.00013026880522692963
3954.0,-0.00017368305846510168
3953.0,-0.00021709297223004853
3952.0,-0.0002604985473904087
3951.0,-0.0003472966853634851
3950.0,-0.0003472966853634851
3949.0,-0.0003472966853634851
3948.0,-0.0002604985473904087
3947.0,-8.685021164911433e-05
3946.0,8.686758342868472e-05
3945.0,0.0001303078917322953
3944.0,8.686758342868472e-05
3943.0,0.0
3942.0,-8.685021164911433e-05
3941.0,-0.00013026880522692963
3940.0,-8.685021164911433e-05
3939.0,-4.3427276862573194e-05
3938.0,-4.3427276862573194e-05
3937.0,-4.3427276862573194e-05
3936.0,-8.685021164911433e-05
3935.0,-0.00013026880522692963
3934.0,-0.00013026880522692963
3933.0,-0.00017368305846510168
3932.0,-0.00013026880522692963
3931.0,-0.00013026880522692963
3930.0,-0.00017368305846510168
3929.0,-0.00030389978481260016
3928.0,-0.0003906892499099257
3927.0,-0.00043407747931878404
3926.0,-0.0004774613744551459
3925.0,-0.0004774613744551459
3924.0,-0.0003906892499099257
3923.0,-0.0002604985473904087
3922.0,-8.685021164911433e-05
3921.0,4.343161980746579e-05
3920.0,0.0001303078917322953
3919.0,0.00017375254558760211
3918.0,0.00017375254558760211
3917.0,8.686758342868472e-05
3916.0,-4.3427276862573194e-05
3915.0,-0.00017368305846510168
3914.0,-0.00030389978481260016
3913.0,-0.0003906892499099257
3912.0,-0.00043407747931878404
3911.0,-0.00043407747931878404
3910.0,-0.00043407747931878404
3909.0,-0.0003906892499099257
3908.0,-0.0003472966853634851
3907.0,-0.00030389978481260016
3906.0,-0.00030389978481260016
3905.0,-0.0003472966853634851
3904.0,-0.0003472966853634851
3903.0,-0.00030389978481260016
3902.0,-0.0002604985473904087
3901.0,-0.00030389978481260016
3900.0,-0.00030389978481260016
3899.0,-0.0002604985473904087
3898.0,-0.00013026880522692963
3897.0,-4.3427276862573194e-05
3896.0,8.686758342868472e-05
3895.0,8.686758342868472e-05
3894.0,8.686758342868472e-05
3893.0,0.0
3892.0,-4.3427276862573194e-05
3891.0,-4.3427276862573194e-05
3890.0,8.686758342868472e-05
3889.0,0.00026065489343207737
3888.0,0.0004779868710962365
3887.0,0.0005649501236701937
3886.0,0.00043451177401765406
3885.0,0.00026065489343207737
3884.0,0.0001303078917322953
3883.0,0.0001303078917322953
3882.0,0.00017375254558760211
3881.0,0.00021720154586435392
3880.0,0.00021720154586435392
3879.0,0.00021720154586435392
3878.0,0.00017375254558760211
3877.0,0.00021720154586435392
3876.0,0.00026065489343207737
3875.0,0.00026065489343207737
3874.0,0.00030411258916074324
3873.0,0.00021720154586435392
3872.0,0.0
3871.0,-0.00030389978481260016
3870.0,-0.0005208409361854294
3869.0,-0.0005208409361854294
3868.0,-0.00043407747931878404
3867.0,-0.00030389978481260016
3866.0,-0.0003472966853634851
3865.0,-0.0003472966853634851
3864.0,-0.0002604985473904087
3863.0,-8.685021164911433e-05
3862.0,8.686758342868472e-05
3861.0,0.00017375254558760211
3860.0,8.686758342868472e-05
3859.0,-4.3427276862573194e-05
3858.0,-0.00021709297223004853
3857.0,-0.00030389978481260016
3856.0,-0.00017368305846510168
3855.0,0.0
3854.0,0.00017375254558760211
3853.0,0.0003910410285830057
3852.0,0.000521466320689834
3851.0,0.0005649501236701937
3850.0,0.0004779868710962365
3849.0,0.0003475746339209884
3848.0,0.00021720154586435392
3847.0,0.00017375254558760211
3846.0,8.686758342868472e-05
3845.0,4.343161980746579e-05
3844.0,-8.685021164911433e-05
3843.0,-0.00017368305846510168
3842.0,-0.00013026880522692963
3841.0,-4.3427276862573194e-05
3840.0,4.343161980746579e-05
3839.0,4.343161980746579e-05
3838.0,0.0
3837.0,0.0
3836.0,0.0
3835.0,4.343161980746579e-05
3834.0,8.686758342868472e-05
3833.0,4.343161980746579e-05
3832.0,0.0
3831.0,-4.3427276862573194e-05
3830.0,4.343161980746579e-05
3829.0,0.0001303078917322953
3828.0,0.00017375254558760211
3827.0,0.0001303078917322953
3826.0,8.686758342868472e-05
3825.0,0.0001303078917322953
3824.0,0.00030411258916074324
3823.0,0.0003910410285830057
3822.0,0.00026065489343207737
3821.0,8.686758342868472e-05
3820.0,4.343161980746579e-05
3819.0,0.00017375254558760211
3818.0,0.00030411258916074324
3817.0,0.0003910410285830057
3816.0,0.0003475746339209884
3815.0,0.00026065489343207737
3814.0,0.0001303078917322953
3813.0,4.343161980746579e-05
3812.0,-8.685021164911433e-05
3811.0,-8.685021164911433e-05
3810.0,0.0
3809.0,0.00021720154586435392
3808.0,0.0003475746339209884
3807.0,0.00043451177401765406
3806.0,0.00043451177401765406
3805.0,0.00043451177401765406
3804.0,0.00043451177401765406
3803.0,0.00030411258916074324
3802.0,0.0001303078917322953
3801.0,4.343161980746579e-05
3800.0,8.686758342868472e-05
3799.0,8.686758342868472e-05
3798.0,8.686758342868472e-05
3797.0,8.686758342868472e-05
3796.0,0.00017375254558760211
3795.0,0.00026065489343207737
3794.0,0.00030411258916074324
3793.0,0.00030411258916074324
3792.0,0.00030411258916074324
3791.0,0.0003475746339209884
3790.0,0.0004779868710962365
3789.0,0.0006084382809090627
3788.0,0.0006954276616513155
3787.0,0.0006954276616513155
3786.0,0.0005649501236701937
3785.0,0.00043451177401765406
3784.0,0.00026065489343207737
3783.0,0.00021720154586435392
3782.0,0.00026065489343207737
3781.0,0.00026065489343207737
3780.0,0.00021720154586435392
3779.0,0.00021720154586435392
3778.0,0.00021720154586435392
3777.0,0.00026065489343207737
3776.0,0.00030411258916074324
3775.0,0.0003475746339209884
3774.0,0.0003475746339209884
3773.0,0.0003910410285830057
3772.0,0.0004779868710962365
3771.0,0.0004779868710962365
3770.0,0.0004779868710962365
3769.0,0.0004779868710962365
3768.0,0.0004779868710962365
3767.0,0.000521466320689834
3766.0,0.000521466320689834
3765.0,0.0004779868710962365
3764.0,0.0004779868710962365
3763.0,0.00043451177401765406
3762.0,0.00043451177401765406
3761.0,0.00043451177401765406
3760.0,0.0004779868710962365
3759.0,0.000521466320689834
3758.0,0.000521466320689834
3757.0,0.00043451177401765406
3756.0,0.0003475746339209884
3755.0,0.00030411258916074324
3754.0,0.00021720154586435392
3753.0,4.343161980746579e-05
3752.0,-0.0002604985473904087
3751.0,-0.0003906892499099257
3750.0,-0.00043407747931878404
3749.0,-0.00043407747931878404
3748.0,-0.00043407747931878404
3747.0,-0.0003906892499099257
3746.0,-0.00030389978481260016
3745.0,-0.00017368305846510168
3744.0,4.343161980746579e-05
3743.0,0.00026065489343207737
3742.0,0.0003475746339209884
3741.0,0.00026065489343207737
3740.0,0.00017375254558760211
3739.0,0.00017375254558760211
3738.0,0.0003910410285830057
3737.0,0.0006954276616513155
3736.0,0.0008259444115150671
3735.0,0.0007824344698965646
3734.0,0.0006084382809090627
3733.0,0.0003910410285830057
3732.0,0.00026065489343207737
3731.0,0.00017375254558760211
3730.0,8.686758342868472e-05
3729.0,4.343161980746579e-05
3728.0,4.343161980746579e-05
3727.0,8.686758342868472e-05
3726.0,0.00017375254558760211
3725.0,0.00030411258916074324
3724.0,0.0003910410285830057
3723.0,0.0003910410285830057
3722.0,0.0003475746339209884
3721.0,0.0003475746339209884
3720.0,0.0003475746339209884
3719.0,0.00043451177401765406
3718.0,0.00043451177401765406
3717.0,0.00043451177401765406
3716.0,0.0003910410285830057
3715.0,0.0003910410285830057
3714.0,0.0003910410285830057
3713.0,0.0003910410285830057
3712.0,0.0003475746339209884
3711.0,0.0003910410285830057
3710.0,0.00043451177401765406
3709.0,0.00043451177401765406
3708.0,0.0004779868710962365
3707.0,0.0004779868710962365
3706.0,0.000521466320689834
3705.0,0.0006084382809090627
3704.0,0.0007824344698965646
3703.0,0.0009565003968372565
3702.0,0.0010000277816797354
3701.0,0.0009129773741116676
3700.0,0.0007824344698965646
3699.0,0.0006954276616513155
3698.0,0.0006954276616513155
3697.0,0.0006954276616513155
3696.0,0.0006954276616513155
3695.0,0.0006519307932786322
3694.0,0.000521466320689834
3693.0,0.00043451177401765406
3692.0,0.00043451177401765406
3691.0,0.0004779868710962365
3690.0,0.0006084382809090627
3689.0,0.0007389288868995258
3688.0,0.0008259444115150671
3687.0,0.0008259444115150671
3686.0,0.0008259444115150671
3685.0,0.0007824344698965646
3684.0,0.0007389288868995258
3683.0,0.0007389288868995258
3682.0,0.0007824344698965646
3681.0,0.0008259444115150671
3680.0,0.0008259444115150671
3679.0,0.000869458712629001
3678.0,0.0009565003968372565
3677.0,0.0010000277816797354
3676.0,0.0010000277816797354
3675.0,0.0010000277816797354
3674.0,0.0010435595295137379
3673.0,0.0011306361176557367
3672.0,0.0012177301682640973
3671.0,0.0011741809597138886
3670.0,0.0010870956412141197
3669.0,0.0009565003968372565
3668.0,0.000869458712629001
3667.0,0.0007824344698965646
3666.0,0.0007824344698965646
3665.0,0.0007824344698965646
3664.0,0.0008259444115150671
3663.0,0.0008259444115150671
3662.0,0.0008259444115150671
3661.0,0.0007389288868995258
3660.0,0.0006519307932786322
3659.0,0.0005649501236701937
3658.0,0.0004779868710962365
3657.0,0.00043451177401765406
3656.0,0.0003910410285830057
3655.0,0.0003910410285830057
3654.0,0.00043451177401765406
3653.0,0.000521466320689834
3652.0,0.0006084382809090627
3651.0,0.0006519307932786322
3650.0,0.0006954276616513155
3649.0,0.0007824344698965646
3648.0,0.0009129773741116676
3647.0,0.0009565003968372565
3646.0,0.0009565003968372565
3645.0,0.0009129773741116676
3644.0,0.000869458712629001
3643.0,0.000869458712629001
3642.0,0.000869458712629001
3641.0,0.0009129773741116676
3640.0,0.0010000277816797354
3639.0,0.0010435595295137379
3638.0,0.0010000277816797354
3637.0,0.0009565003968372565
3636.0,0.0009129773741116676
3635.0,0.0008259444115150671
3634.0,0.0007389288868995258
3633.0,0.0007824344698965646
3632.0,0.0009565003968372565
3631.0,0.0011306361176557367
3630.0,0.0011306361176557367
3629.0,0.0010435595295137379
3628.0,0.0010870956412141197
3627.0,0.0011741809597138886
3626.0,0.0012177301682640973
3625.0,0.0012177301682640973
3624.0,0.0012177301682640973
3623.0,0.0012177301682640973
3622.0,0.0012612837441823288
3621.0,0.001348404001626502
3620.0,0.0013919706849057079
3619.0,0.0015226969634936083
3618.0,0.0016534626036355249
3617.0,0.0017406615763013722
3616.0,0.0018714928717336043
3615.0,0.001915112063444413
3614.0,0.0019587356365717845
3613.0,0.0018714928717336043
3612.0,0.0018278780605593958
3611.0,0.0017842676290416026
3610.0,0.0017842676290416026
3609.0,0.0018278780605593958
3608.0,0.0019587356365717845
3607.0,0.0020459959305969555
3606.0,0.0021332737608552588
3605.0,0.0022642234021015284
3604.0,0.002395212539545666
3603.0,0.002569926202528716
3602.0,0.002701007590486082
3601.0,0.0028321285541661467
3600.0,0.0029195645282691363
3599.0,0.0029632891174733444
3598.0,0.0029195645282691363
3597.0,0.0028758443407954637
3596.0,0.0027884171674950053
3595.0,0.002701007590486082
3594.0,0.002701007590486082
3593.0,0.0028321285541661467
3592.0,0.0030944893043338695
3591.0,0.0034007772998332353
3590.0,0.003707281458678491
3589.0,0.0038825238627120395
3588.0,0.003926345514724705
3587.0,0.0040578370074493275
3586.0,0.004277078004534696
3585.0,0.0044964297349936455
3584.0,0.004671990922590297
3583.0,0.004759798137184523
3582.0,0.004759798137184523
3581.0,0.004759798137184523
3580.0,0.004759798137184523
3579.0,0.004759798137184523
3578.0,0.004759798137184523
3577.0,0.004803708402820517
3576.0,0.00489154225525934
3575.0,0.005023326350308999
3574.0,0.005199100705396198
3573.0,0.00537494623139545
3572.0,0.005462895701502157
3571.0,0.005594853310833647
3570.0,0.005814871797682919
3569.0,0.00612308505878878
3568.0,0.006475596832934416
3567.0,0.006784279525863024
3566.0,0.006828394969235152
3565.0,0.006784279525863024
3564.0,0.006696062080525422
3563.0,0.006696062080525422
3562.0,0.006740168563263094
3561.0,0.006828394969235152
3560.0,0.006828394969235152
3559.0,0.006784279525863024
3558.0,0.006828394969235152
3557.0,0.007004901568658406
3556.0,0.007225635744644521
3555.0,0.0074464821678643656
3554.0,0.0075790439479759275
3553.0,0.007667440952535687
3552.0,0.007711646202907652
3551.0,0.007755855953228474
3550.0,0.007844288957383316
3549.0,0.007888512213050314
3548.0,0.007976972236149349
3547.0,0.008065450281052211
3546.0,0.008153946355103248
3545.0,0.008198201155356077
3544.0,0.008242460465651913
3543.0,0.008153946355103248
3542.0,0.008109696063975047
3541.0,0.008109696063975047
3540.0,0.008198201155356077
3539.0,0.008286724286910463
3538.0,0.008330992620051436
3537.0,0.008419542825660153
3536.0,0.008552401996197112
3535.0,0.0087296108049002
3534.0,0.008906891951112605
3533.0,0.009128595198514056
3532.0,0.00939478857608056
3531.0,0.009616741093766423
3530.0,0.009838807101520963
3529.0,0.009927665307847056
3528.0,0.009927665307847056
3527.0,0.009883233932095559
3526.0,0.009927665307847056
3525.0,0.009972101229705377
3524.0,0.010105436281226954
3523.0,0.01023881228122181
3522.0,0.01037222925484893
3521.0,0.010505687227290839
3520.0,0.010639186223752484
3519.0,0.01077272626946324
3518.0,0.01086177578421088
3517.0,0.010950843561779777
3516.0,0.010950843561779777
3515.0,0.010906307389674463
3514.0,0.010817248744452446
3513.0,0.010728208358306901
3512.0,0.010728208358306901
3511.0,0.010906307389674463
3510.0,0.01117359295472431
3509.0,0.011485634166333858
3508.0,0.011664044143949504
3507.0,0.011664044143949504
3506.0,0.011619434777991433
3505.0,0.011530229790124524
3504.0,0.011485634166333858
3503.0,0.011441043121384498
3502.0,0.011396456654336085
3501.0,0.011262724711199823
3500.0,0.011084479487313281
3499.0,0.010817248744452446
3498.0,0.01046119667949763
3497.0,0.010149890396819572
3496.0,0.009972101229705377
3495.0,0.009972101229705377
3494.0,0.009927665307847056
3493.0,0.009838807101520963
3492.0,0.00966114521239847
3491.0,0.009483555971770974
3490.0,0.009350411681145587
3489.0,0.009128595198514056
3488.0,0.008773924307505121
3487.0,0.008375265465994541
3486.0,0.008021209005416363
3485.0,0.007844288957383316
3484.0,0.007755855953228474
3483.0,0.007711646202907652
3482.0,0.0075790439479759275
3481.0,0.007313960837872058
3480.0,0.00696076819309055
3479.0,0.006607862550997545
3478.0,0.006387442061109638
3477.0,0.00625524344553785
3476.0,0.006167133386013823
3475.0,0.006035001804881146
3474.0,0.005814871797682919
3473.0,0.005506877116487674
3472.0,0.005199100705396198
3471.0,0.004979393875242044
3470.0,0.00484762310854614
3469.0,0.004759798137184523
3468.0,0.00458420145758498
3467.0,0.004320939488377862
3466.0,0.003970171588923321
3465.0,0.003619686766589858
3464.0,0.0033570086445275926
3463.0,0.0031382315093266833
3462.0,0.0029195645282691363
3461.0,0.002701007590486082
3460.0,0.002482560585275184
3459.0,0.0022642234021015284
3458.0,0.0020459959305969555
3457.0,0.0018278780605593958
3456.0,0.0016534626036355249
3455.0,0.0015662811355310335
3454.0,0.0014791171649619628
3453.0,0.0013919706849057079
3452.0,0.001304841688344327
3451.0,0.0011306361176557367
3450.0,0.0009565003968372565
3449.0,0.0006954276616513155
3448.0,0.00043451177401765406
3447.0,0.00017375254558760211
3446.0,0.0
3445.0,-0.00013026880522692963
3444.0,-0.0002604985473904087
3443.0,-0.00043407747931878404
3442.0,-0.0006943158663546001
3441.0,-0.0009977303577937136
3440.0,-0.001257631312230778
3439.0,-0.0014308122463981832
3438.0,-0.0015173768235041685
3437.0,-0.0015606526425728795
3436.0,-0.0016904542321527494
3435.0,-0.0018634626925240205
3434.0,-0.0021228462251614566
3433.0,-0.0024252646779014952
3432.0,-0.002684312989729598
3431.0,-0.002900068611387585
3430.0,-0.0030725959676747294
3429.0,-0.0032450548131470747
3428.0,-0.0034174452021935586
3427.0,-0.003762020828246282
3426.0,-0.004192356259714369
3425.0,-0.004622265700782613
3424.0,-0.004837060938309712
3423.0,-0.004794110388711914
3422.0,-0.004708196544336296
3421.0,-0.004751155591001144
3420.0,-0.004965887106823441
3419.0,-0.005309236848516363
3418.0,-0.005609445360280407
3417.0,-0.005738042651424635
3416.0,-0.005695181118510195
3415.0,-0.005566571133294396
3414.0,-0.005480809979401258
3413.0,-0.00552369267327979
3412.0,-0.005609445360280407
3411.0,-0.005780899954652252
3410.0,-0.006037954997317296
3409.0,-0.0062948579813855154
3408.0,-0.006508827775289827
3407.0,-0.006551609086648202
3406.0,-0.00659438618413688
3405.0,-0.0066799277408255975
3404.0,-0.006936451364292662
3403.0,-0.007278247334244092
3402.0,-0.007449044497748858
3401.0,-0.0074063515036710825
3400.0,-0.007150105366684922
3399.0,-0.006850960324272126
3398.0,-0.0067226922016847546
3397.0,-0.0067226922016847546
3396.0,-0.006765452451992449
3395.0,-0.006850960324272126
3394.0,-0.007021925578680754
3393.0,-0.007278247334244092
3392.0,-0.007449044497748858
3391.0,-0.007449044497748858
3390.0,-0.007235537545951853
3389.0,-0.00697919057427665
3388.0,-0.006765452451992449
3387.0,-0.006765452451992449
3386.0,-0.0068937079479005625
3385.0,-0.007150105366684922
3384.0,-0.0074063515036710825
3383.0,-0.007619774517403144
3382.0,-0.0077051143647803855
3381.0,-0.007577098304338836
3380.0,-0.007320952922744706
3379.0,-0.007064656378331868
3378.0,-0.00697919057427665
3377.0,-0.007064656378331868
3376.0,-0.007235537545951853
3375.0,-0.007320952922744706
3374.0,-0.007320952922744706
3373.0,-0.007278247334244092
3372.0,-0.007278247334244092
3371.0,-0.007278247334244092
3370.0,-0.007192823557040651
3369.0,-0.006936451364292662
3368.0,-0.0066799277408255975
3367.0,-0.0064660422492317515
3366.0,-0.006423252507643085
3365.0,-0.006423252507643085
3364.0,-0.0064660422492317515
3363.0,-0.006423252507643085
3362.0,-0.0063376603745508575
3361.0,-0.006252051369364686
3360.0,-0.006123606211854593
3359.0,-0.005909446494558601
3358.0,-0.005738042651424635
3357.0,-0.005609445360280407
3356.0,-0.005566571133294396
3355.0,-0.0054379230508221355
3354.0,-0.005266332972768684
3353.0,-0.005008820672367076
3352.0,-0.004837060938309712
3351.0,-0.004708196544336296
3350.0,-0.004622265700782613
3349.0,-0.0045792939022115675
3348.0,-0.004622265700782613
3347.0,-0.004665233247877154
3346.0,-0.004751155591001144
3345.0,-0.004751155591001144
3344.0,-0.004622265700782613
3343.0,-0.004364371107751008
3342.0,-0.004020273253241502
3341.0,-0.003675902548784027
3340.0,-0.0034605321095062536
3339.0,-0.003503614742536687
3338.0,-0.0037189638231147626
3337.0,-0.004063300397667113
3336.0,-0.004407364176330919
3335.0,-0.004665233247877154
3334.0,-0.004794110388711914
3333.0,-0.004965887106823441
3332.0,-0.005223424858135761
3331.0,-0.005609445360280407
3330.0,-0.006037954997317296
3329.0,-0.006423252507643085
3328.0,-0.0066799277408255975
3327.0,-0.006850960324272126
3326.0,-0.007021925578680754
3325.0,-0.007235537545951853
3324.0,-0.007534417897257839
3323.0,-0.007833092701319266
3322.0,-0.008088936291577475
3321.0,-0.008174184006426444
3320.0,-0.008216801589690181
3319.0,-0.00825941499127536
3318.0,-0.008344629252689195
3317.0,-0.008429826797229811
3316.0,-0.008557591784247087
3315.0,-0.008685319195167907
3314.0,-0.00881300905208926
3313.0,-0.009025742086910427
3312.0,-0.009280884255358668
3311.0,-0.009578360794542107
3310.0,-0.009875633712160159
3309.0,-0.01013027721514792
3308.0,-0.010342366139567627
3307.0,-0.010596736206525126
3306.0,-0.010850957373922832
3305.0,-0.011147360775797477
3304.0,-0.011401259924743723
3303.0,-0.011655010724778148
3302.0,-0.011950866059398546
3301.0,-0.012246519985071203
3300.0,-0.012499777538308887
3299.0,-0.0127107127417867
3298.0,-0.012879387171290002
3297.0,-0.013047996115231442
3296.0,-0.013258665283516713
3295.0,-0.013427127070696265
3294.0,-0.013637612453531567
3293.0,-0.013805927340592383
3292.0,-0.014016229258364099
3291.0,-0.014268457209642982
3290.0,-0.014520538757923696
3289.0,-0.014730495001753496
3288.0,-0.014898386946205822
3287.0,-0.014982308585481885
3286.0,-0.015024263324625142
3285.0,-0.015108160645837199
3284.0,-0.015233976246708192
3283.0,-0.015401673702949203
3282.0,-0.015569306429879859
3281.0,-0.015694988526518294
3280.0,-0.015778756389040804
3279.0,-0.015820634262069255
3278.0,-0.01594624365756614
3277.0,-0.016155511951454482
3276.0,-0.016406500871117835
3275.0,-0.016657344822201825
3274.0,-0.016699138064971475
3273.0,-0.016699138064971475
3272.0,-0.016740927286259755
3271.0,-0.01682449366748795
3270.0,-0.016991578206205116
3269.0,-0.017116849438813198
3268.0,-0.017158598487814647
3267.0,-0.017242084547645753
3266.0,-0.017367283553529678
3265.0,-0.01753415943719805
3264.0,-0.01761757333967351
3263.0,-0.01765927428376468
3262.0,-0.01774266416149839
3261.0,-0.017826038030424485
3260.0,-0.017951068830742045
3259.0,-0.01807606364579506
3258.0,-0.018201022496291408
3257.0,-0.018367578387844752
3256.0,-0.018534070428183114
3255.0,-0.018783688874696836
3254.0,-0.019074729177898764
3253.0,-0.019324037153690465
3252.0,-0.01961471569141704
3251.0,-0.01982222416777324
3250.0,-0.020029633542699266
3249.0,-0.02015403163833307
3248.0,-0.020278394111927334
3247.0,-0.020444155366574623
3246.0,-0.020651268004341805
3245.0,-0.020858281918315846
3244.0,-0.021065197202569053
3243.0,-0.02131336548469509
3242.0,-0.021602716028242153
3241.0,-0.021891873919109184
3240.0,-0.022098297461140337
3239.0,-0.02213957039839176
3238.0,-0.02213957039839176
3237.0,-0.02213957039839176
3236.0,-0.02226336568125875
3235.0,-0.022428371185486462
3234.0,-0.022675761953727225
3233.0,-0.02279940451168816
3232.0,-0.022840610876528
3231.0,-0.022840610876528
3230.0,-0.022840610876528
3229.0,-0.022964206517992913
3228.0,-0.023170121121396825
3227.0,-0.023375938139562624
3226.0,-0.023540521554854088
3225.0,-0.023663918197793343
3224.0,-0.023622789879006678
3223.0,-0.02341708984110502
3222.0,-0.023170121121396825
3221.0,-0.022964206517992913
3220.0,-0.022964206517992913
3219.0,-0.023170121121396825
3218.0,-0.02341708984110502
3217.0,-0.023622789879006678
3216.0,-0.023705042622037542
3215.0,-0.023622789879006678
3214.0,-0.023334782538309007
3213.0,-0.023046584075505194
3212.0,-0.02275819423676939
3211.0,-0.022634539944118792
3210.0,-0.022552084185013754
3209.0,-0.022552084185013754
3208.0,-0.022552084185013754
3207.0,-0.022593314021462252
3206.0,-0.022593314021462252
3205.0,-0.02251085043403034
3204.0,-0.02230462293506852
3203.0,-0.02213957039839176
3202.0,-0.02205702060116499
3201.0,-0.022015739817720092
3200.0,-0.021933166477438704
3199.0,-0.021767972682406267
3198.0,-0.021561392037354743
3197.0,-0.021437396467089975
3196.0,-0.021396056741971314
3195.0,-0.021437396467089975
3194.0,-0.021478732257527167
3193.0,-0.02152006411403251
3192.0,-0.021478732257527167
3191.0,-0.02131336548469509
3190.0,-0.021189299069938272
3189.0,-0.021065197202569053
3188.0,-0.021065197202569053
3187.0,-0.021065197202569053
3186.0,-0.021023822031585038
3185.0,-0.02094105986232009
3184.0,-0.02081688702890716
3183.0,-0.020692678682027843
3182.0,-0.020485585796551575
3181.0,-0.020236943910807437
3180.0,-0.019946681678842282
3179.0,-0.01969773098019223
3178.0,-0.019573202095639175
3177.0,-0.01949016299750772
3176.0,-0.019407108018883346
3175.0,-0.01928249576173169
3174.0,-0.019157847739282197
3173.0,-0.01911629044707297
3172.0,-0.019157847739282197
3171.0,-0.019199401055288057
3170.0,-0.019199401055288057
3169.0,-0.019157847739282197
3168.0,-0.019033163930998853
3167.0,-0.0188668631509068
3166.0,-0.018700498666243348
3165.0,-0.018534070428183114
3164.0,-0.018367578387844752
3163.0,-0.0182426674579097
3162.0,-0.018159373540910018
3161.0,-0.018159373540910018
3160.0,-0.018201022496291408
3159.0,-0.0182426674579097
3158.0,-0.018325945402920762
3157.0,-0.018409207382068526
3156.0,-0.01857568346725147
3155.0,-0.018700498666243348
3154.0,-0.01874209576238206
3153.0,-0.018700498666243348
3152.0,-0.01857568346725147
3151.0,-0.018492453401472986
3150.0,-0.018409207382068526
3149.0,-0.018409207382068526
3148.0,-0.018409207382068526
3147.0,-0.018325945402920762
3146.0,-0.018117720591000364
3145.0,-0.017909395896688718
3144.0,-0.017784353096678363
3143.0,-0.01774266416149839
3142.0,-0.017826038030424485
3141.0,-0.017867718963505475
3140.0,-0.017867718963505475
3139.0,-0.017784353096678363
3138.0,-0.017700971224116735
3137.0,-0.01761757333967351
3136.0,-0.01753415943719805
3135.0,-0.017450729510536167
3134.0,-0.017367283553529678
3133.0,-0.01728382156001773
3132.0,-0.017242084547645753
3131.0,-0.017242084547645753
3130.0,-0.017158598487814647
3129.0,-0.017075096376059307
3128.0,-0.016949813097560718
3127.0,-0.01682449366748795
3126.0,-0.016740927286259755
3125.0,-0.0166155475571772
3124.0,-0.016531940957265068
3123.0,-0.016448318259037364
3122.0,-0.016448318259037364
3121.0,-0.016448318259037364
3120.0,-0.016448318259037364
3119.0,-0.01649013162082813
3118.0,-0.01649013162082813
3117.0,-0.016448318259037364
3116.0,-0.016364679456294162
3115.0,-0.01611366635890832
3114.0,-0.01586250809731382
3113.0,-0.015611204503512166
3112.0,-0.01548549815445499
3111.0,-0.015401673702949203
3110.0,-0.015359755409213971
3109.0,-0.015233976246708192
3108.0,-0.015108160645837199
3107.0,-0.015024263324625142
3106.0,-0.015024263324625142
3105.0,-0.015024263324625142
3104.0,-0.014982308585481885
3103.0,-0.01494034979293657
3102.0,-0.014856420044505825
3101.0,-0.014772474073063702
3100.0,-0.014646524684031714
3099.0,-0.014520538757923696
3098.0,-0.014436527831672041
3097.0,-0.014394516273535274
3096.0,-0.014352500651008793
3095.0,-0.014226429389229356
3094.0,-0.014142361545006032
3093.0,-0.014058277424335852
3092.0,-0.014058277424335852
3091.0,-0.014016229258364099
3090.0,-0.013932120711203755
3089.0,-0.013721778051063005
3088.0,-0.013511333465900055
3087.0,-0.013342904345346795
3086.0,-0.013300786856887736
3085.0,-0.013258665283516713
3084.0,-0.013174409878867088
3083.0,-0.013047996115231442
3082.0,-0.012837224705172012
3081.0,-0.012626350954050292
3080.0,-0.012499777538308887
3079.0,-0.01241537476243293
3078.0,-0.012288739834606766
3077.0,-0.01220429603074269
3076.0,-0.012162067970823198
3075.0,-0.01220429603074269
3074.0,-0.01220429603074269
3073.0,-0.01220429603074269
3072.0,-0.012119835804513368
3071.0,-0.011993114659256676
3070.0,-0.011781830548106775
3069.0,-0.011528153857539358
3068.0,-0.011358953706610553
3067.0,-0.011274328904725017
3066.0,-0.011358953706610553
3065.0,-0.011528153857539358
3064.0,-0.011655010724778148
3063.0,-0.011697288114142612
3062.0,-0.011570443597278324
3061.0,-0.011358953706610553
3060.0,-0.01110502981598005
3059.0,-0.010893313104380464
3058.0,-0.010766233518425317
3057.0,-0.010723865391772947
3056.0,-0.010723865391772947
3055.0,-0.01068149313144362
3054.0,-0.010639116736629983
3053.0,-0.010554351540322138
3052.0,-0.010511962737213665
3051.0,-0.010427172717049071
3050.0,-0.010384771498377354
3049.0,-0.010257542998301172
3048.0,-0.010172703286778884
3047.0,-0.010045412636098483
3046.0,-0.009960531470597278
3045.0,-0.009918084665901272
3044.0,-0.009833178608563031
3043.0,-0.009748255948553552
3042.0,-0.009705788390518055
3041.0,-0.009620840814324794
3040.0,-0.009578360794542107
3039.0,-0.009535876619218175
3038.0,-0.009493388287539872
3037.0,-0.009408399151866753
3036.0,-0.009365898346244794
3035.0,-0.009280884255358668
3034.0,-0.009195853519521346
3033.0,-0.009110806132212712
3032.0,-0.008983203815471796
3031.0,-0.00881300905208926
3030.0,-0.00864274756528527
3029.0,-0.00851500763145463
3028.0,-0.008387230114158761
3027.0,-0.008302024212001324
3026.0,-0.008216801589690181
3025.0,-0.008131562240662582
3024.0,-0.008046306158350447
3023.0,-0.007961033336183032
3022.0,-0.007961033336183032
3021.0,-0.007918390645599072
3020.0,-0.007918390645599072
3019.0,-0.007875743767585153
3018.0,-0.007833092701319266
3017.0,-0.007790437445978515
3016.0,-0.00766244653727588
3015.0,-0.007577098304338836
3014.0,-0.007491733295335923
3013.0,-0.0074063515036710825
3012.0,-0.007320952922744706
3011.0,-0.007192823557040651
3010.0,-0.007064656378331868
3009.0,-0.00697919057427665
3008.0,-0.006936451364292662
3007.0,-0.0068937079479005625
3006.0,-0.0068937079479005625
3005.0,-0.0068937079479005625
3004.0,-0.006808208492578682
3003.0,-0.0066799277408255975
3002.0,-0.006508827775289827
3001.0,-0.006423252507643085
3000.0,-0.006380458549692936
2999.0,-0.006380458549692936
2998.0,-0.0062948579813855154
2997.0,-0.006166425485431226
2996.0,-0.006037954997317296
2995.0,-0.005952286887382918
2994.0,-0.005952286887382918
2993.0,-0.005909446494558601
2992.0,-0.0058666018753847915
2991.0,-0.005780899954652252
2990.0,-0.005652315355074045
2989.0,-0.005566571133294396
2988.0,-0.00552369267327979
2987.0,-0.005566571133294396
2986.0,-0.005566571133294396
2985.0,-0.005566571133294396
2984.0,-0.0054379230508221355
2983.0,-0.005266332972768684
2982.0,-0.005180512503780488
2981.0,-0.005180512503780488
2980.0,-0.005266332972768684
2979.0,-0.005309236848516363
2978.0,-0.005223424858135761
2977.0,-0.005094675072548682
2976.0,-0.004922949296525481
2975.0,-0.004794110388711914
2974.0,-0.004751155591001144
2973.0,-0.004751155591001144
2972.0,-0.004751155591001144
2971.0,-0.004751155591001144
2970.0,-0.004708196544336296
2969.0,-0.004622265700782613
2968.0,-0.0045792939022115675
2967.0,-0.004536317851322913
2966.0,-0.004493337547274212
2965.0,-0.004493337547274212
2964.0,-0.004407364176330919
2963.0,-0.004321373782642635
2962.0,-0.0042353663594676405
2961.0,-0.004192356259714369
2960.0,-0.004149341900058889
2959.0,-0.004106323279658319
2958.0,-0.004020273253241502
2957.0,-0.003934206173708432
2956.0,-0.0038481220342978517
2955.0,-0.0038481220342978517
2954.0,-0.0038481220342978517
2953.0,-0.003891166236910326
2952.0,-0.0038481220342978517
2951.0,-0.003762020828246282
2950.0,-0.003675902548784027
2949.0,-0.0035897671891400584
2948.0,-0.003546693102131737
2947.0,-0.003546693102131737
2946.0,-0.0034605321095062536
2945.0,-0.0033743540197499478
2944.0,-0.0032450548131470747
2943.0,-0.003158833950862139
2942.0,-0.003115717099805959
2941.0,-0.003115717099805959
2940.0,-0.003158833950862139
2939.0,-0.003201946521692367
2938.0,-0.003201946521692367
2937.0,-0.003158833950862139
2936.0,-0.003029470553618019
2935.0,-0.002900068611387585
2934.0,-0.0027706281011936618
2933.0,-0.0027274726898296464
2932.0,-0.0027274726898296464
2931.0,-0.0027706281011936618
2930.0,-0.0028137792246734072
2929.0,-0.002856926061120646
2928.0,-0.002856926061120646
2927.0,-0.002856926061120646
2926.0,-0.0027706281011936618
2925.0,-0.0026411490000399773
2924.0,-0.002597980719908577
2923.0,-0.0025548081484823015
2922.0,-0.0025548081484823015
2921.0,-0.002597980719908577
2920.0,-0.0026411490000399773
2919.0,-0.002684312989729598
2918.0,-0.002684312989729598
2917.0,-0.0026411490000399773
2916.0,-0.0025116312849080558
2915.0,-0.002338880892056583
2914.0,-0.0021660617565077978
2913.0,-0.0021228462251614566
2912.0,-0.0021228462251614566
2911.0,-0.0021660617565077978
2910.0,-0.0022092729880145434
2909.0,-0.0021660617565077978
2908.0,-0.0020796263931210923
2907.0,-0.0020364022595291686
2906.0,-0.0019931738235303698
2905.0,-0.0020364022595291686
2904.0,-0.0020796263931210923
2903.0,-0.0021228462251614566
2902.0,-0.0020796263931210923
2901.0,-0.0019931738235303698
2900.0,-0.0019499410842680476
2899.0,-0.0019067040408846658
2898.0,-0.0019931738235303698
2897.0,-0.0021228462251614566
2896.0,-0.0021660617565077978
2895.0,-0.0021228462251614566
2894.0,-0.0019931738235303698
2893.0,-0.0019499410842680476
2892.0,-0.0019067040408846658
2891.0,-0.0019499410842680476
2890.0,-0.0019499410842680476
2889.0,-0.0019067040408846658
2888.0,-0.0018202170383281313
2887.0,-0.001776967077439462
2886.0,-0.001733712809000476
2885.0,-0.001733712809000476
2884.0,-0.001776967077439462
2883.0,-0.0018202170383281313
2882.0,-0.0018634626925240205
2881.0,-0.0019067040408846658
2880.0,-0.0019067040408846658
2879.0,-0.0018634626925240205
2878.0,-0.001776967077439462
2877.0,-0.0016471913460383014
2876.0,-0.0015606526425728795
2875.0,-0.001474096691732818
2874.0,-0.0013875234866409514
2873.0,-0.001344230411601366
2872.0,-0.001344230411601366
2871.0,-0.001344230411601366
2870.0,-0.0013875234866409514
2869.0,-0.001474096691732818
2868.0,-0.001474096691732818
2867.0,-0.001474096691732818
2866.0,-0.0014308122463981832
2865.0,-0.001474096691732818
2864.0,-0.001474096691732818
2863.0,-0.0014308122463981832
2862.0,-0.001344230411601366
2861.0,-0.0013009330204178937
2860.0,-0.0013009330204178937
2859.0,-0.0013009330204178937
2858.0,-0.001344230411601366
2857.0,-0.0013875234866409514
2856.0,-0.0013875234866409514
2855.0,-0.001344230411601366
2854.0,-0.0013009330204178937
2853.0,-0.00121432528617893
2852.0,-0.0011710149414008164
2851.0,-0.0011277002770349043
2850.0,-0.0011277002770349043
2849.0,-0.0011277002770349043
2848.0,-0.0011277002770349043
2847.0,-0.0011277002770349043
2846.0,-0.0010843812922201046
2845.0,-0.0010843812922201046
2844.0,-0.001041057986093552
2843.0,-0.0010843812922201046
2842.0,-0.0011277002770349043
2841.0,-0.0011710149414008164
2840.0,-0.00121432528617893
2839.0,-0.0011710149414008164
2838.0,-0.001041057986093552
2837.0,-0.0008677215312267172
2836.0,-0.0007376737740329986
2835.0,-0.0007376737740329986
2834.0,-0.0008243766056055257
2833.0,-0.0009543984064577238
2832.0,-0.001041057986093552
2831.0,-0.001041057986093552
2830.0,-0.0009977303577937136
2829.0,-0.0009977303577937136
2828.0,-0.0009543984064577238
2827.0,-0.0009977303577937136
2826.0,-0.001041057986093552
2825.0,-0.0010843812922201046
2824.0,-0.001041057986093552
2823.0,-0.0009543984064577238
2822.0,-0.0008677215312267172
2821.0,-0.0008243766056055257
2820.0,-0.0008243766056055257
2819.0,-0.0008243766056055257
2818.0,-0.0007810273534953893
2817.0,-0.0007376737740329986
2816.0,-0.0006943158663546001
2815.0,-0.0006943158663546001
2814.0,-0.0007810273534953893
2813.0,-0.0009110621312231615
2812.0,-0.001041057986093552
2811.0,-0.001041057986093552
2810.0,-0.0009977303577937136
2809.0,-0.0009110621312231615
2808.0,-0.0008677215312267172
2807.0,-0.0009110621312231615
2806.0,-0.0009543984064577238
2805.0,-0.0009543984064577238
2804.0,-0.0009543984064577238
2803.0,-0.0009110621312231615
2802.0,-0.0008677215312267172
2801.0,-0.0007376737740329986
2800.0,-0.0006509536295951079
2799.0,-0.0006075870628903246
2798.0,-0.0006075870628903246
2797.0,-0.0006075870628903246
2796.0,-0.0006075870628903246
2795.0,-0.0005642161653756084
2794.0,-0.0006075870628903246
2793.0,-0.0007376737740329986
2792.0,-0.0008243766056055257
2791.0,-0.0008243766056055257
2790.0,-0.0008243766056055257
2789.0,-0.0007810273534953893
2788.0,-0.0007376737740329986
2787.0,-0.0007376737740329986
2786.0,-0.0007810273534953893
2785.0,-0.0008677215312267172
2784.0,-0.0009543984064577238
2783.0,-0.0009977303577937136
2782.0,-0.001041057986093552
2781.0,-0.001041057986093552
2780.0,-0.0009977303577937136
2779.0,-0.0009110621312231615
2778.0,-0.0008677215312267172
2777.0,-0.0007810273534953893
2776.0,-0.0006943158663546001
2775.0,-0.0006509536295951079
2774.0,-0.0006943158663546001
2773.0,-0.0007810273534953893
2772.0,-0.0008677215312267172
2771.0,-0.0009110621312231615
2770.0,-0.0008677215312267172
2769.0,-0.0007810273534953893
2768.0,-0.0006943158663546001
2767.0,-0.0007376737740329986
2766.0,-0.0007810273534953893
2765.0,-0.0008243766056055257
2764.0,-0.0007810273534953893
2763.0,-0.0007376737740329986
2762.0,-0.0007376737740329986
2761.0,-0.0007376737740329986
2760.0,-0.0007376737740329986
2759.0,-0.0007376737740329986
2758.0,-0.0007376737740329986
2757.0,-0.0007376737740329986
2756.0,-0.0007810273534953893
2755.0,-0.0008677215312267172
2754.0,-0.0009110621312231615
2753.0,-0.0009110621312231615
2752.0,-0.0009110621312231615
2751.0,-0.0008677215312267172
2750.0,-0.0008243766056055257
2749.0,-0.0007810273534953893
2748.0,-0.0007376737740329986
2747.0,-0.0007376737740329986
2746.0,-0.0006943158663546001
2745.0,-0.0006943158663546001
2744.0,-0.0006943158663546001
2743.0,-0.0006943158663546001
2742.0,-0.0007376737740329986
2741.0,-0.0007810273534953893
2740.0,-0.0008243766056055257
2739.0,-0.0007376737740329986
2738.0,-0.0006509536295951079
2737.0,-0.0005642161653756084
2736.0,-0.0005642161653756084
2735.0,-0.0006075870628903246
2734.0,-0.0006943158663546001
2733.0,-0.0008243766056055257
2732.0,-0.0008677215312267172
2731.0,-0.0008243766056055257
2730.0,-0.0008243766056055257
2729.0,-0.0007810273534953893
2728.0,-0.0007810273534953893
2727.0,-0.0007810273534953893
2726.0,-0.0008243766056055257
2725.0,-0.0008677215312267172
2724.0,-0.0009543984064577238
2723.0,-0.0009977303577937136
2722.0,-0.001041057986093552
2721.0,-0.0009977303577937136
2720.0,-0.0009110621312231615
2719.0,-0.0008677215312267172
2718.0,-0.0009543984064577238
2717.0,-0.001041057986093552
2716.0,-0.0010843812922201046
2715.0,-0.001041057986093552
2714.0,-0.0009110621312231615
2713.0,-0.0007810273534953893
2712.0,-0.0006509536295951079
2711.0,-0.0006075870628903246
2710.0,-0.0005642161653756084
2709.0,-0.0006075870628903246
2708.0,-0.0006509536295951079
2707.0,-0.0006943158663546001
2706.0,-0.0007376737740329986
2705.0,-0.0007376737740329986
2704.0,-0.0007376737740329986
2703.0,-0.0007376737740329986
2702.0,-0.0007376737740329986
2701.0,-0.0007376737740329986
2700.0,-0.0007376737740329986
2699.0,-0.0007376737740329986
2698.0,-0.0007810273534953893
2697.0,-0.0008677215312267172
2696.0,-0.0008677215312267172
2695.0,-0.0008677215312267172
2694.0,-0.0008243766056055257
2693.0,-0.0008677215312267172
2692.0,-0.001041057986093552
2691.0,-0.0011277002770349043
2690.0,-0.0011710149414008164
2689.0,-0.0010843812922201046
2688.0,-0.0009977303577937136
2687.0,-0.0009977303577937136
2686.0,-0.0009977303577937136
2685.0,-0.0009543984064577238
2684.0,-0.0008677215312267172
2683.0,-0.0007376737740329986
2682.0,-0.0006943158663546001
2681.0,-0.0006943158663546001
2680.0,-0.0007810273534953893
2679.0,-0.0009110621312231615
2678.0,-0.0009977303577937136
2677.0,-0.001041057986093552
2676.0,-0.0009977303577937136
2675.0,-0.0009977303577937136
2674.0,-0.001041057986093552
2673.0,-0.0010843812922201046
2672.0,-0.0011277002770349043
2671.0,-0.0010843812922201046
2670.0,-0.001041057986093552
2669.0,-0.0009543984064577238
2668.0,-0.0009110621312231615
2667.0,-0.0008677215312267172
2666.0,-0.0008677215312267172
2665.0,-0.0008677215312267172
2664.0,-0.0009543984064577238
2663.0,-0.0009977303577937136
2662.0,-0.0010843812922201046
2661.0,-0.0011277002770349043
2660.0,-0.0011277002770349043
2659.0,-0.0011277002770349043
2658.0,-0.0010843812922201046
2657.0,-0.001041057986093552
2656.0,-0.001041057986093552
2655.0,-0.001041057986093552
2654.0,-0.0010843812922201046
2653.0,-0.0011710149414008164
2652.0,-0.00121432528617893
2651.0,-0.00121432528617893
2650.0,-0.0011710149414008164
2649.0,-0.0011710149414008164
2648.0,-0.0011277002770349043
2647.0,-0.0010843812922201046
2646.0,-0.0009977303577937136
2645.0,-0.0009977303577937136
2644.0,-0.001041057986093552
2643.0,-0.0010843812922201046
2642.0,-0.0010843812922201046
2641.0,-0.001041057986093552
2640.0,-0.001041057986093552
2639.0,-0.001041057986093552
2638.0,-0.0010843812922201046
2637.0,-0.0011277002770349043
2636.0,-0.0011710149414008164
2635.0,-0.00121432528617893
2634.0,-0.00121432528617893
2633.0,-0.00121432528617893
2632.0,-0.00121432528617893
2631.0,-0.00121432528617893
2630.0,-0.001257631312230778
2629.0,-0.001257631312230778
2628.0,-0.0013009330204178937
2627.0,-0.001257631312230778
2626.0,-0.0011710149414008164
2625.0,-0.0011277002770349043
2624.0,-0.0011277002770349043
2623.0,-0.0011277002770349043
2622.0,-0.0010843812922201046
2621.0,-0.001041057986093552
2620.0,-0.001041057986093552
2619.0,-0.0010843812922201046
2618.0,-0.0011710149414008164
2617.0,-0.001257631312230778
2616.0,-0.001344230411601366
2615.0,-0.0013875234866409514
2614.0,-0.0014308122463981832
2613.0,-0.0014308122463981832
2612.0,-0.0013875234866409514
2611.0,-0.001344230411601366
2610.0,-0.001344230411601366
2609.0,-0.0013875234866409514
2608.0,-0.0013875234866409514
2607.0,-0.0013875234866409514
2606.0,-0.0013875234866409514
2605.0,-0.0013009330204178937
2604.0,-0.00121432528617893
2603.0,-0.0011710149414008164
2602.0,-0.001257631312230778
2601.0,-0.0013875234866409514
2600.0,-0.001474096691732818
2599.0,-0.001474096691732818
2598.0,-0.001474096691732818
2597.0,-0.0014308122463981832
2596.0,-0.001344230411601366
2595.0,-0.0013009330204178937
2594.0,-0.0013009330204178937
2593.0,-0.001344230411601366
2592.0,-0.0013875234866409514
2591.0,-0.001344230411601366
2590.0,-0.001344230411601366
2589.0,-0.0013009330204178937
2588.0,-0.0013009330204178937
2587.0,-0.001344230411601366
2586.0,-0.0013875234866409514
2585.0,-0.0014308122463981832
2584.0,-0.001474096691732818
2583.0,-0.0015173768235041685
2582.0,-0.0015606526425728795
2581.0,-0.0016039241497978196
2580.0,-0.0016471913460383014
2579.0,-0.0016471913460383014
2578.0,-0.0016039241497978196
2577.0,-0.001474096691732818
2576.0,-0.001344230411601366
2575.0,-0.0013009330204178937
2574.0,-0.0013009330204178937
2573.0,-0.001344230411601366
2572.0,-0.0014308122463981832
2571.0,-0.001474096691732818
2570.0,-0.0015173768235041685
2569.0,-0.0015606526425728795
2568.0,-0.0015606526425728795
2567.0,-0.0016039241497978196
2566.0,-0.0016471913460383014
2565.0,-0.0016904542321527494
2564.0,-0.001733712809000476
2563.0,-0.001776967077439462
2562.0,-0.0018202170383281313
2561.0,-0.0019067040408846658
2560.0,-0.0019931738235303698
2559.0,-0.0019931738235303698
2558.0,-0.0019499410842680476
2557.0,-0.0018634626925240205
2556.0,-0.0018202170383281313
2555.0,-0.0018202170383281313
2554.0,-0.0018202170383281313
2553.0,-0.0018634626925240205
2552.0,-0.0018634626925240205
2551.0,-0.0018202170383281313
2550.0,-0.001776967077439462
2549.0,-0.001733712809000476
2548.0,-0.001776967077439462
2547.0,-0.001776967077439462
2546.0,-0.0018202170383281313
2545.0,-0.0018202170383281313
2544.0,-0.0018202170383281313
2543.0,-0.0018202170383281313
2542.0,-0.0018634626925240205
2541.0,-0.0019067040408846658
2540.0,-0.0019499410842680476
2539.0,-0.0019931738235303698
2538.0,-0.0020364022595291686
2537.0,-0.0020364022595291686
2536.0,-0.0020364022595291686
2535.0,-0.0019931738235303698
2534.0,-0.0019499410842680476
2533.0,-0.0018634626925240205
2532.0,-0.0018202170383281313
2531.0,-0.0018202170383281313
2530.0,-0.001776967077439462
2529.0,-0.001776967077439462
2528.0,-0.001776967077439462
2527.0,-0.001776967077439462
2526.0,-0.001776967077439462
2525.0,-0.0018634626925240205
2524.0,-0.0019931738235303698
2523.0,-0.0022092729880145434
2522.0,-0.0022956825549340643
2521.0,-0.0022956825549340643
2520.0,-0.0021660617565077978
2519.0,-0.0019931738235303698
2518.0,-0.0018634626925240205
2517.0,-0.0018634626925240205
2516.0,-0.0019499410842680476
2515.0,-0.0020796263931210923
2514.0,-0.0021660617565077978
2513.0,-0.0022092729880145434
2512.0,-0.0022092729880145434
2511.0,-0.0021660617565077978
2510.0,-0.0021660617565077978
2509.0,-0.0021660617565077978
2508.0,-0.0021660617565077978
2507.0,-0.0021228462251614566
2506.0,-0.0020796263931210923
2505.0,-0.0021228462251614566
2504.0,-0.0021660617565077978
2503.0,-0.0022092729880145434
2502.0,-0.0021660617565077978
2501.0,-0.0021228462251614566
2500.0,-0.0021228462251614566
2499.0,-0.0021228462251614566
2498.0,-0.0021228462251614566
2497.0,-0.0021660617565077978
2496.0,-0.0022524799205383417
2495.0,-0.002338880892056583
2494.0,-0.0024252646779014952
2493.0,-0.0024252646779014952
2492.0,-0.0024252646779014952
2491.0,-0.0024252646779014952
2490.0,-0.002338880892056583
2489.0,-0.0022524799205383417
2488.0,-0.0022524799205383417
2487.0,-0.0022524799205383417
2486.0,-0.0022956825549340643
2485.0,-0.002338880892056583
2484.0,-0.0023820749327607693
2483.0,-0.0024252646779014952
2482.0,-0.0025116312849080558
2481.0,-0.0025116312849080558
2480.0,-0.0024684501283323
2479.0,-0.0024252646779014952
2478.0,-0.002338880892056583
2477.0,-0.0022524799205383417
2476.0,-0.0022524799205383417
2475.0,-0.0022956825549340643
2474.0,-0.002338880892056583
2473.0,-0.0024252646779014952
2472.0,-0.0025116312849080558
2471.0,-0.002597980719908577
2470.0,-0.0026411490000399773
2469.0,-0.0026411490000399773
2468.0,-0.0025548081484823015
2467.0,-0.0024684501283323
2466.0,-0.0023820749327607693
2465.0,-0.002338880892056583
2464.0,-0.0023820749327607693
2463.0,-0.0024684501283323
2462.0,-0.0025548081484823015
2461.0,-0.0025548081484823015
2460.0,-0.0025116312849080558
2459.0,-0.0024252646779014952
2458.0,-0.002338880892056583
2457.0,-0.002338880892056583
2456.0,-0.0024252646779014952
2455.0,-0.0024684501283323
2454.0,-0.0024684501283323
2453.0,-0.0024252646779014952
2452.0,-0.0023820749327607693
2451.0,-0.002338880892056583
2450.0,-0.0023820749327607693
2449.0,-0.0024684501283323
2448.0,-0.0025548081484823015
2447.0,-0.0026411490000399773
2446.0,-0.0027274726898296464
2445.0,-0.0027274726898296464
2444.0,-0.002684312989729598
2443.0,-0.002684312989729598
2442.0,-0.002684312989729598
2441.0,-0.0027274726898296464
2440.0,-0.0027274726898296464
2439.0,-0.0027706281011936618
2438.0,-0.0027706281011936618
2437.0,-0.0027274726898296464
2436.0,-0.002684312989729598
2435.0,-0.002684312989729598
2434.0,-0.002684312989729598
2433.0,-0.0027706281011936618
2432.0,-0.002856926061120646
2431.0,-0.002900068611387585
2430.0,-0.002900068611387585
2429.0,-0.002856926061120646
2428.0,-0.0028137792246734072
2427.0,-0.0027706281011936618
2426.0,-0.0027706281011936618
2425.0,-0.0027706281011936618
2424.0,-0.002856926061120646
2423.0,-0.0029432068763250996
2422.0,-0.003029470553618019
2421.0,-0.003029470553618019
2420.0,-0.003029470553618019
2419.0,-0.0029863408567849525
2418.0,-0.002900068611387585
2417.0,-0.0028137792246734072
2416.0,-0.0027706281011936618
2415.0,-0.0028137792246734072
2414.0,-0.002856926061120646
2413.0,-0.0028137792246734072
2412.0,-0.0027706281011936618
2411.0,-0.0027706281011936618
2410.0,-0.0028137792246734072
2409.0,-0.0029432068763250996
2408.0,-0.0030725959676747294
2407.0,-0.003115717099805959
2406.0,-0.0030725959676747294
2405.0,-0.003029470553618019
2404.0,-0.0029432068763250996
2403.0,-0.002856926061120646
2402.0,-0.0028137792246734072
2401.0,-0.0027706281011936618
2400.0,-0.0027706281011936618
2399.0,-0.0028137792246734072
2398.0,-0.002856926061120646
2397.0,-0.0029432068763250996
2396.0,-0.003029470553618019
2395.0,-0.0030725959676747294
2394.0,-0.003115717099805959
2393.0,-0.003115717099805959
2392.0,-0.003158833950862139
2391.0,-0.0032450548131470747
2390.0,-0.0033312585613267665
2389.0,-0.0033743540197499478
2388.0,-0.0033743540197499478
2387.0,-0.0033743540197499478
2386.0,-0.0034174452021935586
2385.0,-0.003503614742536687
2384.0,-0.0035897671891400584
2383.0,-0.003546693102131737
2382.0,-0.0034174452021935586
2381.0,-0.003158833950862139
2380.0,-0.0029432068763250996
2379.0,-0.0028137792246734072
2378.0,-0.0027706281011936618
2377.0,-0.0028137792246734072
2376.0,-0.002900068611387585
2375.0,-0.003115717099805959
2374.0,-0.003503614742536687
2373.0,-0.0039772418455368275
2372.0,-0.0042353663594676405
2371.0,-0.004149341900058889
2370.0,-0.003762020828246282
2369.0,-0.0034605321095062536
2368.0,-0.0034605321095062536
2367.0,-0.003546693102131737
2366.0,-0.0033743540197499478
2365.0,-0.0029863408567849525
2364.0,-0.0028137792246734072
2363.0,-0.003201946521692367
2362.0,-0.0038481220342978517
2361.0,-0.004106323279658319
2360.0,-0.0039772418455368275
2359.0,-0.0037189638231147626
2358.0,-0.003632837004408529
2357.0,-0.003546693102131737
2356.0,-0.0032450548131470747
2355.0,-0.0028137792246734072
2354.0,-0.0025116312849080558
2353.0,-0.0025116312849080558
2352.0,-0.003029470553618019
2351.0,-0.003805073565025019
2350.0,-0.004493337547274212
2349.0,-0.004708196544336296
2348.0,-0.004364371107751008
2347.0,-0.003675902548784027
2346.0,-0.003115717099805959
2345.0,-0.0029432068763250996
2344.0,-0.0033312585613267665
2343.0,-0.0038481220342978517
2342.0,-0.004063300397667113
2341.0,-0.0038481220342978517
2340.0,-0.003546693102131737
2339.0,-0.0033312585613267665
2338.0,-0.0030725959676747294
2337.0,-0.002597980719908577
2336.0,-0.0021228462251614566
2335.0,-0.0018202170383281313
2334.0,-0.0015173768235041685
2333.0,-0.0011277002770349043
2332.0,-0.001041057986093552
2331.0,-0.0016471913460383014
2330.0,-0.0028137792246734072
2329.0,-0.003891166236910326
2328.0,-0.004407364176330919
2327.0,-0.004407364176330919
2326.0,-0.004106323279658319
2325.0,-0.003762020828246282
2324.0,-0.0033743540197499478
2323.0,-0.0030725959676747294
2322.0,-0.0029432068763250996
2321.0,-0.0030725959676747294
2320.0,-0.003546693102131737
2319.0,-0.004106323279658319
2318.0,-0.004536317851322913
2317.0,-0.004622265700782613
2316.0,-0.004407364176330919
2315.0,-0.004149341900058889
2314.0,-0.004020273253241502
2313.0,-0.004106323279658319
2312.0,-0.0042353663594676405
2311.0,-0.004364371107751008
2310.0,-0.004407364176330919
2309.0,-0.004407364176330919
2308.0,-0.004364371107751008
2307.0,-0.0042783722001624724
2306.0,-0.0042783722001624724
2305.0,-0.004321373782642635
2304.0,-0.004493337547274212
2303.0,-0.004622265700782613
2302.0,-0.004622265700782613
2301.0,-0.004493337547274212
2300.0,-0.0042783722001624724
2299.0,-0.004149341900058889
2298.0,-0.004106323279658319
2297.0,-0.004192356259714369
2296.0,-0.004321373782642635
2295.0,-0.004321373782642635
2294.0,-0.0042353663594676405
2293.0,-0.004106323279658319
2292.0,-0.004063300397667113
2291.0,-0.004063300397667113
2290.0,-0.004149341900058889
2289.0,-0.004192356259714369
2288.0,-0.004149341900058889
2287.0,-0.004106323279658319
2286.0,-0.004063300397667113
2285.0,-0.0039772418455368275
2284.0,-0.003934206173708432
2283.0,-0.003891166236910326
2282.0,-0.0038481220342978517
2281.0,-0.0038481220342978517
2280.0,-0.003891166236910326
2279.0,-0.003934206173708432
2278.0,-0.0039772418455368275
2277.0,-0.0039772418455368275
2276.0,-0.003934206173708432
2275.0,-0.003934206173708432
2274.0,-0.0039772418455368275
2273.0,-0.004020273253241502
2272.0,-0.004020273253241502
2271.0,-0.004063300397667113
2270.0,-0.004063300397667113
2269.0,-0.004106323279658319
2268.0,-0.004106323279658319
2267.0,-0.004020273253241502
2266.0,-0.003934206173708432
2265.0,-0.0038481220342978517
2264.0,-0.003762020828246282
2263.0,-0.0037189638231147626
2262.0,-0.003632837004408529
2261.0,-0.003632837004408529
2260.0,-0.003632837004408529
2259.0,-0.003675902548784027
2258.0,-0.003675902548784027
2257.0,-0.003675902548784027
2256.0,-0.003675902548784027
2255.0,-0.003675902548784027
2254.0,-0.003675902548784027
2253.0,-0.003632837004408529
2252.0,-0.003675902548784027
2251.0,-0.003675902548784027
2250.0,-0.0037189638231147626
2249.0,-0.0037189638231147626
2248.0,-0.003675902548784027
2247.0,-0.003632837004408529
2246.0,-0.0035897671891400584
2245.0,-0.0035897671891400584
2244.0,-0.0035897671891400584
2243.0,-0.003546693102131737
2242.0,-0.0035897671891400584
2241.0,-0.0035897671891400584
2240.0,-0.003632837004408529
2239.0,-0.003632837004408529
2238.0,-0.003675902548784027
2237.0,-0.003675902548784027
2236.0,-0.003675902548784027
2235.0,-0.003675902548784027
2234.0,-0.003675902548784027
2233.0,-0.003675902548784027
2232.0,-0.0037189638231147626
2231.0,-0.0037189638231147626
2230.0,-0.0037189638231147626
2229.0,-0.003675902548784027
2228.0,-0.0035897671891400584
2227.0,-0.003546693102131737
2226.0,-0.003503614742536687
2225.0,-0.003503614742536687
2224.0,-0.003546693102131737
2223.0,-0.003546693102131737
2222.0,-0.0035897671891400584
2221.0,-0.003632837004408529
2220.0,-0.003675902548784027
2219.0,-0.0037189638231147626
2218.0,-0.003762020828246282
2217.0,-0.003762020828246282
2216.0,-0.003762020828246282
2215.0,-0.0037189638231147626
2214.0,-0.0037189638231147626
2213.0,-0.003675902548784027
2212.0,-0.003632837004408529
2211.0,-0.0035897671891400584
2210.0,-0.003546693102131737
2209.0,-0.003503614742536687
2208.0,-0.003503614742536687
2207.0,-0.0034605321095062536
2206.0,-0.0034605321095062536
2205.0,-0.0034605321095062536
2204.0,-0.003503614742536687
2203.0,-0.003503614742536687
2202.0,-0.003546693102131737
2201.0,-0.003546693102131737
2200.0,-0.0035897671891400584
2199.0,-0.003546693102131737
2198.0,-0.0034605321095062536
2197.0,-0.0034174452021935586
2196.0,-0.0034605321095062536
2195.0,-0.003503614742536687
2194.0,-0.003503614742536687
2193.0,-0.0034605321095062536
2192.0,-0.0034174452021935586
2191.0,-0.0034174452021935586
2190.0,-0.0034174452021935586
2189.0,-0.0034174452021935586
2188.0,-0.0033743540197499478
2187.0,-0.0033743540197499478
2186.0,-0.0033743540197499478
2185.0,-0.0034174452021935586
2184.0,-0.0034174452021935586
2183.0,-0.0033743540197499478
2182.0,-0.0032881588260753603
2181.0,-0.003201946521692367
2180.0,-0.003158833950862139
2179.0,-0.003158833950862139
2178.0,-0.003201946521692367
2177.0,-0.0032450548131470747
2176.0,-0.0032450548131470747
2175.0,-0.0032450548131470747
2174.0,-0.003201946521692367
2173.0,-0.0032450548131470747
2172.0,-0.0032881588260753603
2171.0,-0.0033312585613267665
2170.0,-0.0033312585613267665
2169.0,-0.0033312585613267665
2168.0,-0.0032881588260753603
2167.0,-0.0032450548131470747
2166.0,-0.003201946521692367
2165.0,-0.003158833950862139
2164.0,-0.003158833950862139
2163.0,-0.003201946521692367
2162.0,-0.0032881588260753603
2161.0,-0.0033312585613267665
2160.0,-0.0032881588260753603
2159.0,-0.0032450548131470747
2158.0,-0.003201946521692367
2157.0,-0.003201946521692367
2156.0,-0.003201946521692367
2155.0,-0.003201946521692367
2154.0,-0.0032450548131470747
2153.0,-0.0032881588260753603
2152.0,-0.0032881588260753603
2151.0,-0.0032881588260753603
2150.0,-0.003201946521692367
2149.0,-0.003158833950862139
2148.0,-0.003115717099805959
2147.0,-0.003115717099805959
2146.0,-0.003158833950862139
2145.0,-0.003201946521692367
2144.0,-0.003201946521692367
2143.0,-0.003201946521692367
2142.0,-0.003201946521692367
2141.0,-0.003201946521692367
2140.0,-0.003158833950862139
2139.0,-0.003115717099805959
2138.0,-0.0030725959676747294
2137.0,-0.0030725959676747294
2136.0,-0.003115717099805959
2135.0,-0.003158833950862139
2134.0,-0.003201946521692367
2133.0,-0.003158833950862139
2132.0,-0.003158833950862139
2131.0,-0.003158833950862139
2130.0,-0.003158833950862139
2129.0,-0.003158833950862139
2128.0,-0.003158833950862139
2127.0,-0.003115717099805959
2126.0,-0.003115717099805959
2125.0,-0.003115717099805959
2124.0,-0.003115717099805959
2123.0,-0.003115717099805959
2122.0,-0.003115717099805959
2121.0,-0.0030725959676747294
2120.0,-0.003029470553618019
2119.0,-0.003029470553618019
2118.0,-0.003029470553618019
2117.0,-0.0030725959676747294
2116.0,-0.003158833950862139
2115.0,-0.003201946521692367
2114.0,-0.0032450548131470747
2113.0,-0.0032881588260753603
2112.0,-0.0032450548131470747
2111.0,-0.0032450548131470747
2110.0,-0.0032450548131470747
2109.0,-0.0032450548131470747
2108.0,-0.0032881588260753603
2107.0,-0.0033312585613267665
2106.0,-0.0033743540197499478
2105.0,-0.0034174452021935586
2104.0,-0.0034174452021935586
2103.0,-0.0034174452021935586
2102.0,-0.0033743540197499478
2101.0,-0.0033312585613267665
2100.0,-0.0033312585613267665
2099.0,-0.0033312585613267665
2098.0,-0.0033312585613267665
2097.0,-0.0033312585613267665
2096.0,-0.0032881588260753603
2095.0,-0.0032881588260753603
2094.0,-0.0033312585613267665
2093.0,-0.0034174452021935586
2092.0,-0.0034605321095062536
2091.0,-0.0034605321095062536
2090.0,-0.0034605321095062536
2089.0,-0.0034605321095062536
2088.0,-0.003503614742536687
2087.0,-0.003503614742536687
2086.0,-0.003546693102131737
2085.0,-0.003546693102131737
2084.0,-0.003546693102131737
2083.0,-0.003546693102131737
2082.0,-0.003546693102131737
2081.0,-0.0035897671891400584
2080.0,-0.003632837004408529
2079.0,-0.003632837004408529
2078.0,-0.003632837004408529
2077.0,-0.0035897671891400584
2076.0,-0.003546693102131737
2075.0,-0.003503614742536687
2074.0,-0.003503614742536687
2073.0,-0.003546693102131737
2072.0,-0.003632837004408529
2071.0,-0.0037189638231147626
2070.0,-0.003762020828246282
2069.0,-0.003805073565025019
2068.0,-0.0038481220342978517
2067.0,-0.003805073565025019
2066.0,-0.0037189638231147626
2065.0,-0.003632837004408529
2064.0,-0.0035897671891400584
2063.0,-0.003632837004408529
2062.0,-0.0037189638231147626
2061.0,-0.003762020828246282
2060.0,-0.0038481220342978517
2059.0,-0.0038481220342978517
2058.0,-0.0038481220342978517
2057.0,-0.0038481220342978517
2056.0,-0.0038481220342978517
2055.0,-0.003805073565025019
2054.0,-0.0037189638231147626
2053.0,-0.003632837004408529
2052.0,-0.0035897671891400584
2051.0,-0.0035897671891400584
2050.0,-0.003632837004408529
2049.0,-0.0037189638231147626
2048.0,-0.003805073565025019
2047.0,-0.003891166236910326
2046.0,-0.003934206173708432
2045.0,-0.0038481220342978517
2044.0,-0.0037189638231147626
2043.0,-0.003632837004408529
2042.0,-0.0035897671891400584
2041.0,-0.0035897671891400584
2040.0,-0.003632837004408529
2039.0,-0.0037189638231147626
2038.0,-0.003762020828246282
2037.0,-0.003762020828246282
2036.0,-0.003675902548784027
2035.0,-0.003675902548784027
2034.0,-0.003675902548784027
2033.0,-0.0037189638231147626
2032.0,-0.0037189638231147626
2031.0,-0.003762020828246282
2030.0,-0.003762020828246282
2029.0,-0.003762020828246282
2028.0,-0.0037189638231147626
2027.0,-0.003632837004408529
2026.0,-0.003546693102131737
2025.0,-0.003546693102131737
2024.0,-0.003503614742536687
2023.0,-0.0034605321095062536
2022.0,-0.0034605321095062536
2021.0,-0.003503614742536687
2020.0,-0.003546693102131737
2019.0,-0.003632837004408529
2018.0,-0.0037189638231147626
2017.0,-0.0037189638231147626
2016.0,-0.003675902548784027
2015.0,-0.003632837004408529
2014.0,-0.003632837004408529
2013.0,-0.003675902548784027
2012.0,-0.003675902548784027
2011.0,-0.003675902548784027
2010.0,-0.003675902548784027
2009.0,-0.003675902548784027
2008.0,-0.003675902548784027
2007.0,-0.0037189638231147626
2006.0,-0.003762020828246282
2005.0,-0.003805073565025019
2004.0,-0.003762020828246282
2003.0,-0.0037189638231147626
2002.0,-0.003632837004408529
2001.0,-0.003632837004408529
2000.0,-0.003632837004408529
1999.0,-0.003632837004408529
1998.0,-0.003632837004408529
1997.0,-0.003632837004408529
1996.0,-0.0035897671891400584
1995.0,-0.003546693102131737
1994.0,-0.0034605321095062536
1993.0,-0.0034174452021935586
1992.0,-0.0034174452021935586
1991.0,-0.0034605321095062536
1990.0,-0.003546693102131737
1989.0,-0.003546693102131737
1988.0,-0.003503614742536687
1987.0,-0.0034605321095062536
1986.0,-0.0034605321095062536
1985.0,-0.0034605321095062536
1984.0,-0.003503614742536687
1983.0,-0.0034605321095062536
1982.0,-0.0034605321095062536
1981.0,-0.0034174452021935586
1980.0,-0.0034174452021935586
1979.0,-0.0034174452021935586
1978.0,-0.0033312585613267665
1977.0,-0.0032881588260753603
1976.0,-0.0032881588260753603
1975.0,-0.0033743540197499478
1974.0,-0.0034605321095062536
1973.0,-0.003503614742536687
1972.0,-0.003546693102131737
1971.0,-0.003546693102131737
1970.0,-0.003546693102131737
1969.0,-0.003503614742536687
1968.0,-0.0034605321095062536
1967.0,-0.0034605321095062536
1966.0,-0.0034174452021935586
1965.0,-0.0034174452021935586
1964.0,-0.0034605321095062536
1963.0,-0.0034605321095062536
1962.0,-0.003503614742536687
1961.0,-0.003503614742536687
1960.0,-0.003503614742536687
1959.0,-0.003503614742536687
1958.0,-0.003503614742536687
1957.0,-0.0034605321095062536
1956.0,-0.0034174452021935586
1955.0,-0.0033743540197499478
1954.0,-0.0034605321095062536
1953.0,-0.0035897671891400584
1952.0,-0.003675902548784027
1951.0,-0.003675902548784027
1950.0,-0.0035897671891400584
1949.0,-0.003503614742536687
1948.0,-0.003503614742536687
1947.0,-0.003546693102131737
1946.0,-0.003632837004408529
1945.0,-0.003675902548784027
1944.0,-0.003632837004408529
1943.0,-0.0035897671891400584
1942.0,-0.003546693102131737
1941.0,-0.003503614742536687
1940.0,-0.0034605321095062536
1939.0,-0.0034605321095062536
1938.0,-0.0034605321095062536
1937.0,-0.0034605321095062536
1936.0,-0.003503614742536687
1935.0,-0.003503614742536687
1934.0,-0.0034605321095062536
1933.0,-0.0034174452021935586
1932.0,-0.0034174452021935586
1931.0,-0.0034174452021935586
1930.0,-0.0034605321095062536
1929.0,-0.0034605321095062536
1928.0,-0.0034605321095062536
1927.0,-0.0034605321095062536
1926.0,-0.0034605321095062536
1925.0,-0.003503614742536687
1924.0,-0.003546693102131737
1923.0,-0.0035897671891400584
1922.0,-0.0035897671891400584
1921.0,-0.0035897671891400584
1920.0,-0.0035897671891400584
1919.0,-0.0035897671891400584
1918.0,-0.0035897671891400584
1917.0,-0.003503614742536687
1916.0,-0.0034174452021935586
1915.0,-0.0033312585613267665
1914.0,-0.0032881588260753603
1913.0,-0.0032881588260753603
1912.0,-0.0033312585613267665
1911.0,-0.0033743540197499478
1910.0,-0.0034605321095062536
1909.0,-0.003503614742536687
1908.0,-0.0034605321095062536
1907.0,-0.0034605321095062536
1906.0,-0.0034174452021935586
1905.0,-0.0034174452021935586
1904.0,-0.0034605321095062536
1903.0,-0.003503614742536687
1902.0,-0.003546693102131737
1901.0,-0.0035897671891400584
1900.0,-0.0035897671891400584
1899.0,-0.0035897671891400584
1898.0,-0.003546693102131737
1897.0,-0.003503614742536687
1896.0,-0.0034605321095062536
1895.0,-0.0034605321095062536
1894.0,-0.003503614742536687
1893.0,-0.003546693102131737
1892.0,-0.003546693102131737
1891.0,-0.003503614742536687
1890.0,-0.0034605321095062536
1889.0,-0.0034174452021935586
1888.0,-0.0034605321095062536
1887.0,-0.003503614742536687
1886.0,-0.003546693102131737
1885.0,-0.0035897671891400584
1884.0,-0.003632837004408529
1883.0,-0.003632837004408529
1882.0,-0.003632837004408529
1881.0,-0.0035897671891400584
1880.0,-0.0035897671891400584
1879.0,-0.0035897671891400584
1878.0,-0.003546693102131737
1877.0,-0.003546693102131737
1876.0,-0.0035897671891400584
1875.0,-0.0035897671891400584
1874.0,-0.003632837004408529
1873.0,-0.003632837004408529
1872.0,-0.003675902548784027
1871.0,-0.003762020828246282
1870.0,-0.0038481220342978517
1869.0,-0.0038481220342978517
1868.0,-0.003805073565025019
1867.0,-0.0037189638231147626
1866.0,-0.003675902548784027
1865.0,-0.003632837004408529
1864.0,-0.003632837004408529
1863.0,-0.003675902548784027
1862.0,-0.003675902548784027
1861.0,-0.003675902548784027
1860.0,-0.0037189638231147626
1859.0,-0.0037189638231147626
1858.0,-0.0037189638231147626
1857.0,-0.0037189638231147626
1856.0,-0.003675902548784027
1855.0,-0.003675902548784027
1854.0,-0.003632837004408529
1853.0,-0.0035897671891400584
1852.0,-0.003503614742536687
1851.0,-0.0034605321095062536
1850.0,-0.0034605321095062536
1849.0,-0.003503614742536687
1848.0,-0.003546693102131737
1847.0,-0.0035897671891400584
1846.0,-0.003632837004408529
1845.0,-0.0035897671891400584
1844.0,-0.0035897671891400584
1843.0,-0.0035897671891400584
1842.0,-0.0035897671891400584
1841.0,-0.0035897671891400584
1840.0,-0.003546693102131737
1839.0,-0.0034605321095062536
1838.0,-0.0033743540197499478
1837.0,-0.0033312585613267665
1836.0,-0.0033312585613267665
1835.0,-0.0033743540197499478
1834.0,-0.003503614742536687
1833.0,-0.0035897671891400584
1832.0,-0.003675902548784027
1831.0,-0.0037189638231147626
1830.0,-0.003632837004408529
1829.0,-0.003503614742536687
1828.0,-0.0033743540197499478
1827.0,-0.0033312585613267665
1826.0,-0.0033743540197499478
1825.0,-0.0033743540197499478
1824.0,-0.0033743540197499478
1823.0,-0.0033743540197499478
1822.0,-0.0033743540197499478
1821.0,-0.0033743540197499478
1820.0,-0.0034174452021935586
1819.0,-0.0034174452021935586
1818.0,-0.0034174452021935586
1817.0,-0.0033743540197499478
1816.0,-0.0033743540197499478
1815.0,-0.0033743540197499478
1814.0,-0.0033743540197499478
1813.0,-0.0033743540197499478
1812.0,-0.0033743540197499478
1811.0,-0.0033312585613267665
1810.0,-0.0033312585613267665
1809.0,-0.0033312585613267665
1808.0,-0.0032881588260753603
1807.0,-0.0032450548131470747
1806.0,-0.0032881588260753603
1805.0,-0.0033312585613267665
1804.0,-0.0033312585613267665
1803.0,-0.0033312585613267665
1802.0,-0.0032881588260753603
1801.0,-0.0032450548131470747
1800.0,-0.0032450548131470747
1799.0,-0.0032881588260753603
1798.0,-0.0033312585613267665
1797.0,-0.0034174452021935586
1796.0,-0.0034174452021935586
1795.0,-0.0034174452021935586
1794.0,-0.0034174452021935586
1793.0,-0.0034605321095062536
1792.0,-0.0034605321095062536
1791.0,-0.0034605321095062536
1790.0,-0.0034174452021935586
1789.0,-0.0034174452021935586
1788.0,-0.0034605321095062536
1787.0,-0.003503614742536687
1786.0,-0.003546693102131737
1785.0,-0.003632837004408529
1784.0,-0.003675902548784027
1783.0,-0.003675902548784027
1782.0,-0.003675902548784027
1781.0,-0.003675902548784027
1780.0,-0.003675902548784027
1779.0,-0.0037189638231147626
1778.0,-0.0037189638231147626
1777.0,-0.003762020828246282
1776.0,-0.003762020828246282
1775.0,-0.0037189638231147626
1774.0,-0.003632837004408529
1773.0,-0.0035897671891400584
1772.0,-0.003675902548784027
1771.0,-0.003805073565025019
1770.0,-0.003891166236910326
1769.0,-0.0039772418455368275
1768.0,-0.0039772418455368275
1767.0,-0.003934206173708432
1766.0,-0.003934206173708432
1765.0,-0.0039772418455368275
1764.0,-0.004020273253241502
1763.0,-0.004063300397667113
1762.0,-0.004063300397667113
1761.0,-0.004063300397667113
1760.0,-0.004063300397667113
1759.0,-0.004063300397667113
1758.0,-0.004063300397667113
1757.0,-0.004106323279658319
1756.0,-0.004149341900058889
1755.0,-0.004192356259714369
1754.0,-0.0042783722001624724
1753.0,-0.004364371107751008
1752.0,-0.004536317851322913
1751.0,-0.004622265700782613
1750.0,-0.004665233247877154
1749.0,-0.004665233247877154
1748.0,-0.004665233247877154
1747.0,-0.0045792939022115675
1746.0,-0.004536317851322913
1745.0,-0.004493337547274212
1744.0,-0.004493337547274212
1743.0,-0.004536317851322913
1742.0,-0.0045792939022115675
1741.0,-0.004665233247877154
1740.0,-0.004708196544336296
1739.0,-0.004708196544336296
1738.0,-0.004708196544336296
1737.0,-0.004665233247877154
1736.0,-0.004665233247877154
1735.0,-0.004665233247877154
1734.0,-0.0045792939022115675
1733.0,-0.004493337547274212
1732.0,-0.004493337547274212
1731.0,-0.004536317851322913
1730.0,-0.0045792939022115675
1729.0,-0.004622265700782613
1728.0,-0.004665233247877154
1727.0,-0.004751155591001144
1726.0,-0.00488000724063431
1725.0,-0.004965887106823441
1724.0,-0.005008820672367076
1723.0,-0.004965887106823441
1722.0,-0.004965887106823441
1721.0,-0.004922949296525481
1720.0,-0.004965887106823441
1719.0,-0.005008820672367076
1718.0,-0.005094675072548682
1717.0,-0.005223424858135761
1716.0,-0.005309236848516363
1715.0,-0.005352136486216796
1714.0,-0.005309236848516363
1713.0,-0.005309236848516363
1712.0,-0.005309236848516363
1711.0,-0.005395031886706203
1710.0,-0.005480809979401258
1709.0,-0.00552369267327979
1708.0,-0.005566571133294396
1707.0,-0.005695181118510195
1706.0,-0.0058666018753847915
1705.0,-0.005995123054691298
1704.0,-0.006037954997317296
1703.0,-0.006037954997317296
1702.0,-0.005995123054691298
1701.0,-0.005952286887382918
1700.0,-0.006080782716094024
1699.0,-0.006252051369364686
1698.0,-0.006380458549692936
1697.0,-0.006508827775289827
1696.0,-0.00659438618413688
1695.0,-0.00659438618413688
1694.0,-0.00659438618413688
1693.0,-0.006637159068586307
1692.0,-0.006637159068586307
1691.0,-0.0066799277408255975
1690.0,-0.0067226922016847546
1689.0,-0.006765452451992449
1688.0,-0.006850960324272126
1687.0,-0.006850960324272126
1686.0,-0.006850960324272126
1685.0,-0.006850960324272126
1684.0,-0.006936451364292662
1683.0,-0.007064656378331868
1682.0,-0.007235537545951853
1681.0,-0.007449044497748858
1680.0,-0.0077051143647803855
1679.0,-0.007961033336183032
1678.0,-0.008216801589690181
1677.0,-0.00851500763145463
1676.0,-0.00881300905208926
1675.0,-0.008983203815471796
1674.0,-0.009068276192218505
1673.0,-0.009068276192218505
1672.0,-0.009153331907708395
1671.0,-0.009365898346244794
1670.0,-0.009578360794542107
1669.0,-0.00979071935429765
1668.0,-0.009918084665901272
1667.0,-0.010002974127059527
1666.0,-0.010087846998524608
1665.0,-0.010215125214226628
1664.0,-0.010342366139567627
1663.0,-0.010511962737213665
1662.0,-0.010596736206525126
1661.0,-0.010596736206525126
1660.0,-0.010554351540322138
1659.0,-0.010511962737213665
1658.0,-0.010511962737213665
1657.0,-0.010511962737213665
1656.0,-0.010511962737213665
1655.0,-0.010596736206525126
1654.0,-0.010766233518425317
1653.0,-0.011189687609991505
1652.0,-0.011612729219423912
1651.0,-0.012035359149529246
1650.0,-0.01241537476243293
1649.0,-0.012921545544560153
1648.0,-0.013721778051063005
1647.0,-0.014814449087053205
1646.0,-0.01565309853546548
1645.0,-0.01611366635890832
1644.0,-0.01649013162082813
1643.0,-0.01703333929878026
1642.0,-0.017700971224116735
1641.0,-0.018492453401472986
1640.0,-0.01928249576173169
1639.0,-0.019946681678842282
1638.0,-0.020651268004341805
1637.0,-0.021850577434324947
1636.0,-0.023869501388332104
1635.0,-0.025633511060697778
1634.0,-0.026124516745450244
1633.0,-0.02575631453441396
1632.0,-0.02505996859957893
1631.0,-0.024198232206868564
1630.0,-0.023087766995445236
1629.0,-0.021602716028242153
1628.0,-0.019780730403646363
1627.0,-0.017826038030424485
1626.0,-0.01586250809731382
1625.0,-0.013595523537289544
1624.0,-0.010850957373922832
1623.0,-0.007918390645599072
1622.0,-0.005395031886706203
1621.0,-0.0034174452021935586
1620.0,-0.0016039241497978196
1619.0,0.0003475746339209884
1618.0,0.0029195645282691363
1617.0,0.00621118618129457
1616.0,0.009439170005980158
1615.0,0.011574829993696856
1614.0,0.012870232340102872
1613.0,0.013945219230304673
1612.0,0.015022873584506602
1611.0,0.015832872853011715
1610.0,0.016103208673694303
1609.0,0.015922966097169144
1608.0,0.015427684378367834
1607.0,0.014618439768003144
1606.0,0.013452186585275916
1605.0,0.012110390002254778
1604.0,0.010683695010048622
1603.0,0.009261671492462709
1602.0,0.007800070204414977
1601.0,0.006431517210272464
1600.0,0.005243055412371911
1599.0,0.004189368323957332
1598.0,0.0031819781204844855
1597.0,0.0022205691343961664
1596.0,0.001304841688344327
1595.0,0.000521466320689834
1594.0,-0.00017368305846510168
1593.0,-0.0007376737740329986
1592.0,-0.00121432528617893
1591.0,-0.0016039241497978196
1590.0,-0.0020364022595291686
1589.0,-0.0024684501283323
1588.0,-0.0028137792246734072
1587.0,-0.003115717099805959
1586.0,-0.0033312585613267665
1585.0,-0.0034605321095062536
1584.0,-0.003546693102131737
1583.0,-0.003675902548784027
1582.0,-0.0038481220342978517
1581.0,-0.004063300397667113
1580.0,-0.0042353663594676405
1579.0,-0.004364371107751008
1578.0,-0.004407364176330919
1577.0,-0.004407364176330919
1576.0,-0.004407364176330919
1575.0,-0.00445035298922436
1574.0,-0.0045792939022115675
1573.0,-0.004665233247877154
1572.0,-0.004751155591001144
1571.0,-0.004794110388711914
1570.0,-0.00488000724063431
1569.0,-0.00488000724063431
1568.0,-0.00488000724063431
1567.0,-0.00488000724063431
1566.0,-0.00488000724063431
1565.0,-0.004965887106823441
1564.0,-0.005008820672367076
1563.0,-0.005051749993995713
1562.0,-0.005094675072548682
1561.0,-0.005051749993995713
1560.0,-0.004922949296525481
1559.0,-0.004794110388711914
1558.0,-0.004751155591001144
1557.0,-0.004837060938309712
1556.0,-0.004922949296525481
1555.0,-0.005008820672367076
1554.0,-0.005051749993995713
1553.0,-0.005094675072548682
1552.0,-0.005051749993995713
1551.0,-0.005008820672367076
1550.0,-0.005008820672367076
1549.0,-0.005008820672367076
1548.0,-0.005051749993995713
1547.0,-0.005137595908863979
1546.0,-0.005309236848516363
1545.0,-0.0054379230508221355
1544.0,-0.00552369267327979
1543.0,-0.005566571133294396
1542.0,-0.005566571133294396
1541.0,-0.005480809979401258
1540.0,-0.005309236848516363
1539.0,-0.005180512503780488
1538.0,-0.005180512503780488
1537.0,-0.005223424858135761
1536.0,-0.005266332972768684
1535.0,-0.005266332972768684
1534.0,-0.005309236848516363
1533.0,-0.005309236848516363
1532.0,-0.005266332972768684
1531.0,-0.005223424858135761
1530.0,-0.005180512503780488
1529.0,-0.005137595908863979
1528.0,-0.005137595908863979
1527.0,-0.005180512503780488
1526.0,-0.005266332972768684
1525.0,-0.005266332972768684
1524.0,-0.005180512503780488
1523.0,-0.005008820672367076
1522.0,-0.004794110388711914
1521.0,-0.004708196544336296
1520.0,-0.004794110388711914
1519.0,-0.00488000724063431
1518.0,-0.004965887106823441
1517.0,-0.005008820672367076
1516.0,-0.005051749993995713
1515.0,-0.005051749993995713
1514.0,-0.005137595908863979
1513.0,-0.005180512503780488
1512.0,-0.005137595908863979
1511.0,-0.005051749993995713
1510.0,-0.004922949296525481
1509.0,-0.004837060938309712
1508.0,-0.00488000724063431
1507.0,-0.004965887106823441
1506.0,-0.004965887106823441
1505.0,-0.00488000724063431
1504.0,-0.004837060938309712
1503.0,-0.004794110388711914
1502.0,-0.004751155591001144
1501.0,-0.004751155591001144
1500.0,-0.004751155591001144
1499.0,-0.004794110388711914
1498.0,-0.00488000724063431
1497.0,-0.00488000724063431
1496.0,-0.00488000724063431
1495.0,-0.004837060938309712
1494.0,-0.004837060938309712
1493.0,-0.004837060938309712
1492.0,-0.004794110388711914
1491.0,-0.004751155591001144
1490.0,-0.004708196544336296
1489.0,-0.004708196544336296
1488.0,-0.004708196544336296
1487.0,-0.004751155591001144
1486.0,-0.004751155591001144
1485.0,-0.004708196544336296
1484.0,-0.004665233247877154
1483.0,-0.004622265700782613
1482.0,-0.004622265700782613
1481.0,-0.004665233247877154
1480.0,-0.004665233247877154
1479.0,-0.004708196544336296
1478.0,-0.004708196544336296
1477.0,-0.004708196544336296
1476.0,-0.004665233247877154
1475.0,-0.004665233247877154
1474.0,-0.004665233247877154
1473.0,-0.004708196544336296
1472.0,-0.004708196544336296
1471.0,-0.004794110388711914
1470.0,-0.00488000724063431
1469.0,-0.005008820672367076
1468.0,-0.005094675072548682
1467.0,-0.005094675072548682
1466.0,-0.005137595908863979
1465.0,-0.005137595908863979
1464.0,-0.005094675072548682
1463.0,-0.005051749993995713
1462.0,-0.005008820672367076
1461.0,-0.005008820672367076
1460.0,-0.005051749993995713
1459.0,-0.005094675072548682
1458.0,-0.005266332972768684
1457.0,-0.005352136486216796
1456.0,-0.005309236848516363
1455.0,-0.005266332972768684
1454.0,-0.005309236848516363
1453.0,-0.005352136486216796
1452.0,-0.005352136486216796
1451.0,-0.005352136486216796
1450.0,-0.005352136486216796
1449.0,-0.005352136486216796
1448.0,-0.005352136486216796
1447.0,-0.005352136486216796
1446.0,-0.005395031886706203
1445.0,-0.005395031886706203
1444.0,-0.0054379230508221355
1443.0,-0.0054379230508221355
1442.0,-0.0054379230508221355
1441.0,-0.0054379230508221355
1440.0,-0.0054379230508221355
1439.0,-0.005480809979401258
1438.0,-0.00552369267327979
1437.0,-0.005566571133294396
1436.0,-0.005609445360280407
1435.0,-0.005609445360280407
1434.0,-0.005566571133294396
1433.0,-0.00552369267327979
1432.0,-0.00552369267327979
1431.0,-0.005566571133294396
1430.0,-0.005609445360280407
1429.0,-0.005652315355074045
1428.0,-0.005695181118510195
1427.0,-0.005738042651424635
1426.0,-0.005780899954652252
1425.0,-0.005909446494558601
1424.0,-0.006037954997317296
1423.0,-0.006123606211854593
1422.0,-0.006166425485431226
1421.0,-0.006166425485431226
1420.0,-0.006209240537657479
1419.0,-0.006252051369364686
1418.0,-0.006380458549692936
1417.0,-0.006508827775289827
1416.0,-0.00659438618413688
1415.0,-0.0066799277408255975
1414.0,-0.006765452451992449
1413.0,-0.006808208492578682
1412.0,-0.006850960324272126
1411.0,-0.006850960324272126
1410.0,-0.006850960324272126
1409.0,-0.006850960324272126
1408.0,-0.006808208492578682
1407.0,-0.006765452451992449
1406.0,-0.006765452451992449
1405.0,-0.006765452451992449
1404.0,-0.006808208492578682
1403.0,-0.006808208492578682
1402.0,-0.006808208492578682
1401.0,-0.006765452451992449
1400.0,-0.0067226922016847546
1399.0,-0.006637159068586307
1398.0,-0.006508827775289827
1397.0,-0.006423252507643085
1396.0,-0.006380458549692936
1395.0,-0.0063376603745508575
1394.0,-0.0063376603745508575
1393.0,-0.006380458549692936
1392.0,-0.006380458549692936
1391.0,-0.006380458549692936
1390.0,-0.0063376603745508575
1389.0,-0.0063376603745508575
1388.0,-0.0063376603745508575
1387.0,-0.0062948579813855154
1386.0,-0.006252051369364686
1385.0,-0.006209240537657479
1384.0,-0.006166425485431226
1383.0,-0.006166425485431226
1382.0,-0.006166425485431226
1381.0,-0.006166425485431226
1380.0,-0.006166425485431226
1379.0,-0.006166425485431226
1378.0,-0.006209240537657479
1377.0,-0.0062948579813855154
1376.0,-0.0062948579813855154
1375.0,-0.0062948579813855154
1374.0,-0.0062948579813855154
1373.0,-0.0062948579813855154
1372.0,-0.0063376603745508575
1371.0,-0.0063376603745508575
1370.0,-0.0063376603745508575
1369.0,-0.0063376603745508575
1368.0,-0.0063376603745508575
1367.0,-0.0063376603745508575
1366.0,-0.0063376603745508575
1365.0,-0.006380458549692936
1364.0,-0.0063376603745508575
1363.0,-0.0062948579813855154
1362.0,-0.006209240537657479
1361.0,-0.006123606211854593
1360.0,-0.006037954997317296
1359.0,-0.005952286887382918
1358.0,-0.005909446494558601
1357.0,-0.0058666018753847915
1356.0,-0.0058666018753847915
1355.0,-0.005909446494558601
1354.0,-0.005952286887382918
1353.0,-0.005995123054691298
1352.0,-0.005995123054691298
1351.0,-0.005952286887382918
1350.0,-0.005909446494558601
1349.0,-0.0058666018753847915
1348.0,-0.0058666018753847915
1347.0,-0.005909446494558601
1346.0,-0.005952286887382918
1345.0,-0.006037954997317296
1344.0,-0.006080782716094024
1343.0,-0.006037954997317296
1342.0,-0.005995123054691298
1341.0,-0.005909446494558601
1340.0,-0.0058666018753847915
1339.0,-0.0058666018753847915
1338.0,-0.005909446494558601
1337.0,-0.005909446494558601
1336.0,-0.005952286887382918
1335.0,-0.005952286887382918
1334.0,-0.005995123054691298
1333.0,-0.006037954997317296
1332.0,-0.006080782716094024
1331.0,-0.006123606211854593
1330.0,-0.006166425485431226
1329.0,-0.006166425485431226
1328.0,-0.006209240537657479
1327.0,-0.006209240537657479
1326.0,-0.006209240537657479
1325.0,-0.006166425485431226
1324.0,-0.006166425485431226
1323.0,-0.006166425485431226
1322.0,-0.006166425485431226
1321.0,-0.006209240537657479
1320.0,-0.006252051369364686
1319.0,-0.0062948579813855154
1318.0,-0.0062948579813855154
1317.0,-0.0062948579813855154
1316.0,-0.0062948579813855154
1315.0,-0.006252051369364686
1314.0,-0.006252051369364686
1313.0,-0.006252051369364686
1312.0,-0.0062948579813855154
1311.0,-0.0063376603745508575
1310.0,-0.006380458549692936
1309.0,-0.006380458549692936
1308.0,-0.006380458549692936
1307.0,-0.006380458549692936
1306.0,-0.006380458549692936
1305.0,-0.006380458549692936
1304.0,-0.0063376603745508575
1303.0,-0.0062948579813855154
1302.0,-0.0062948579813855154
1301.0,-0.0062948579813855154
1300.0,-0.0063376603745508575
1299.0,-0.006380458549692936
1298.0,-0.006423252507643085
1297.0,-0.0064660422492317515
1296.0,-0.0064660422492317515
1295.0,-0.006508827775289827
1294.0,-0.0064660422492317515
1293.0,-0.0064660422492317515
1292.0,-0.0064660422492317515
1291.0,-0.0064660422492317515
1290.0,-0.0064660422492317515
1289.0,-0.006423252507643085
1288.0,-0.006380458549692936
1287.0,-0.006380458549692936
1286.0,-0.0063376603745508575
1285.0,-0.0063376603745508575
1284.0,-0.0063376603745508575
1283.0,-0.0062948579813855154
1282.0,-0.006252051369364686
1281.0,-0.006209240537657479
1280.0,-0.006209240537657479
1279.0,-0.006252051369364686
1278.0,-0.0062948579813855154
1277.0,-0.0063376603745508575
1276.0,-0.0063376603745508575
1275.0,-0.0062948579813855154
1274.0,-0.0062948579813855154
1273.0,-0.006252051369364686
1272.0,-0.006252051369364686
1271.0,-0.006252051369364686
1270.0,-0.0062948579813855154
1269.0,-0.0063376603745508575
1268.0,-0.006380458549692936
1267.0,-0.006423252507643085
1266.0,-0.006380458549692936
1265.0,-0.006380458549692936
1264.0,-0.0063376603745508575
1263.0,-0.0062948579813855154
1262.0,-0.006252051369364686
1261.0,-0.006209240537657479
1260.0,-0.006209240537657479
1259.0,-0.006252051369364686
1258.0,-0.006252051369364686
1257.0,-0.006252051369364686
1256.0,-0.006209240537657479
1255.0,-0.006209240537657479
1254.0,-0.006209240537657479
1253.0,-0.006209240537657479
1252.0,-0.006166425485431226
1251.0,-0.006123606211854593
1250.0,-0.006080782716094024
1249.0,-0.006037954997317296
1248.0,-0.005995123054691298
1247.0,-0.005995123054691298
1246.0,-0.006037954997317296
1245.0,-0.005995123054691298
1244.0,-0.005952286887382918
1243.0,-0.0058666018753847915
1242.0,-0.00582375302902749
1241.0,-0.005780899954652252
1240.0,-0.005780899954652252
1239.0,-0.00582375302902749
1238.0,-0.00582375302902749
1237.0,-0.00582375302902749
1236.0,-0.00582375302902749
1235.0,-0.005780899954652252
1234.0,-0.005738042651424635
1233.0,-0.005652315355074045
1232.0,-0.005652315355074045
1231.0,-0.005652315355074045
1230.0,-0.005695181118510195
1229.0,-0.005738042651424635
1228.0,-0.005780899954652252
1227.0,-0.00582375302902749
1226.0,-0.005780899954652252
1225.0,-0.005738042651424635
1224.0,-0.005695181118510195
1223.0,-0.005652315355074045
1222.0,-0.005652315355074045
1221.0,-0.005695181118510195
1220.0,-0.005695181118510195
1219.0,-0.005738042651424635
1218.0,-0.005738042651424635
1217.0,-0.005738042651424635
1216.0,-0.005738042651424635
1215.0,-0.005780899954652252
1214.0,-0.005780899954652252
1213.0,-0.005780899954652252
1212.0,-0.005780899954652252
1211.0,-0.005780899954652252
1210.0,-0.005780899954652252
1209.0,-0.005780899954652252
1208.0,-0.00582375302902749
1207.0,-0.00582375302902749
1206.0,-0.005780899954652252
1205.0,-0.005738042651424635
1204.0,-0.005695181118510195
1203.0,-0.005652315355074045
1202.0,-0.005652315355074045
1201.0,-0.005695181118510195
1200.0,-0.005738042651424635
1199.0,-0.005780899954652252
1198.0,-0.005738042651424635
1197.0,-0.005738042651424635
1196.0,-0.005695181118510195
1195.0,-0.005695181118510195
1194.0,-0.005695181118510195
1193.0,-0.005652315355074045
1192.0,-0.005609445360280407
1191.0,-0.00552369267327979
1190.0,-0.005480809979401258
1189.0,-0.0054379230508221355
1188.0,-0.005480809979401258
1187.0,-0.005480809979401258
1186.0,-0.005480809979401258
1185.0,-0.0054379230508221355
1184.0,-0.005395031886706203
1183.0,-0.005352136486216796
1182.0,-0.005352136486216796
1181.0,-0.005352136486216796
1180.0,-0.005352136486216796
1179.0,-0.005309236848516363
1178.0,-0.005266332972768684
1177.0,-0.005180512503780488
1176.0,-0.005051749993995713
1175.0,-0.005008820672367076
1174.0,-0.005008820672367076
1173.0,-0.005008820672367076
1172.0,-0.005008820672367076
1171.0,-0.004922949296525481
1170.0,-0.004794110388711914
1169.0,-0.004622265700782613
1168.0,-0.004536317851322913
1167.0,-0.004493337547274212
1166.0,-0.004364371107751008
1165.0,-0.004192356259714369
1164.0,-0.004020273253241502
1163.0,-0.0038481220342978517
1162.0,-0.003762020828246282
1161.0,-0.0035897671891400584
1160.0,-0.0034174452021935586
1159.0,-0.003201946521692367
1158.0,-0.0030725959676747294
1157.0,-0.0029432068763250996
1156.0,-0.0027274726898296464
1155.0,-0.0025116312849080558
1154.0,-0.0022524799205383417
1153.0,-0.0020364022595291686
1152.0,-0.001776967077439462
1151.0,-0.0015173768235041685
1150.0,-0.0013009330204178937
1149.0,-0.001041057986093552
1148.0,-0.0007810273534953893
1147.0,-0.0006075870628903246
1146.0,-0.0003906892499099257
1145.0,-0.00017368305846510168
1144.0,8.686758342868472e-05
1143.0,0.0003475746339209884
1142.0,0.0006084382809090627
1141.0,0.000869458712629001
1140.0,0.0010870956412141197
1139.0,0.001304841688344327
1138.0,0.0015226969634936083
1137.0,0.0017406615763013722
1136.0,0.0020023635919956817
1135.0,0.0022642234021015284
1134.0,0.002569926202528716
1133.0,0.0028758443407954637
1132.0,0.0031819781204844855
1131.0,0.0034445503666347133
1130.0,0.0036634819042162814
1129.0,0.0038387066319929275
1128.0,0.0040578370074493275
1127.0,0.004320939488377862
1126.0,0.00458420145758498
1125.0,0.00484762310854614
1124.0,0.005111204635089406
1123.0,0.005243055412371911
1122.0,0.005330978174470591
1121.0,0.00537494623139545
1120.0,0.005550862985963967
1119.0,0.005858888873877532
1118.0,0.006167133386013823
1117.0,0.006387442061109638
1116.0,0.00656376950238835
1115.0,0.006651960076740071
1114.0,0.006651960076740071
1113.0,0.006607862550997545
1112.0,0.006696062080525422
1111.0,0.006916639301937977
1110.0,0.007137328610972382
1109.0,0.007313960837872058
1108.0,0.007402303897961815
1107.0,0.007402303897961815
1106.0,0.0074464821678643656
1105.0,0.007490664932224611
1104.0,0.007534852191956709
1103.0,0.007534852191956709
1102.0,0.007534852191956709
1101.0,0.0075790439479759275
1100.0,0.00762324020119709
1099.0,0.007667440952535687
1098.0,0.007711646202907652
1097.0,0.007711646202907652
1096.0,0.007711646202907652
1095.0,0.00762324020119709
1094.0,0.007402303897961815
1093.0,0.007049039429553483
1092.0,0.006607862550997545
1091.0,0.00625524344553785
1090.0,0.005990966876386672
1089.0,0.00590291041179003
1088.0,0.00590291041179003
1087.0,0.005858888873877532
1086.0,0.005814871797682919
1085.0,0.005726851026829571
1084.0,0.005550862985963967
1083.0,0.0052870145684298375
1082.0,0.004979393875242044
1081.0,0.004671990922590297
1080.0,0.0043648054024501
1079.0,0.00401400208620073
1078.0,0.003619686766589858
1077.0,0.0033132443998284966
1076.0,0.0030944893043338695
1075.0,0.0029195645282691363
1074.0,0.0028321285541661467
1073.0,0.002701007590486082
1072.0,0.0025262411970197185
1071.0,0.002395212539545666
1070.0,0.0022642234021015284
1069.0,0.0021332737608552588
1068.0,0.0020023635919956817
1067.0,0.001915112063444413
1066.0,0.0017406615763013722
1065.0,0.0015226969634936083
1064.0,0.0012612837441823288
1063.0,0.0010435595295137379
1062.0,0.000869458712629001
1061.0,0.0007389288868995258
1060.0,0.0006519307932786322
1059.0,0.0005649501236701937
1058.0,0.0004779868710962365
1057.0,0.00043451177401765406
1056.0,0.0003910410285830057
1055.0,0.00030411258916074324
1054.0,0.00017375254558760211
1053.0,0.0
1052.0,-8.685021164911433e-05
1051.0,-0.00017368305846510168
1050.0,-0.00021709297223004853
1049.0,-0.0003472966853634851
1048.0,-0.00043407747931878404
1047.0,-0.0005208409361854294
1046.0,-0.0005642161653756084
1045.0,-0.0006509536295951079
1044.0,-0.0006943158663546001
1043.0,-0.0007810273534953893
1042.0,-0.0009110621312231615
1041.0,-0.0011710149414008164
1040.0,-0.0014308122463981832
1039.0,-0.0016471913460383014
1038.0,-0.001776967077439462
1037.0,-0.0018634626925240205
1036.0,-0.0019499410842680476
1035.0,-0.0020796263931210923
1034.0,-0.0021228462251614566
1033.0,-0.0021228462251614566
1032.0,-0.0021228462251614566
1031.0,-0.0020796263931210923
1030.0,-0.0021228462251614566
1029.0,-0.0021660617565077978
1028.0,-0.0022956825549340643
1027.0,-0.0023820749327607693
1026.0,-0.0025116312849080558
1025.0,-0.002597980719908577
1024.0,-0.0026411490000399773
1023.0,-0.0027274726898296464
1022.0,-0.0027274726898296464
1021.0,-0.0027706281011936618
1020.0,-0.0027706281011936618
1019.0,-0.0027706281011936618
1018.0,-0.002900068611387585
1017.0,-0.0029863408567849525
1016.0,-0.0030725959676747294
1015.0,-0.0030725959676747294
1014.0,-0.003115717099805959
1013.0,-0.003158833950862139
1012.0,-0.003201946521692367
1011.0,-0.003201946521692367
1010.0,-0.003115717099805959
1009.0,-0.0029432068763250996
1008.0,-0.0027706281011936618
1007.0,-0.002597980719908577
1006.0,-0.0024684501283323
1005.0,-0.0024252646779014952
1004.0,-0.0024684501283323
1003.0,-0.002597980719908577
1002.0,-0.002684312989729598
1001.0,-0.0027274726898296464
1000.0,-0.0028137792246734072
999.0,-0.002900068611387585
998.0,-0.003115717099805959
997.0,-0.0032881588260753603
996.0,-0.0033743540197499478
995.0,-0.0034174452021935586
994.0,-0.0034174452021935586
993.0,-0.0034174452021935586
992.0,-0.0034174452021935586
991.0,-0.0034605321095062536
990.0,-0.0034174452021935586
989.0,-0.0033743540197499478
988.0,-0.0033312585613267665
987.0,-0.0033312585613267665
986.0,-0.0033312585613267665
985.0,-0.0034174452021935586
984.0,-0.003503614742536687
983.0,-0.003632837004408529
982.0,-0.0037189638231147626
981.0,-0.003891166236910326
980.0,-0.004020273253241502
979.0,-0.004149341900058889
978.0,-0.004192356259714369
977.0,-0.004192356259714369
976.0,-0.004192356259714369
975.0,-0.0042353663594676405
974.0,-0.004364371107751008
973.0,-0.004493337547274212
972.0,-0.0045792939022115675
971.0,-0.004536317851322913
970.0,-0.00445035298922436
969.0,-0.004364371107751008
968.0,-0.004364371107751008
967.0,-0.004364371107751008
966.0,-0.004321373782642635
965.0,-0.0042783722001624724
964.0,-0.004364371107751008
963.0,-0.00445035298922436
962.0,-0.004536317851322913
961.0,-0.004536317851322913
960.0,-0.0045792939022115675
959.0,-0.004622265700782613
958.0,-0.004708196544336296
957.0,-0.004751155591001144
956.0,-0.004665233247877154
955.0,-0.004493337547274212
954.0,-0.0042353663594676405
953.0,-0.004106323279658319
952.0,-0.004106323279658319
951.0,-0.004321373782642635
950.0,-0.0045792939022115675
949.0,-0.004751155591001144
948.0,-0.004794110388711914
947.0,-0.004708196544336296
946.0,-0.004622265700782613
945.0,-0.0045792939022115675
944.0,-0.004622265700782613
943.0,-0.004708196544336296
942.0,-0.004751155591001144
941.0,-0.004794110388711914
940.0,-0.004794110388711914
939.0,-0.004794110388711914
938.0,-0.004794110388711914
937.0,-0.004837060938309712
936.0,-0.004922949296525481
935.0,-0.005008820672367076
934.0,-0.005051749993995713
933.0,-0.005051749993995713
932.0,-0.005094675072548682
931.0,-0.005137595908863979
930.0,-0.005137595908863979
929.0,-0.005137595908863979
928.0,-0.005180512503780488
927.0,-0.005266332972768684
926.0,-0.005352136486216796
925.0,-0.005395031886706203
924.0,-0.005352136486216796
923.0,-0.005309236848516363
922.0,-0.005266332972768684
921.0,-0.005223424858135761
920.0,-0.005180512503780488
919.0,-0.005180512503780488
918.0,-0.005223424858135761
917.0,-0.005309236848516363
916.0,-0.005395031886706203
915.0,-0.00552369267327979
914.0,-0.005652315355074045
913.0,-0.00582375302902749
912.0,-0.005952286887382918
911.0,-0.005952286887382918
910.0,-0.0058666018753847915
909.0,-0.005738042651424635
908.0,-0.005652315355074045
907.0,-0.005652315355074045
906.0,-0.005652315355074045
905.0,-0.005652315355074045
904.0,-0.005695181118510195
903.0,-0.005780899954652252
902.0,-0.005952286887382918
901.0,-0.006080782716094024
900.0,-0.006166425485431226
899.0,-0.006166425485431226
898.0,-0.006123606211854593
897.0,-0.006123606211854593
896.0,-0.006166425485431226
895.0,-0.006252051369364686
894.0,-0.0063376603745508575
893.0,-0.006380458549692936
892.0,-0.006380458549692936
891.0,-0.0062948579813855154
890.0,-0.0062948579813855154
889.0,-0.0063376603745508575
888.0,-0.006423252507643085
887.0,-0.006423252507643085
886.0,-0.006380458549692936
885.0,-0.006380458549692936
884.0,-0.006423252507643085
883.0,-0.006508827775289827
882.0,-0.006551609086648202
881.0,-0.006637159068586307
880.0,-0.0067226922016847546
879.0,-0.006850960324272126
878.0,-0.006936451364292662
877.0,-0.00710738297405733
876.0,-0.007235537545951853
875.0,-0.007320952922744706
874.0,-0.007278247334244092
873.0,-0.007235537545951853
872.0,-0.007235537545951853
871.0,-0.007278247334244092
870.0,-0.007278247334244092
869.0,-0.007235537545951853
868.0,-0.007150105366684922
867.0,-0.00710738297405733
866.0,-0.007064656378331868
865.0,-0.00710738297405733
864.0,-0.007150105366684922
863.0,-0.007192823557040651
862.0,-0.007192823557040651
861.0,-0.007235537545951853
860.0,-0.007278247334244092
859.0,-0.0074063515036710825
858.0,-0.007491733295335923
857.0,-0.007577098304338836
856.0,-0.007619774517403144
855.0,-0.007577098304338836
854.0,-0.007491733295335923
853.0,-0.007320952922744706
852.0,-0.007192823557040651
851.0,-0.007150105366684922
850.0,-0.007235537545951853
849.0,-0.007449044497748858
848.0,-0.007747778000740002
847.0,-0.008088936291577475
846.0,-0.00825941499127536
845.0,-0.008344629252689195
844.0,-0.008344629252689195
843.0,-0.008302024212001324
842.0,-0.008216801589690181
841.0,-0.008088936291577475
840.0,-0.008088936291577475
839.0,-0.00825941499127536
838.0,-0.00864274756528527
837.0,-0.008983203815471796
836.0,-0.008983203815471796
835.0,-0.008685319195167907
834.0,-0.008344629252689195
833.0,-0.008131562240662582
832.0,-0.008131562240662582
831.0,-0.00825941499127536
830.0,-0.00851500763145463
829.0,-0.008855563996212457
828.0,-0.009110806132212712
827.0,-0.00923837096846647
826.0,-0.00923837096846647
825.0,-0.009195853519521346
824.0,-0.009195853519521346
823.0,-0.00932339338101329
822.0,-0.00945089579869407
821.0,-0.009578360794542107
820.0,-0.009535876619218175
819.0,-0.009408399151866753
818.0,-0.009280884255358668
817.0,-0.009280884255358668
816.0,-0.00932339338101329
815.0,-0.009408399151866753
814.0,-0.009365898346244794
813.0,-0.009280884255358668
812.0,-0.009195853519521346
811.0,-0.009195853519521346
810.0,-0.00932339338101329
809.0,-0.009493388287539872
808.0,-0.009663316679379363
807.0,-0.009705788390518055
806.0,-0.009620840814324794
805.0,-0.00945089579869407
804.0,-0.009365898346244794
803.0,-0.009365898346244794
802.0,-0.009408399151866753
801.0,-0.009493388287539872
800.0,-0.009705788390518055
799.0,-0.010002974127059527
798.0,-0.010172703286778884
797.0,-0.01013027721514792
796.0,-0.00979071935429765
795.0,-0.009408399151866753
794.0,-0.00923837096846647
793.0,-0.00932339338101329
792.0,-0.009535876619218175
791.0,-0.00979071935429765
790.0,-0.010087846998524608
789.0,-0.010427172717049071
788.0,-0.010723865391772947
787.0,-0.010893313104380464
786.0,-0.010850957373922832
785.0,-0.01068149313144362
784.0,-0.010511962737213665
783.0,-0.010469569796391909
782.0,-0.010384771498377354
781.0,-0.010299956639812091
780.0,-0.010299956639812091
779.0,-0.010469569796391909
778.0,-0.010850957373922832
777.0,-0.011189687609991505
776.0,-0.011316643366872103
775.0,-0.011232010319365937
774.0,-0.011147360775797477
773.0,-0.011147360775797477
772.0,-0.011232010319365937
771.0,-0.011358953706610553
770.0,-0.011401259924743723
769.0,-0.011401259924743723
768.0,-0.011443562022074527
767.0,-0.011528153857539358
766.0,-0.011739561388318442
765.0,-0.011950866059398546
764.0,-0.01207759953101517
763.0,-0.012119835804513368
762.0,-0.01207759953101517
761.0,-0.012162067970823198
760.0,-0.012288739834606766
759.0,-0.012373167222489823
758.0,-0.012288739834606766
757.0,-0.011950866059398546
756.0,-0.011570443597278324
755.0,-0.011358953706610553
754.0,-0.011358953706610553
753.0,-0.011401259924743723
752.0,-0.011443562022074527
751.0,-0.011570443597278324
750.0,-0.011781830548106775
749.0,-0.011993114659256676
748.0,-0.012035359149529246
747.0,-0.011781830548106775
746.0,-0.011528153857539358
745.0,-0.011443562022074527
744.0,-0.011528153857539358
743.0,-0.011697288114142612
742.0,-0.011908613349154162
741.0,-0.012119835804513368
740.0,-0.012162067970823198
739.0,-0.011908613349154162
738.0,-0.011528153857539358
737.0,-0.011274328904725017
736.0,-0.011147360775797477
735.0,-0.011189687609991505
734.0,-0.011358953706610553
733.0,-0.011697288114142612
732.0,-0.012035359149529246
731.0,-0.012162067970823198
730.0,-0.011908613349154162
729.0,-0.011358953706610553
728.0,-0.010893313104380464
727.0,-0.01068149313144362
726.0,-0.010808597512206308
725.0,-0.01110502981598005
724.0,-0.011401259924743723
723.0,-0.011655010724778148
722.0,-0.011908613349154162
721.0,-0.01220429603074269
720.0,-0.012373167222489823
719.0,-0.012330955580146963
718.0,-0.01207759953101517
717.0,-0.011739561388318442
716.0,-0.011232010319365937
715.0,-0.01068149313144362
714.0,-0.010215125214226628
713.0,-0.010002974127059527
712.0,-0.010045412636098483
711.0,-0.010172703286778884
710.0,-0.010342366139567627
709.0,-0.010596736206525126
708.0,-0.01110502981598005
707.0,-0.011697288114142612
706.0,-0.01207759953101517
705.0,-0.011950866059398546
704.0,-0.011232010319365937
703.0,-0.010215125214226628
702.0,-0.00932339338101329
701.0,-0.008983203815471796
700.0,-0.00932339338101329
699.0,-0.010002974127059527
698.0,-0.01068149313144362
697.0,-0.010893313104380464
696.0,-0.010384771498377354
695.0,-0.00932339338101329
694.0,-0.008472419302722134
693.0,-0.008344629252689195
692.0,-0.009025742086910427
691.0,-0.009918084665901272
690.0,-0.010087846998524608
689.0,-0.009195853519521346
688.0,-0.007577098304338836
687.0,-0.006123606211854593
686.0,-0.005566571133294396
685.0,-0.00582375302902749
684.0,-0.0063376603745508575
683.0,-0.00659438618413688
682.0,-0.00659438618413688
681.0,-0.006508827775289827
680.0,-0.00659438618413688
679.0,-0.0068937079479005625
678.0,-0.007449044497748858
677.0,-0.008216801589690181
676.0,-0.008727886652384775
675.0,-0.00881300905208926
674.0,-0.008727886652384775
673.0,-0.008940661377087267
672.0,-0.00923837096846647
671.0,-0.00881300905208926
670.0,-0.00697919057427665
669.0,-0.004063300397667113
668.0,-0.002900068611387585
667.0,-0.004965887106823441
666.0,-0.007021925578680754
665.0,-0.007747778000740002
664.0,-0.007875743767585153
663.0,-0.007790437445978515
662.0,-0.007619774517403144
661.0,-0.00710738297405733
660.0,-0.005995123054691298
659.0,-0.004493337547274212
658.0,-0.003115717099805959
657.0,-0.0024252646779014952
656.0,-0.0025548081484823015
655.0,-0.003201946521692367
654.0,-0.0038481220342978517
653.0,-0.0042353663594676405
652.0,-0.004407364176330919
651.0,-0.004751155591001144
650.0,-0.00552369267327979
649.0,-0.006508827775289827
648.0,-0.007150105366684922
647.0,-0.007192823557040651
646.0,-0.0067226922016847546
645.0,-0.005909446494558601
644.0,-0.00488000724063431
643.0,-0.003762020828246282
642.0,-0.0028137792246734072
641.0,-0.0019931738235303698
640.0,-0.0010843812922201046
639.0,-0.00013026880522692963
638.0,0.00021720154586435392
637.0,-0.0006943158663546001
636.0,-0.0027706281011936618
635.0,-0.004837060938309712
634.0,-0.005352136486216796
633.0,-0.003503614742536687
632.0,-0.00013026880522692963
631.0,0.002701007590486082
630.0,0.0034445503666347133
629.0,0.0020459959305969555
628.0,-8.685021164911433e-05
627.0,-0.0016904542321527494
626.0,-0.0024684501283323
625.0,-0.0029863408567849525
624.0,-0.003503614742536687
623.0,-0.003805073565025019
622.0,-0.003632837004408529
621.0,-0.0029432068763250996
620.0,-0.0019931738235303698
619.0,-0.001041057986093552
618.0,-0.0006943158663546001
617.0,-0.0011277002770349043
616.0,-0.0018634626925240205
615.0,-0.0023820749327607693
614.0,-0.002856926061120646
613.0,-0.003891166236910326
612.0,-0.005094675072548682
611.0,-0.005566571133294396
610.0,-0.005395031886706203
609.0,-0.005480809979401258
608.0,-0.006380458549692936
607.0,-0.007491733295335923
606.0,-0.007747778000740002
605.0,-0.0066799277408255975
604.0,-0.004407364176330919
603.0,-0.001733712809000476
602.0,-0.00013026880522692963
601.0,-0.0006943158663546001
600.0,-0.002338880892056583
