cm-1,A
4000.0,0.0075
3999.0,0.0075
3998.0,0.0075
3997.0,0.0075
3996.0,0.0076
3995.0,0.0077
3994.0,0.0077
3993.0,0.0078
3992.0,0.0078
3991.0,0.0078
3990.0,0.0077
3989.0,0.0077
3988.0,0.0077
3987.0,0.0077
3986.0,0.0076
3985.0,0.0075
3984.0,0.0074
3983.0,0.0074
3982.0,0.0074
3981.0,0.0074
3980.0,0.0074
3979.0,0.0074
3978.0,0.0074
3977.0,0.0075
3976.0,0.0076
3975.0,0.0077
3974.0,0.0077
3973.0,0.0077
3972.0,0.0077
3971.0,0.0077
3970.0,0.0077
3969.0,0.0077
3968.0,0.0077
3967.0,0.0077
3966.0,0.0076
3965.0,0.0076
3964.0,0.0075
3963.0,0.0075
3962.0,0.0074
3961.0,0.0074
3960.0,0.0075
3959.0,0.0076
3958.0,0.0077
3957.0,0.0077
3956.0,0.0077
3955.0,0.0076
3954.0,0.0075
3953.0,0.0073
3952.0,0.0073
3951.0,0.0073
3950.0,0.0073
3949.0,0.0074
3948.0,0.0074
3947.0,0.0075
3946.0,0.0076
3945.0,0.0077
3944.0,0.0078
3943.0,0.0078
3942.0,0.0077
3941.0,0.0076
3940.0,0.0075
3939.0,0.0075
3938.0,0.0075
3937.0,0.0075
3936.0,0.0076
3935.0,0.0076
3934.0,0.0077
3933.0,0.0078
3932.0,0.0078
3931.0,0.0076
3930.0,0.0075
3929.0,0.0074
3928.0,0.0075
3927.0,0.0075
3926.0,0.0076
3925.0,0.0077
3924.0,0.0077
3923.0,0.0077
3922.0,0.0078
3921.0,0.0078
3920.0,0.0078
3919.0,0.0078
3918.0,0.0078
3917.0,0.0078
3916.0,0.0078
3915.0,0.0078
3914.0,0.0078
3913.0,0.0078
3912.0,0.0078
3911.0,0.0078
3910.0,0.0078
3909.0,0.0078
3908.0,0.0079
3907.0,0.008
3906.0,0.0082
3905.0,0.0083
3904.0,0.0084
3903.0,0.0082
3902.0,0.008
3901.0,0.0078
3900.0,0.0077
3899.0,0.0076
3898.0,0.0076
3897.0,0.0077
3896.0,0.0077
3895.0,0.0078
3894.0,0.0078
3893.0,0.0079
3892.0,0.008
3891.0,0.008
3890.0,0.008
3889.0,0.008
3888.0,0.0081
3887.0,0.0081
3886.0,0.008
3885.0,0.0079
3884.0,0.0078
3883.0,0.0078
3882.0,0.0078
3881.0,0.0078
3880.0,0.0078
3879.0,0.0078
3878.0,0.0079
3877.0,0.0079
3876.0,0.0078
3875.0,0.0077
3874.0,0.0075
3873.0,0.0076
3872.0,0.0078
3871.0,0.0079
3870.0,0.0079
3869.0,0.0078
3868.0,0.0077
3867.0,0.0077
3866.0,0.0077
3865.0,0.0077
3864.0,0.0078
3863.0,0.0078
3862.0,0.0079
3861.0,0.008
3860.0,0.008
3859.0,0.0079
3858.0,0.0078
3857.0,0.0077
3856.0,0.0076
3855.0,0.0078
3854.0,0.008
3853.0,0.0079
3852.0,0.0079
3851.0,0.008
3850.0,0.0082
3849.0,0.0083
3848.0,0.0083
3847.0,0.0082
3846.0,0.008
3845.0,0.0079
3844.0,0.0077
3843.0,0.0076
3842.0,0.0076
3841.0,0.0077
3840.0,0.0079
3839.0,0.0081
3838.0,0.008
3837.0,0.0079
3836.0,0.0078
3835.0,0.0078
3834.0,0.0079
3833.0,0.008
3832.0,0.0081
3831.0,0.0081
3830.0,0.0081
3829.0,0.0081
3828.0,0.0081
3827.0,0.0081
3826.0,0.0082
3825.0,0.0082
3824.0,0.0081
3823.0,0.0081
3822.0,0.0079
3821.0,0.0077
3820.0,0.0076
3819.0,0.0078
3818.0,0.0081
3817.0,0.0082
3816.0,0.0082
3815.0,0.0081
3814.0,0.0081
3813.0,0.0082
3812.0,0.0082
3811.0,0.0082
3810.0,0.0082
3809.0,0.0083
3808.0,0.0083
3807.0,0.0082
3806.0,0.0081
3805.0,0.0081
3804.0,0.0081
3803.0,0.0082
3802.0,0.0081
3801.0,0.0079
3800.0,0.0079
3799.0,0.008
3798.0,0.0081
3797.0,0.0082
3796.0,0.0082
3795.0,0.0082
3794.0,0.0083
3793.0,0.0084
3792.0,0.0085
3791.0,0.0084
3790.0,0.0084
3789.0,0.0083
3788.0,0.0082
3787.0,0.0082
3786.0,0.0082
3785.0,0.0081
3784.0,0.0082
3783.0,0.0083
3782.0,0.0085
3781.0,0.0086
3780.0,0.0086
3779.0,0.0084
3778.0,0.0083
3777.0,0.0082
3776.0,0.0082
3775.0,0.0082
3774.0,0.0083
3773.0,0.0083
3772.0,0.0083
3771.0,0.0084
3770.0,0.0085
3769.0,0.0085
3768.0,0.0084
3767.0,0.0084
3766.0,0.0084
3765.0,0.0083
3764.0,0.0084
3763.0,0.0084
3762.0,0.0084
3761.0,0.0084
3760.0,0.0083
3759.0,0.0082
3758.0,0.0081
3757.0,0.0081
3756.0,0.0081
3755.0,0.0081
3754.0,0.0081
3753.0,0.0081
3752.0,0.0083
3751.0,0.0084
3750.0,0.0084
3749.0,0.0084
3748.0,0.0085
3747.0,0.0085
3746.0,0.0085
3745.0,0.0085
3744.0,0.0084
3743.0,0.0084
3742.0,0.0085
3741.0,0.0085
3740.0,0.0084
3739.0,0.0083
3738.0,0.0082
3737.0,0.0083
3736.0,0.0084
3735.0,0.0083
3734.0,0.0082
3733.0,0.0083
3732.0,0.0084
3731.0,0.0086
3730.0,0.0087
3729.0,0.0087
3728.0,0.0086
3727.0,0.0085
3726.0,0.0083
3725.0,0.0082
3724.0,0.0082
3723.0,0.0081
3722.0,0.0082
3721.0,0.0084
3720.0,0.0086
3719.0,0.0087
3718.0,0.0088
3717.0,0.0087
3716.0,0.0086
3715.0,0.0085
3714.0,0.0084
3713.0,0.0084
3712.0,0.0084
3711.0,0.0085
3710.0,0.0085
3709.0,0.0086
3708.0,0.0087
3707.0,0.0087
3706.0,0.0087
3705.0,0.0087
3704.0,0.0086
3703.0,0.0085
3702.0,0.0085
3701.0,0.0086
3700.0,0.0087
3699.0,0.0088
3698.0,0.0089
3697.0,0.0088
3696.0,0.0087
3695.0,0.0086
3694.0,0.0086
3693.0,0.0085
3692.0,0.0085
3691.0,0.0085
3690.0,0.0086
3689.0,0.0085
3688.0,0.0085
3687.0,0.0085
3686.0,0.0086
3685.0,0.0088
3684.0,0.0088
3683.0,0.0088
3682.0,0.0088
3681.0,0.0089
3680.0,0.0089
3679.0,0.0089
3678.0,0.0089
3677.0,0.0088
3676.0,0.0086
3675.0,0.0083
3674.0,0.0081
3673.0,0.0082
3672.0,0.0084
3671.0,0.0084
3670.0,0.0084
3669.0,0.0083
3668.0,0.0084
3667.0,0.0085
3666.0,0.0086
3665.0,0.0087
3664.0,0.0087
3663.0,0.0088
3662.0,0.0088
3661.0,0.0088
3660.0,0.0088
3659.0,0.0087
3658.0,0.0087
3657.0,0.0087
3656.0,0.0087
3655.0,0.0086
3654.0,0.0087
3653.0,0.0086
3652.0,0.0086
3651.0,0.0086
3650.0,0.0089
3649.0,0.009
3648.0,0.0088
3647.0,0.0087
3646.0,0.0087
3645.0,0.0088
3644.0,0.0089
3643.0,0.009
3642.0,0.009
3641.0,0.0089
3640.0,0.0089
3639.0,0.0089
3638.0,0.0089
3637.0,0.009
3636.0,0.009
3635.0,0.009
3634.0,0.009
3633.0,0.009
3632.0,0.009
3631.0,0.0092
3630.0,0.0095
3629.0,0.0097
3628.0,0.0097
3627.0,0.0096
3626.0,0.0096
3625.0,0.0096
3624.0,0.0094
3623.0,0.0093
3622.0,0.0092
3621.0,0.0092
3620.0,0.0093
3619.0,0.0094
3618.0,0.0095
3617.0,0.0096
3616.0,0.0096
3615.0,0.0096
3614.0,0.0096
3613.0,0.0097
3612.0,0.0098
3611.0,0.0099
3610.0,0.01
3609.0,0.0101
3608.0,0.0101
3607.0,0.01
3606.0,0.0098
3605.0,0.0097
3604.0,0.0096
3603.0,0.0096
3602.0,0.0097
3601.0,0.0097
3600.0,0.0098
3599.0,0.0097
3598.0,0.0097
3597.0,0.0098
3596.0,0.0098
3595.0,0.0099
3594.0,0.0099
3593.0,0.0099
3592.0,0.01
3591.0,0.01
3590.0,0.01
3589.0,0.01
3588.0,0.0102
3587.0,0.0103
3586.0,0.0104
3585.0,0.0105
3584.0,0.0105
3583.0,0.0105
3582.0,0.0105
3581.0,0.0105
3580.0,0.0105
3579.0,0.0104
3578.0,0.0104
3577.0,0.0104
3576.0,0.0106
3575.0,0.0107
3574.0,0.0108
3573.0,0.0108
3572.0,0.0107
3571.0,0.0106
3570.0,0.0105
3569.0,0.0105
3568.0,0.0106
3567.0,0.0107
3566.0,0.0108
3565.0,0.0108
3564.0,0.0108
3563.0,0.0108
3562.0,0.0107
3561.0,0.0107
3560.0,0.0107
3559.0,0.0108
3558.0,0.0109
3557.0,0.011
3556.0,0.0111
3555.0,0.0111
3554.0,0.011
3553.0,0.011
3552.0,0.011
3551.0,0.011
3550.0,0.011
3549.0,0.0111
3548.0,0.0112
3547.0,0.0111
3546.0,0.0111
3545.0,0.0111
3544.0,0.0112
3543.0,0.0113
3542.0,0.0114
3541.0,0.0115
3540.0,0.0115
3539.0,0.0114
3538.0,0.0113
3537.0,0.0113
3536.0,0.0114
3535.0,0.0115
3534.0,0.0116
3533.0,0.0117
3532.0,0.0117
3531.0,0.0117
3530.0,0.0117
3529.0,0.0117
3528.0,0.0117
3527.0,0.0117
3526.0,0.0118
3525.0,0.0119
3524.0,0.012
3523.0,0.0121
3522.0,0.0121
3521.0,0.0121
3520.0,0.012
3519.0,0.012
3518.0,0.0119
3517.0,0.0118
3516.0,0.0118
3515.0,0.0119
3514.0,0.012
3513.0,0.012
3512.0,0.0121
3511.0,0.0121
3510.0,0.012
3509.0,0.012
3508.0,0.012
3507.0,0.0119
3506.0,0.0119
3505.0,0.0119
3504.0,0.012
3503.0,0.012
3502.0,0.012
3501.0,0.012
3500.0,0.0119
3499.0,0.0119
3498.0,0.0119
3497.0,0.012
3496.0,0.0121
3495.0,0.0122
3494.0,0.0123
3493.0,0.0123
3492.0,0.0122
3491.0,0.0122
3490.0,0.0123
3489.0,0.0124
3488.0,0.0126
3487.0,0.0128
3486.0,0.0128
3485.0,0.0127
3484.0,0.0125
3483.0,0.0123
3482.0,0.0122
3481.0,0.0122
3480.0,0.0123
3479.0,0.0123
3478.0,0.0124
3477.0,0.0124
3476.0,0.0125
3475.0,0.0125
3474.0,0.0126
3473.0,0.0125
3472.0,0.0125
3471.0,0.0126
3470.0,0.0126
3469.0,0.0127
3468.0,0.0127
3467.0,0.0126
3466.0,0.0126
3465.0,0.0125
3464.0,0.0126
3463.0,0.0126
3462.0,0.0127
3461.0,0.0128
3460.0,0.0128
3459.0,0.0128
3458.0,0.0128
3457.0,0.0128
3456.0,0.0128
3455.0,0.0128
3454.0,0.0129
3453.0,0.013
3452.0,0.0131
3451.0,0.0131
3450.0,0.0131
3449.0,0.0131
3448.0,0.013
3447.0,0.013
3446.0,0.013
3445.0,0.013
3444.0,0.013
3443.0,0.013
3442.0,0.0131
3441.0,0.0132
3440.0,0.0134
3439.0,0.0136
3438.0,0.0137
3437.0,0.0137
3436.0,0.0137
3435.0,0.0136
3434.0,0.0136
3433.0,0.0136
3432.0,0.0135
3431.0,0.0135
3430.0,0.0135
3429.0,0.0135
3428.0,0.0134
3427.0,0.0133
3426.0,0.0132
3425.0,0.0132
3424.0,0.0132
3423.0,0.0133
3422.0,0.0133
3421.0,0.0133
3420.0,0.0133
3419.0,0.0133
3418.0,0.0133
3417.0,0.0133
3416.0,0.0133
3415.0,0.0133
3414.0,0.0132
3413.0,0.0131
3412.0,0.0131
3411.0,0.0132
3410.0,0.0133
3409.0,0.0134
3408.0,0.0135
3407.0,0.0134
3406.0,0.0134
3405.0,0.0132
3404.0,0.0131
3403.0,0.0131
3402.0,0.0132
3401.0,0.0132
3400.0,0.0133
3399.0,0.0134
3398.0,0.0135
3397.0,0.0135
3396.0,0.0135
3395.0,0.0134
3394.0,0.0133
3393.0,0.0132
3392.0,0.0132
3391.0,0.0132
3390.0,0.0132
3389.0,0.0131
3388.0,0.013
3387.0,0.013
3386.0,0.013
3385.0,0.0131
3384.0,0.0131
3383.0,0.0131
3382.0,0.0131
3381.0,0.013
3380.0,0.013
3379.0,0.0129
3378.0,0.0129
3377.0,0.0129
3376.0,0.013
3375.0,0.013
3374.0,0.013
3373.0,0.013
3372.0,0.0129
3371.0,0.0129
3370.0,0.013
3369.0,0.013
3368.0,0.0131
3367.0,0.0131
3366.0,0.013
3365.0,0.013
3364.0,0.0129
3363.0,0.0129
3362.0,0.013
3361.0,0.013
3360.0,0.013
3359.0,0.0129
3358.0,0.0128
3357.0,0.0128
3356.0,0.0128
3355.0,0.0129
3354.0,0.0129
3353.0,0.0128
3352.0,0.0129
3351.0,0.0129
3350.0,0.0129
3349.0,0.0129
3348.0,0.0129
3347.0,0.0129
3346.0,0.0129
3345.0,0.013
3344.0,0.0131
3343.0,0.0131
3342.0,0.013
3341.0,0.0129
3340.0,0.0129
3339.0,0.0128
3338.0,0.0128
3337.0,0.0128
3336.0,0.0127
3335.0,0.0127
3334.0,0.0127
3333.0,0.0127
3332.0,0.0126
3331.0,0.0125
3330.0,0.0124
3329.0,0.0123
3328.0,0.0123
3327.0,0.0123
3326.0,0.0123
3325.0,0.0123
3324.0,0.0123
3323.0,0.0124
3322.0,0.0124
3321.0,0.0124
3320.0,0.0123
3319.0,0.0123
3318.0,0.0124
3317.0,0.0124
3316.0,0.0124
3315.0,0.0124
3314.0,0.0124
3313.0,0.0123
3312.0,0.0122
3311.0,0.0121
3310.0,0.0119
3309.0,0.0119
3308.0,0.0119
3307.0,0.012
3306.0,0.012
3305.0,0.012
3304.0,0.0121
3303.0,0.0121
3302.0,0.0121
3301.0,0.012
3300.0,0.012
3299.0,0.0119
3298.0,0.0119
3297.0,0.012
3296.0,0.012
3295.0,0.012
3294.0,0.012
3293.0,0.012
3292.0,0.0119
3291.0,0.0117
3290.0,0.0116
3289.0,0.0115
3288.0,0.0115
3287.0,0.0116
3286.0,0.0117
3285.0,0.0118
3284.0,0.0117
3283.0,0.0116
3282.0,0.0115
3281.0,0.0115
3280.0,0.0116
3279.0,0.0115
3278.0,0.0115
3277.0,0.0115
3276.0,0.0114
3275.0,0.0114
3274.0,0.0114
3273.0,0.0114
3272.0,0.0115
3271.0,0.0115
3270.0,0.0116
3269.0,0.0117
3268.0,0.0117
3267.0,0.0117
3266.0,0.0116
3265.0,0.0116
3264.0,0.0116
3263.0,0.0116
3262.0,0.0116
3261.0,0.0116
3260.0,0.0115
3259.0,0.0115
3258.0,0.0115
3257.0,0.0115
3256.0,0.0115
3255.0,0.0115
3254.0,0.0114
3253.0,0.0113
3252.0,0.0113
3251.0,0.0113
3250.0,0.0113
3249.0,0.0113
3248.0,0.0112
3247.0,0.0112
3246.0,0.0112
3245.0,0.0113
3244.0,0.0114
3243.0,0.0114
3242.0,0.0114
3241.0,0.0113
3240.0,0.0113
3239.0,0.0114
3238.0,0.0114
3237.0,0.0114
3236.0,0.0114
3235.0,0.0114
3234.0,0.0114
3233.0,0.0113
3232.0,0.0113
3231.0,0.0112
3230.0,0.0111
3229.0,0.011
3228.0,0.011
3227.0,0.011
3226.0,0.0111
3225.0,0.0112
3224.0,0.0112
3223.0,0.0112
3222.0,0.0111
3221.0,0.0111
3220.0,0.0111
3219.0,0.0111
3218.0,0.0112
3217.0,0.0112
3216.0,0.0113
3215.0,0.0114
3214.0,0.0114
3213.0,0.0114
3212.0,0.0113
3211.0,0.0113
3210.0,0.0113
3209.0,0.0113
3208.0,0.0113
3207.0,0.0113
3206.0,0.0113
3205.0,0.0112
3204.0,0.0111
3203.0,0.011
3202.0,0.011
3201.0,0.011
3200.0,0.011
3199.0,0.011
3198.0,0.011
3197.0,0.0109
3196.0,0.0109
3195.0,0.0109
3194.0,0.0109
3193.0,0.0109
3192.0,0.0109
3191.0,0.011
3190.0,0.0111
3189.0,0.0111
3188.0,0.0112
3187.0,0.0111
3186.0,0.011
3185.0,0.0109
3184.0,0.0108
3183.0,0.0107
3182.0,0.0107
3181.0,0.0106
3180.0,0.0106
3179.0,0.0106
3178.0,0.0106
3177.0,0.0106
3176.0,0.0106
3175.0,0.0106
3174.0,0.0105
3173.0,0.0105
3172.0,0.0105
3171.0,0.0105
3170.0,0.0105
3169.0,0.0105
3168.0,0.0105
3167.0,0.0105
3166.0,0.0106
3165.0,0.0106
3164.0,0.0106
3163.0,0.0104
3162.0,0.0103
3161.0,0.0102
3160.0,0.0102
3159.0,0.0103
3158.0,0.0103
3157.0,0.0103
3156.0,0.0104
3155.0,0.0104
3154.0,0.0105
3153.0,0.0106
3152.0,0.0105
3151.0,0.0105
3150.0,0.0104
3149.0,0.0103
3148.0,0.0103
3147.0,0.0102
3146.0,0.0101
3145.0,0.0101
3144.0,0.0101
3143.0,0.0101
3142.0,0.0101
3141.0,0.0101
3140.0,0.0101
3139.0,0.01
3138.0,0.01
3137.0,0.01
3136.0,0.0099
3135.0,0.0099
3134.0,0.0099
3133.0,0.0098
3132.0,0.0097
3131.0,0.0096
3130.0,0.0096
3129.0,0.0095
3128.0,0.0095
3127.0,0.0095
3126.0,0.0095
3125.0,0.0094
3124.0,0.0093
3123.0,0.0093
3122.0,0.0093
3121.0,0.0094
3120.0,0.0093
3119.0,0.0093
3118.0,0.0093
3117.0,0.0093
3116.0,0.0094
3115.0,0.0094
3114.0,0.0095
3113.0,0.0095
3112.0,0.0094
3111.0,0.0094
3110.0,0.0093
3109.0,0.0092
3108.0,0.0091
3107.0,0.009
3106.0,0.0089
3105.0,0.0089
3104.0,0.009
3103.0,0.009
3102.0,0.009
3101.0,0.0091
3100.0,0.0091
3099.0,0.0091
3098.0,0.009
3097.0,0.0089
3096.0,0.0088
3095.0,0.0088
3094.0,0.0087
3093.0,0.0087
3092.0,0.0087
3091.0,0.0087
3090.0,0.0087
3089.0,0.0087
3088.0,0.0087
3087.0,0.0087
3086.0,0.0087
3085.0,0.0086
3084.0,0.0085
3083.0,0.0084
3082.0,0.0084
3081.0,0.0083
3080.0,0.0082
3079.0,0.0082
3078.0,0.0082
3077.0,0.0083
3076.0,0.0084
3075.0,0.0084
3074.0,0.0084
3073.0,0.0084
3072.0,0.0083
3071.0,0.0083
3070.0,0.0082
3069.0,0.0082
3068.0,0.0081
3067.0,0.0081
3066.0,0.008
3065.0,0.0079
3064.0,0.0079
3063.0,0.008
3062.0,0.008
3061.0,0.008
3060.0,0.008
3059.0,0.008
3058.0,0.008
3057.0,0.0079
3056.0,0.0078
3055.0,0.0077
3054.0,0.0077
3053.0,0.0076
3052.0,0.0076
3051.0,0.0076
3050.0,0.0076
3049.0,0.0075
3048.0,0.0074
3047.0,0.0074
3046.0,0.0073
3045.0,0.0074
3044.0,0.0074
3043.0,0.0074
3042.0,0.0073
3041.0,0.0073
3040.0,0.0072
3039.0,0.0072
3038.0,0.0072
3037.0,0.0071
3036.0,0.0071
3035.0,0.007
3034.0,0.007
3033.0,0.007
3032.0,0.007
3031.0,0.007
3030.0,0.007
3029.0,0.007
3028.0,0.0069
3027.0,0.0068
3026.0,0.0067
3025.0,0.0067
3024.0,0.0067
3023.0,0.0067
3022.0,0.0067
3021.0,0.0067
3020.0,0.0067
3019.0,0.0067
3018.0,0.0067
3017.0,0.0066
3016.0,0.0065
3015.0,0.0065
3014.0,0.0064
3013.0,0.0063
3012.0,0.0063
3011.0,0.0063
3010.0,0.0064
3009.0,0.0064
3008.0,0.0065
3007.0,0.0065
3006.0,0.0065
3005.0,0.0064
3004.0,0.0064
3003.0,0.0064
3002.0,0.0064
3001.0,0.0065
3000.0,0.0066
2999.0,0.0067
2998.0,0.0069
2997.0,0.0071
2996.0,0.0073
2995.0,0.0074
2994.0,0.0075
2993.0,0.0075
2992.0,0.0077
2991.0,0.0079
2990.0,0.0082
2989.0,0.0086
2988.0,0.009
2987.0,0.0095
2986.0,0.0101
2985.0,0.0107
2984.0,0.0115
2983.0,0.0123
2982.0,0.0132
2981.0,0.0143
2980.0,0.0155
2979.0,0.017
2978.0,0.0187
2977.0,0.0207
2976.0,0.023
2975.0,0.0256
2974.0,0.0287
2973.0,0.0323
2972.0,0.0363
2971.0,0.0409
2970.0,0.0459
2969.0,0.0514
2968.0,0.0573
2967.0,0.0636
2966.0,0.0701
2965.0,0.0767
2964.0,0.0829
2963.0,0.0885
2962.0,0.093
2961.0,0.0963
2960.0,0.0985
2959.0,0.1
2958.0,0.1012
2957.0,0.1027
2956.0,0.105
2955.0,0.1082
2954.0,0.112
2953.0,0.1159
2952.0,0.1192
2951.0,0.1212
2950.0,0.1211
2949.0,0.1187
2948.0,0.1139
2947.0,0.1073
2946.0,0.0994
2945.0,0.0912
2944.0,0.0834
2943.0,0.0766
2942.0,0.0711
2941.0,0.067
2940.0,0.0643
2939.0,0.0628
2938.0,0.0626
2937.0,0.0634
2936.0,0.0652
2935.0,0.0679
2934.0,0.0714
2933.0,0.0757
2932.0,0.0806
2931.0,0.0861
2930.0,0.0919
2929.0,0.0978
2928.0,0.1036
2927.0,0.1093
2926.0,0.1148
2925.0,0.1201
2924.0,0.1252
2923.0,0.1303
2922.0,0.1352
2921.0,0.1397
2920.0,0.1436
2919.0,0.1461
2918.0,0.1469
2917.0,0.1457
2916.0,0.1429
2915.0,0.1389
2914.0,0.1343
2913.0,0.1298
2912.0,0.1256
2911.0,0.122
2910.0,0.119
2909.0,0.1163
2908.0,0.1138
2907.0,0.1113
2906.0,0.1085
2905.0,0.1055
2904.0,0.1023
2903.0,0.0989
2902.0,0.0955
2901.0,0.0921
2900.0,0.0889
2899.0,0.0858
2898.0,0.0829
2897.0,0.0802
2896.0,0.0778
2895.0,0.0758
2894.0,0.0742
2893.0,0.073
2892.0,0.0721
2891.0,0.0715
2890.0,0.0711
2889.0,0.071
2888.0,0.071
2887.0,0.0712
2886.0,0.0715
2885.0,0.0721
2884.0,0.073
2883.0,0.074
2882.0,0.0752
2881.0,0.0765
2880.0,0.0777
2879.0,0.0786
2878.0,0.079
2877.0,0.0789
2876.0,0.0785
2875.0,0.0781
2874.0,0.0779
2873.0,0.0781
2872.0,0.0788
2871.0,0.0799
2870.0,0.0811
2869.0,0.0823
2868.0,0.0829
2867.0,0.0825
2866.0,0.0808
2865.0,0.0776
2864.0,0.0732
2863.0,0.0681
2862.0,0.0628
2861.0,0.0579
2860.0,0.0537
2859.0,0.0504
2858.0,0.0478
2857.0,0.0459
2856.0,0.0445
2855.0,0.0437
2854.0,0.0433
2853.0,0.0435
2852.0,0.044
2851.0,0.045
2850.0,0.0464
2849.0,0.0483
2848.0,0.0508
2847.0,0.0538
2846.0,0.0575
2845.0,0.0616
2844.0,0.0661
2843.0,0.0707
2842.0,0.0751
2841.0,0.0789
2840.0,0.0819
2839.0,0.0836
2838.0,0.0838
2837.0,0.0822
2836.0,0.0791
2835.0,0.0746
2834.0,0.0695
2833.0,0.0641
2832.0,0.0591
2831.0,0.0546
2830.0,0.0507
2829.0,0.0474
2828.0,0.0447
2827.0,0.0425
2826.0,0.0407
2825.0,0.0392
2824.0,0.038
2823.0,0.0368
2822.0,0.0357
2821.0,0.0348
2820.0,0.0339
2819.0,0.0332
2818.0,0.0325
2817.0,0.0319
2816.0,0.0314
2815.0,0.0309
2814.0,0.0305
2813.0,0.0302
2812.0,0.0299
2811.0,0.0296
2810.0,0.0292
2809.0,0.0288
2808.0,0.0284
2807.0,0.028
2806.0,0.0276
2805.0,0.0272
2804.0,0.0268
2803.0,0.0264
2802.0,0.0261
2801.0,0.0258
2800.0,0.0255
2799.0,0.0253
2798.0,0.025
2797.0,0.0248
2796.0,0.0246
2795.0,0.0244
2794.0,0.0242
2793.0,0.0241
2792.0,0.0239
2791.0,0.0237
2790.0,0.0235
2789.0,0.0232
2788.0,0.0229
2787.0,0.0226
2786.0,0.0223
2785.0,0.022
2784.0,0.0218
2783.0,0.0217
2782.0,0.0215
2781.0,0.0214
2780.0,0.0213
2779.0,0.0211
2778.0,0.021
2777.0,0.0208
2776.0,0.0207
2775.0,0.0206
2774.0,0.0205
2773.0,0.0204
2772.0,0.0203
2771.0,0.0202
2770.0,0.0202
2769.0,0.0201
2768.0,0.0201
2767.0,0.02
2766.0,0.02
2765.0,0.02
2764.0,0.0199
2763.0,0.0197
2762.0,0.0196
2761.0,0.0195
2760.0,0.0194
2759.0,0.0193
2758.0,0.0193
2757.0,0.0192
2756.0,0.0191
2755.0,0.019
2754.0,0.0189
2753.0,0.0189
2752.0,0.0189
2751.0,0.0189
2750.0,0.0189
2749.0,0.0189
2748.0,0.0189
2747.0,0.0188
2746.0,0.0188
2745.0,0.0187
2744.0,0.0187
2743.0,0.0187
2742.0,0.0187
2741.0,0.0188
2740.0,0.0189
2739.0,0.019
2738.0,0.019
2737.0,0.0191
2736.0,0.0192
2735.0,0.0193
2734.0,0.0194
2733.0,0.0195
2732.0,0.0196
2731.0,0.0197
2730.0,0.0197
2729.0,0.0198
2728.0,0.0199
2727.0,0.0202
2726.0,0.0205
2725.0,0.0207
2724.0,0.0207
2723.0,0.0207
2722.0,0.0207
2721.0,0.0205
2720.0,0.0203
2719.0,0.0201
2718.0,0.0199
2717.0,0.0198
2716.0,0.0197
2715.0,0.0195
2714.0,0.0193
2713.0,0.0191
2712.0,0.0189
2711.0,0.0188
2710.0,0.0186
2709.0,0.0185
2708.0,0.0185
2707.0,0.0184
2706.0,0.0183
2705.0,0.0182
2704.0,0.0181
2703.0,0.018
2702.0,0.0179
2701.0,0.0178
2700.0,0.0177
2699.0,0.0177
2698.0,0.0177
2697.0,0.0177
2696.0,0.0177
2695.0,0.0177
2694.0,0.0177
2693.0,0.0176
2692.0,0.0176
2691.0,0.0176
2690.0,0.0176
2689.0,0.0176
2688.0,0.0176
2687.0,0.0176
2686.0,0.0175
2685.0,0.0176
2684.0,0.0176
2683.0,0.0176
2682.0,0.0176
2681.0,0.0175
2680.0,0.0175
2679.0,0.0175
2678.0,0.0175
2677.0,0.0175
2676.0,0.0175
2675.0,0.0175
2674.0,0.0175
2673.0,0.0175
2672.0,0.0175
2671.0,0.0175
2670.0,0.0176
2669.0,0.0175
2668.0,0.0175
2667.0,0.0174
2666.0,0.0173
2665.0,0.0173
2664.0,0.0172
2663.0,0.0171
2662.0,0.0171
2661.0,0.017
2660.0,0.017
2659.0,0.0171
2658.0,0.0171
2657.0,0.0172
2656.0,0.0172
2655.0,0.0171
2654.0,0.0171
2653.0,0.017
2652.0,0.017
2651.0,0.017
2650.0,0.017
2649.0,0.0169
2648.0,0.0168
2647.0,0.0167
2646.0,0.0167
2645.0,0.0167
2644.0,0.0166
2643.0,0.0166
2642.0,0.0166
2641.0,0.0166
2640.0,0.0166
2639.0,0.0165
2638.0,0.0165
2637.0,0.0164
2636.0,0.0164
2635.0,0.0163
2634.0,0.0163
2633.0,0.0163
2632.0,0.0164
2631.0,0.0165
2630.0,0.0166
2629.0,0.0166
2628.0,0.0166
2627.0,0.0165
2626.0,0.0165
2625.0,0.0165
2624.0,0.0165
2623.0,0.0165
2622.0,0.0166
2621.0,0.0166
2620.0,0.0166
2619.0,0.0166
2618.0,0.0166
2617.0,0.0166
2616.0,0.0166
2615.0,0.0166
2614.0,0.0165
2613.0,0.0165
2612.0,0.0164
2611.0,0.0163
2610.0,0.0163
2609.0,0.0162
2608.0,0.0162
2607.0,0.0162
2606.0,0.0162
2605.0,0.0161
2604.0,0.0161
2603.0,0.0161
2602.0,0.0161
2601.0,0.0161
2600.0,0.016
2599.0,0.016
2598.0,0.016
2597.0,0.016
2596.0,0.016
2595.0,0.016
2594.0,0.016
2593.0,0.016
2592.0,0.0161
2591.0,0.0161
2590.0,0.0162
2589.0,0.0163
2588.0,0.0164
2587.0,0.0164
2586.0,0.0165
2585.0,0.0165
2584.0,0.0166
2583.0,0.0166
2582.0,0.0167
2581.0,0.0167
2580.0,0.0167
2579.0,0.0166
2578.0,0.0164
2577.0,0.0163
2576.0,0.0162
2575.0,0.0162
2574.0,0.0162
2573.0,0.0162
2572.0,0.0161
2571.0,0.016
2570.0,0.016
2569.0,0.0159
2568.0,0.0159
2567.0,0.0158
2566.0,0.0158
2565.0,0.0158
2564.0,0.0158
2563.0,0.0158
2562.0,0.0158
2561.0,0.0158
2560.0,0.0157
2559.0,0.0157
2558.0,0.0157
2557.0,0.0157
2556.0,0.0156
2555.0,0.0156
2554.0,0.0156
2553.0,0.0156
2552.0,0.0156
2551.0,0.0155
2550.0,0.0155
2549.0,0.0154
2548.0,0.0154
2547.0,0.0154
2546.0,0.0154
2545.0,0.0154
2544.0,0.0154
2543.0,0.0154
2542.0,0.0154
2541.0,0.0153
2540.0,0.0153
2539.0,0.0152
2538.0,0.0152
2537.0,0.0152
2536.0,0.0152
2535.0,0.0152
2534.0,0.0152
2533.0,0.0152
2532.0,0.0152
2531.0,0.0152
2530.0,0.0151
2529.0,0.015
2528.0,0.015
2527.0,0.015
2526.0,0.015
2525.0,0.015
2524.0,0.015
2523.0,0.015
2522.0,0.015
2521.0,0.015
2520.0,0.0149
2519.0,0.0149
2518.0,0.0149
2517.0,0.0149
2516.0,0.0148
2515.0,0.0148
2514.0,0.0148
2513.0,0.0148
2512.0,0.0148
2511.0,0.0147
2510.0,0.0147
2509.0,0.0146
2508.0,0.0146
2507.0,0.0147
2506.0,0.0147
2505.0,0.0148
2504.0,0.0149
2503.0,0.0149
2502.0,0.0149
2501.0,0.015
2500.0,0.0149
2499.0,0.0149
2498.0,0.0149
2497.0,0.0148
2496.0,0.0148
2495.0,0.0148
2494.0,0.0148
2493.0,0.0149
2492.0,0.0149
2491.0,0.0149
2490.0,0.0148
2489.0,0.0148
2488.0,0.0148
2487.0,0.0148
2486.0,0.0148
2485.0,0.0148
2484.0,0.0148
2483.0,0.0148
2482.0,0.0148
2481.0,0.0148
2480.0,0.0148
2479.0,0.0148
2478.0,0.0147
2477.0,0.0147
2476.0,0.0147
2475.0,0.0147
2474.0,0.0147
2473.0,0.0147
2472.0,0.0146
2471.0,0.0146
2470.0,0.0146
2469.0,0.0146
2468.0,0.0146
2467.0,0.0145
2466.0,0.0144
2465.0,0.0144
2464.0,0.0144
2463.0,0.0145
2462.0,0.0145
2461.0,0.0145
2460.0,0.0145
2459.0,0.0145
2458.0,0.0145
2457.0,0.0145
2456.0,0.0145
2455.0,0.0145
2454.0,0.0145
2453.0,0.0145
2452.0,0.0146
2451.0,0.0146
2450.0,0.0146
2449.0,0.0146
2448.0,0.0146
2447.0,0.0147
2446.0,0.0147
2445.0,0.0147
2444.0,0.0147
2443.0,0.0147
2442.0,0.0147
2441.0,0.0148
2440.0,0.0148
2439.0,0.0147
2438.0,0.0147
2437.0,0.0146
2436.0,0.0146
2435.0,0.0146
2434.0,0.0147
2433.0,0.0147
2432.0,0.0147
2431.0,0.0147
2430.0,0.0147
2429.0,0.0146
2428.0,0.0147
2427.0,0.0147
2426.0,0.0148
2425.0,0.0149
2424.0,0.0149
2423.0,0.0149
2422.0,0.0148
2421.0,0.0147
2420.0,0.0146
2419.0,0.0146
2418.0,0.0146
2417.0,0.0147
2416.0,0.0147
2415.0,0.0147
2414.0,0.0147
2413.0,0.0147
2412.0,0.0146
2411.0,0.0146
2410.0,0.0146
2409.0,0.0146
2408.0,0.0147
2407.0,0.0147
2406.0,0.0147
2405.0,0.0147
2404.0,0.0147
2403.0,0.0147
2402.0,0.0147
2401.0,0.0147
2400.0,0.0147
2399.0,0.0147
2398.0,0.0148
2397.0,0.0148
2396.0,0.0148
2395.0,0.0148
2394.0,0.0147
2393.0,0.0146
2392.0,0.0146
2391.0,0.0145
2390.0,0.0144
2389.0,0.0144
2388.0,0.0144
2387.0,0.0144
2386.0,0.0144
2385.0,0.0143
2384.0,0.0142
2383.0,0.014
2382.0,0.0138
2381.0,0.0136
2380.0,0.0135
2379.0,0.0132
2378.0,0.0131
2377.0,0.0131
2376.0,0.0132
2375.0,0.0133
2374.0,0.0134
2373.0,0.0134
2372.0,0.0133
2371.0,0.013
2370.0,0.0125
2369.0,0.0121
2368.0,0.0121
2367.0,0.0124
2366.0,0.0128
2365.0,0.0132
2364.0,0.0132
2363.0,0.013
2362.0,0.0128
2361.0,0.0127
2360.0,0.0125
2359.0,0.0121
2358.0,0.0115
2357.0,0.011
2356.0,0.011
2355.0,0.0116
2354.0,0.0125
2353.0,0.0132
2352.0,0.0131
2351.0,0.0127
2350.0,0.0122
2349.0,0.0121
2348.0,0.0123
2347.0,0.0125
2346.0,0.0127
2345.0,0.013
2344.0,0.0131
2343.0,0.0129
2342.0,0.0124
2341.0,0.0119
2340.0,0.0116
2339.0,0.0114
2338.0,0.0115
2337.0,0.0116
2336.0,0.0116
2335.0,0.0115
2334.0,0.011
2333.0,0.0105
2332.0,0.0103
2331.0,0.0105
2330.0,0.011
2329.0,0.0116
2328.0,0.0122
2327.0,0.0125
2326.0,0.0127
2325.0,0.0128
2324.0,0.0128
2323.0,0.0129
2322.0,0.0131
2321.0,0.0134
2320.0,0.0138
2319.0,0.0142
2318.0,0.0144
2317.0,0.0145
2316.0,0.0145
2315.0,0.0143
2314.0,0.0141
2313.0,0.014
2312.0,0.0139
2311.0,0.0138
2310.0,0.0137
2309.0,0.0136
2308.0,0.0136
2307.0,0.0137
2306.0,0.0137
2305.0,0.0139
2304.0,0.0141
2303.0,0.0143
2302.0,0.0145
2301.0,0.0146
2300.0,0.0146
2299.0,0.0146
2298.0,0.0145
2297.0,0.0146
2296.0,0.0146
2295.0,0.0148
2294.0,0.0149
2293.0,0.0149
2292.0,0.0148
2291.0,0.0148
2290.0,0.0147
2289.0,0.0147
2288.0,0.0147
2287.0,0.0146
2286.0,0.0146
2285.0,0.0146
2284.0,0.0145
2283.0,0.0146
2282.0,0.0146
2281.0,0.0147
2280.0,0.0147
2279.0,0.0147
2278.0,0.0146
2277.0,0.0146
2276.0,0.0146
2275.0,0.0147
2274.0,0.0147
2273.0,0.0147
2272.0,0.0147
2271.0,0.0147
2270.0,0.0147
2269.0,0.0148
2268.0,0.0147
2267.0,0.0147
2266.0,0.0146
2265.0,0.0146
2264.0,0.0146
2263.0,0.0147
2262.0,0.0148
2261.0,0.0148
2260.0,0.0148
2259.0,0.0148
2258.0,0.0149
2257.0,0.0149
2256.0,0.0149
2255.0,0.0149
2254.0,0.0148
2253.0,0.0148
2252.0,0.0148
2251.0,0.0148
2250.0,0.0148
2249.0,0.0148
2248.0,0.0147
2247.0,0.0147
2246.0,0.0147
2245.0,0.0147
2244.0,0.0147
2243.0,0.0148
2242.0,0.0148
2241.0,0.0149
2240.0,0.015
2239.0,0.015
2238.0,0.015
2237.0,0.0149
2236.0,0.0149
2235.0,0.0149
2234.0,0.0149
2233.0,0.0149
2232.0,0.0149
2231.0,0.0149
2230.0,0.0149
2229.0,0.0149
2228.0,0.0149
2227.0,0.0149
2226.0,0.0148
2225.0,0.0148
2224.0,0.0147
2223.0,0.0147
2222.0,0.0147
2221.0,0.0147
2220.0,0.0147
2219.0,0.0147
2218.0,0.0148
2217.0,0.0148
2216.0,0.0148
2215.0,0.0147
2214.0,0.0147
2213.0,0.0148
2212.0,0.0148
2211.0,0.0149
2210.0,0.0149
2209.0,0.0149
2208.0,0.015
2207.0,0.015
2206.0,0.015
2205.0,0.015
2204.0,0.0151
2203.0,0.0151
2202.0,0.0151
2201.0,0.0151
2200.0,0.0151
2199.0,0.015
2198.0,0.015
2197.0,0.0149
2196.0,0.0149
2195.0,0.0149
2194.0,0.0149
2193.0,0.015
2192.0,0.015
2191.0,0.015
2190.0,0.0151
2189.0,0.0151
2188.0,0.0151
2187.0,0.0151
2186.0,0.0151
2185.0,0.0151
2184.0,0.0151
2183.0,0.0151
2182.0,0.0151
2181.0,0.0151
2180.0,0.0151
2179.0,0.0151
2178.0,0.0151
2177.0,0.0151
2176.0,0.0151
2175.0,0.0151
2174.0,0.0152
2173.0,0.0152
2172.0,0.0152
2171.0,0.0152
2170.0,0.0152
2169.0,0.0152
2168.0,0.0152
2167.0,0.0152
2166.0,0.0153
2165.0,0.0153
2164.0,0.0153
2163.0,0.0152
2162.0,0.0152
2161.0,0.0152
2160.0,0.0151
2159.0,0.0151
2158.0,0.015
2157.0,0.015
2156.0,0.015
2155.0,0.015
2154.0,0.015
2153.0,0.015
2152.0,0.015
2151.0,0.0151
2150.0,0.0151
2149.0,0.015
2148.0,0.015
2147.0,0.015
2146.0,0.015
2145.0,0.015
2144.0,0.015
2143.0,0.0151
2142.0,0.0151
2141.0,0.0151
2140.0,0.0151
2139.0,0.0152
2138.0,0.0152
2137.0,0.0153
2136.0,0.0153
2135.0,0.0153
2134.0,0.0153
2133.0,0.0153
2132.0,0.0153
2131.0,0.0153
2130.0,0.0153
2129.0,0.0153
2128.0,0.0153
2127.0,0.0152
2126.0,0.0152
2125.0,0.0152
2124.0,0.0152
2123.0,0.0152
2122.0,0.0152
2121.0,0.0152
2120.0,0.0151
2119.0,0.0151
2118.0,0.015
2117.0,0.015
2116.0,0.015
2115.0,0.015
2114.0,0.015
2113.0,0.0151
2112.0,0.0152
2111.0,0.0152
2110.0,0.0152
2109.0,0.0151
2108.0,0.0151
2107.0,0.015
2106.0,0.015
2105.0,0.015
2104.0,0.015
2103.0,0.0151
2102.0,0.0151
2101.0,0.0151
2100.0,0.0151
2099.0,0.0152
2098.0,0.0151
2097.0,0.0151
2096.0,0.0151
2095.0,0.0151
2094.0,0.0151
2093.0,0.0151
2092.0,0.0151
2091.0,0.0151
2090.0,0.0151
2089.0,0.0152
2088.0,0.0153
2087.0,0.0153
2086.0,0.0153
2085.0,0.0153
2084.0,0.0152
2083.0,0.0152
2082.0,0.0152
2081.0,0.0152
2080.0,0.0151
2079.0,0.0151
2078.0,0.0151
2077.0,0.0152
2076.0,0.0152
2075.0,0.0152
2074.0,0.0152
2073.0,0.0151
2072.0,0.0151
2071.0,0.015
2070.0,0.015
2069.0,0.0151
2068.0,0.0152
2067.0,0.0152
2066.0,0.0152
2065.0,0.0151
2064.0,0.0151
2063.0,0.0151
2062.0,0.0151
2061.0,0.0152
2060.0,0.0152
2059.0,0.0152
2058.0,0.0153
2057.0,0.0152
2056.0,0.0152
2055.0,0.0151
2054.0,0.0151
2053.0,0.0152
2052.0,0.0152
2051.0,0.0153
2050.0,0.0153
2049.0,0.0153
2048.0,0.0153
2047.0,0.0153
2046.0,0.0152
2045.0,0.0152
2044.0,0.0152
2043.0,0.0152
2042.0,0.0152
2041.0,0.0152
2040.0,0.0152
2039.0,0.0152
2038.0,0.0153
2037.0,0.0153
2036.0,0.0154
2035.0,0.0154
2034.0,0.0154
2033.0,0.0154
2032.0,0.0154
2031.0,0.0154
2030.0,0.0153
2029.0,0.0153
2028.0,0.0153
2027.0,0.0154
2026.0,0.0154
2025.0,0.0154
2024.0,0.0154
2023.0,0.0154
2022.0,0.0154
2021.0,0.0154
2020.0,0.0155
2019.0,0.0155
2018.0,0.0155
2017.0,0.0154
2016.0,0.0153
2015.0,0.0153
2014.0,0.0152
2013.0,0.0153
2012.0,0.0153
2011.0,0.0154
2010.0,0.0154
2009.0,0.0154
2008.0,0.0154
2007.0,0.0154
2006.0,0.0154
2005.0,0.0154
2004.0,0.0155
2003.0,0.0155
2002.0,0.0155
2001.0,0.0154
2000.0,0.0155
1999.0,0.0155
1998.0,0.0156
1997.0,0.0156
1996.0,0.0156
1995.0,0.0156
1994.0,0.0156
1993.0,0.0156
1992.0,0.0156
1991.0,0.0157
1990.0,0.0157
1989.0,0.0156
1988.0,0.0156
1987.0,0.0155
1986.0,0.0155
1985.0,0.0155
1984.0,0.0155
1983.0,0.0155
1982.0,0.0154
1981.0,0.0154
1980.0,0.0154
1979.0,0.0155
1978.0,0.0155
1977.0,0.0156
1976.0,0.0156
1975.0,0.0156
1974.0,0.0156
1973.0,0.0156
1972.0,0.0156
1971.0,0.0157
1970.0,0.0157
1969.0,0.0157
1968.0,0.0157
1967.0,0.0157
1966.0,0.0156
1965.0,0.0157
1964.0,0.0157
1963.0,0.0158
1962.0,0.0158
1961.0,0.0158
1960.0,0.0158
1959.0,0.0158
1958.0,0.0158
1957.0,0.0158
1956.0,0.0158
1955.0,0.0158
1954.0,0.0158
1953.0,0.0158
1952.0,0.0158
1951.0,0.0158
1950.0,0.0158
1949.0,0.0158
1948.0,0.0158
1947.0,0.0158
1946.0,0.0158
1945.0,0.0158
1944.0,0.0158
1943.0,0.0158
1942.0,0.0157
1941.0,0.0157
1940.0,0.0158
1939.0,0.0158
1938.0,0.0159
1937.0,0.0159
1936.0,0.016
1935.0,0.016
1934.0,0.0161
1933.0,0.0161
1932.0,0.0161
1931.0,0.016
1930.0,0.0159
1929.0,0.0159
1928.0,0.0159
1927.0,0.0159
1926.0,0.0159
1925.0,0.0159
1924.0,0.0159
1923.0,0.0159
1922.0,0.0159
1921.0,0.016
1920.0,0.016
1919.0,0.0161
1918.0,0.0161
1917.0,0.0161
1916.0,0.0162
1915.0,0.0162
1914.0,0.0162
1913.0,0.0161
1912.0,0.0161
1911.0,0.0161
1910.0,0.0161
1909.0,0.0161
1908.0,0.0162
1907.0,0.0162
1906.0,0.0162
1905.0,0.0162
1904.0,0.0161
1903.0,0.0162
1902.0,0.0162
1901.0,0.0162
1900.0,0.0162
1899.0,0.0162
1898.0,0.0162
1897.0,0.0162
1896.0,0.0162
1895.0,0.0162
1894.0,0.0163
1893.0,0.0163
1892.0,0.0163
1891.0,0.0163
1890.0,0.0162
1889.0,0.0162
1888.0,0.0162
1887.0,0.0163
1886.0,0.0164
1885.0,0.0165
1884.0,0.0165
1883.0,0.0165
1882.0,0.0164
1881.0,0.0164
1880.0,0.0164
1879.0,0.0164
1878.0,0.0164
1877.0,0.0164
1876.0,0.0164
1875.0,0.0164
1874.0,0.0163
1873.0,0.0163
1872.0,0.0163
1871.0,0.0163
1870.0,0.0164
1869.0,0.0164
1868.0,0.0163
1867.0,0.0163
1866.0,0.0163
1865.0,0.0164
1864.0,0.0165
1863.0,0.0165
1862.0,0.0165
1861.0,0.0165
1860.0,0.0165
1859.0,0.0165
1858.0,0.0165
1857.0,0.0165
1856.0,0.0166
1855.0,0.0166
1854.0,0.0166
1853.0,0.0166
1852.0,0.0166
1851.0,0.0166
1850.0,0.0166
1849.0,0.0166
1848.0,0.0166
1847.0,0.0166
1846.0,0.0166
1845.0,0.0166
1844.0,0.0165
1843.0,0.0165
1842.0,0.0165
1841.0,0.0165
1840.0,0.0166
1839.0,0.0165
1838.0,0.0166
1837.0,0.0166
1836.0,0.0166
1835.0,0.0166
1834.0,0.0166
1833.0,0.0166
1832.0,0.0165
1831.0,0.0165
1830.0,0.0164
1829.0,0.0164
1828.0,0.0164
1827.0,0.0165
1826.0,0.0165
1825.0,0.0165
1824.0,0.0166
1823.0,0.0167
1822.0,0.0167
1821.0,0.0167
1820.0,0.0167
1819.0,0.0167
1818.0,0.0167
1817.0,0.0167
1816.0,0.0167
1815.0,0.0167
1814.0,0.0167
1813.0,0.0167
1812.0,0.0167
1811.0,0.0167
1810.0,0.0167
1809.0,0.0167
1808.0,0.0167
1807.0,0.0167
1806.0,0.0167
1805.0,0.0167
1804.0,0.0167
1803.0,0.0168
1802.0,0.0167
1801.0,0.0167
1800.0,0.0167
1799.0,0.0166
1798.0,0.0166
1797.0,0.0167
1796.0,0.0167
1795.0,0.0168
1794.0,0.0168
1793.0,0.0168
1792.0,0.0169
1791.0,0.0169
1790.0,0.017
1789.0,0.017
1788.0,0.017
1787.0,0.017
1786.0,0.017
1785.0,0.017
1784.0,0.017
1783.0,0.017
1782.0,0.0169
1781.0,0.0169
1780.0,0.0169
1779.0,0.017
1778.0,0.017
1777.0,0.017
1776.0,0.017
1775.0,0.0169
1774.0,0.0169
1773.0,0.017
1772.0,0.0171
1771.0,0.0172
1770.0,0.0172
1769.0,0.0172
1768.0,0.0172
1767.0,0.0172
1766.0,0.0172
1765.0,0.0172
1764.0,0.0173
1763.0,0.0173
1762.0,0.0173
1761.0,0.0173
1760.0,0.0173
1759.0,0.0174
1758.0,0.0175
1757.0,0.0175
1756.0,0.0175
1755.0,0.0175
1754.0,0.0175
1753.0,0.0175
1752.0,0.0176
1751.0,0.0176
1750.0,0.0177
1749.0,0.0177
1748.0,0.0178
1747.0,0.0178
1746.0,0.0178
1745.0,0.0178
1744.0,0.0178
1743.0,0.0178
1742.0,0.0178
1741.0,0.0177
1740.0,0.0177
1739.0,0.0177
1738.0,0.0177
1737.0,0.0178
1736.0,0.0178
1735.0,0.0179
1734.0,0.0179
1733.0,0.0178
1732.0,0.0179
1731.0,0.018
1730.0,0.018
1729.0,0.018
1728.0,0.0179
1727.0,0.0179
1726.0,0.0179
1725.0,0.0179
1724.0,0.0179
1723.0,0.0179
1722.0,0.0179
1721.0,0.018
1720.0,0.018
1719.0,0.018
1718.0,0.0179
1717.0,0.0179
1716.0,0.0179
1715.0,0.0179
1714.0,0.018
1713.0,0.0181
1712.0,0.0182
1711.0,0.0183
1710.0,0.0183
1709.0,0.0182
1708.0,0.0182
1707.0,0.0181
1706.0,0.0182
1705.0,0.0182
1704.0,0.0183
1703.0,0.0184
1702.0,0.0184
1701.0,0.0184
1700.0,0.0184
1699.0,0.0183
1698.0,0.0184
1697.0,0.0186
1696.0,0.0188
1695.0,0.0188
1694.0,0.0187
1693.0,0.0188
1692.0,0.0188
1691.0,0.0189
1690.0,0.019
1689.0,0.0192
1688.0,0.0192
1687.0,0.0192
1686.0,0.019
1685.0,0.0188
1684.0,0.0189
1683.0,0.019
1682.0,0.0191
1681.0,0.0193
1680.0,0.0195
1679.0,0.0195
1678.0,0.0195
1677.0,0.0195
1676.0,0.0195
1675.0,0.0195
1674.0,0.0195
1673.0,0.0195
1672.0,0.0196
1671.0,0.0197
1670.0,0.0198
1669.0,0.0198
1668.0,0.0198
1667.0,0.0198
1666.0,0.0198
1665.0,0.0198
1664.0,0.0198
1663.0,0.0199
1662.0,0.02
1661.0,0.0201
1660.0,0.0202
1659.0,0.0202
1658.0,0.0201
1657.0,0.02
1656.0,0.0199
1655.0,0.0198
1654.0,0.02
1653.0,0.0202
1652.0,0.0201
1651.0,0.02
1650.0,0.02
1649.0,0.02
1648.0,0.02
1647.0,0.0201
1646.0,0.0202
1645.0,0.0202
1644.0,0.0203
1643.0,0.0204
1642.0,0.0204
1641.0,0.0203
1640.0,0.0202
1639.0,0.02
1638.0,0.0199
1637.0,0.0199
1636.0,0.02
1635.0,0.0201
1634.0,0.02
1633.0,0.02
1632.0,0.02
1631.0,0.0199
1630.0,0.0199
1629.0,0.0198
1628.0,0.0198
1627.0,0.0198
1626.0,0.0199
1625.0,0.0199
1624.0,0.0199
1623.0,0.0199
1622.0,0.0199
1621.0,0.0198
1620.0,0.0198
1619.0,0.0198
1618.0,0.0198
1617.0,0.0198
1616.0,0.0197
1615.0,0.0197
1614.0,0.0197
1613.0,0.0197
1612.0,0.0197
1611.0,0.0197
1610.0,0.0196
1609.0,0.0196
1608.0,0.0195
1607.0,0.0195
1606.0,0.0195
1605.0,0.0194
1604.0,0.0195
1603.0,0.0195
1602.0,0.0195
1601.0,0.0195
1600.0,0.0194
1599.0,0.0194
1598.0,0.0194
1597.0,0.0193
1596.0,0.0193
1595.0,0.0193
1594.0,0.0193
1593.0,0.0193
1592.0,0.0193
1591.0,0.0193
1590.0,0.0193
1589.0,0.0193
1588.0,0.0193
1587.0,0.0193
1586.0,0.0192
1585.0,0.0192
1584.0,0.0192
1583.0,0.0193
1582.0,0.0193
1581.0,0.0194
1580.0,0.0194
1579.0,0.0194
1578.0,0.0194
1577.0,0.0194
1576.0,0.0193
1575.0,0.0192
1574.0,0.0192
1573.0,0.0193
1572.0,0.0193
1571.0,0.0193
1570.0,0.0193
1569.0,0.0193
1568.0,0.0192
1567.0,0.0192
1566.0,0.0192
1565.0,0.0192
1564.0,0.0192
1563.0,0.0193
1562.0,0.0194
1561.0,0.0193
1560.0,0.0195
1559.0,0.0199
1558.0,0.0196
1557.0,0.0194
1556.0,0.0194
1555.0,0.0194
1554.0,0.0193
1553.0,0.0192
1552.0,0.0191
1551.0,0.0191
1550.0,0.0191
1549.0,0.0192
1548.0,0.0191
1547.0,0.019
1546.0,0.0189
1545.0,0.0189
1544.0,0.019
1543.0,0.019
1542.0,0.0188
1541.0,0.0189
1540.0,0.0191
1539.0,0.019
1538.0,0.0189
1537.0,0.0189
1536.0,0.0189
1535.0,0.0188
1534.0,0.0187
1533.0,0.0187
1532.0,0.0188
1531.0,0.0188
1530.0,0.0187
1529.0,0.0187
1528.0,0.0187
1527.0,0.0187
1526.0,0.0187
1525.0,0.0187
1524.0,0.0187
1523.0,0.0187
1522.0,0.0187
1521.0,0.0186
1520.0,0.0185
1519.0,0.0183
1518.0,0.0182
1517.0,0.0183
1516.0,0.0184
1515.0,0.0185
1514.0,0.0186
1513.0,0.0187
1512.0,0.0187
1511.0,0.0187
1510.0,0.0185
1509.0,0.0185
1508.0,0.0188
1507.0,0.019
1506.0,0.0188
1505.0,0.0186
1504.0,0.0187
1503.0,0.0187
1502.0,0.0187
1501.0,0.0187
1500.0,0.0188
1499.0,0.0188
1498.0,0.0188
1497.0,0.0189
1496.0,0.0191
1495.0,0.019
1494.0,0.019
1493.0,0.0189
1492.0,0.0189
1491.0,0.0189
1490.0,0.019
1489.0,0.0192
1488.0,0.0195
1487.0,0.0197
1486.0,0.0198
1485.0,0.0201
1484.0,0.0203
1483.0,0.0206
1482.0,0.0209
1481.0,0.0213
1480.0,0.0218
1479.0,0.0223
1478.0,0.0228
1477.0,0.0237
1476.0,0.0248
1475.0,0.026
1474.0,0.028
1473.0,0.0315
1472.0,0.0357
1471.0,0.0392
1470.0,0.0423
1469.0,0.0456
1468.0,0.0493
1467.0,0.0535
1466.0,0.059
1465.0,0.0654
1464.0,0.071
1463.0,0.0745
1462.0,0.0764
1461.0,0.0777
1460.0,0.0787
1459.0,0.0796
1458.0,0.0817
1457.0,0.0847
1456.0,0.0862
1455.0,0.0863
1454.0,0.0861
1453.0,0.0856
1452.0,0.0848
1451.0,0.0834
1450.0,0.0812
1449.0,0.0779
1448.0,0.0732
1447.0,0.0681
1446.0,0.0634
1445.0,0.0593
1444.0,0.0555
1443.0,0.0523
1442.0,0.0497
1441.0,0.0478
1440.0,0.0465
1439.0,0.0458
1438.0,0.0458
1437.0,0.0461
1436.0,0.0459
1435.0,0.0447
1434.0,0.0428
1433.0,0.0403
1432.0,0.0377
1431.0,0.0353
1430.0,0.0334
1429.0,0.032
1428.0,0.0309
1427.0,0.0302
1426.0,0.0297
1425.0,0.0291
1424.0,0.0285
1423.0,0.0281
1422.0,0.0279
1421.0,0.0275
1420.0,0.0271
1419.0,0.0268
1418.0,0.0267
1417.0,0.0265
1416.0,0.0262
1415.0,0.026
1414.0,0.0259
1413.0,0.0257
1412.0,0.0255
1411.0,0.0254
1410.0,0.0253
1409.0,0.0251
1408.0,0.0249
1407.0,0.0248
1406.0,0.0248
1405.0,0.0247
1404.0,0.0245
1403.0,0.0244
1402.0,0.0244
1401.0,0.0242
1400.0,0.024
1399.0,0.0239
1398.0,0.0239
1397.0,0.0237
1396.0,0.0236
1395.0,0.0236
1394.0,0.0238
1393.0,0.0238
1392.0,0.0238
1391.0,0.024
1390.0,0.0243
1389.0,0.0247
1388.0,0.0256
1387.0,0.0274
1386.0,0.0299
1385.0,0.0331
1384.0,0.0378
1383.0,0.0445
1382.0,0.0535
1381.0,0.0649
1380.0,0.079
1379.0,0.095
1378.0,0.11
1377.0,0.1208
1376.0,0.1247
1375.0,0.12
1374.0,0.1083
1373.0,0.0946
1372.0,0.0824
1371.0,0.0722
1370.0,0.0636
1369.0,0.0565
1368.0,0.0515
1367.0,0.0482
1366.0,0.0461
1365.0,0.0451
1364.0,0.0449
1363.0,0.0456
1362.0,0.0468
1361.0,0.0481
1360.0,0.0491
1359.0,0.0494
1358.0,0.0488
1357.0,0.0475
1356.0,0.0455
1355.0,0.0433
1354.0,0.0412
1353.0,0.0394
1352.0,0.0378
1351.0,0.0365
1350.0,0.0354
1349.0,0.0344
1348.0,0.0336
1347.0,0.0329
1346.0,0.0323
1345.0,0.0318
1344.0,0.0313
1343.0,0.0309
1342.0,0.0305
1341.0,0.0302
1340.0,0.03
1339.0,0.03
1338.0,0.0299
1337.0,0.0298
1336.0,0.0298
1335.0,0.0298
1334.0,0.0299
1333.0,0.0302
1332.0,0.0304
1331.0,0.0306
1330.0,0.0307
1329.0,0.0306
1328.0,0.0305
1327.0,0.0302
1326.0,0.0299
1325.0,0.0296
1324.0,0.0293
1323.0,0.029
1322.0,0.0287
1321.0,0.0284
1320.0,0.0282
1319.0,0.028
1318.0,0.0279
1317.0,0.0277
1316.0,0.0276
1315.0,0.0274
1314.0,0.0273
1313.0,0.0273
1312.0,0.0273
1311.0,0.0273
1310.0,0.0275
1309.0,0.0279
1308.0,0.0285
1307.0,0.0293
1306.0,0.03
1305.0,0.0306
1304.0,0.0308
1303.0,0.0306
1302.0,0.0303
1301.0,0.03
1300.0,0.0298
1299.0,0.0297
1298.0,0.0296
1297.0,0.0296
1296.0,0.0295
1295.0,0.0293
1294.0,0.0291
1293.0,0.0289
1292.0,0.0287
1291.0,0.0284
1290.0,0.0282
1289.0,0.028
1288.0,0.0278
1287.0,0.0277
1286.0,0.0276
1285.0,0.0274
1284.0,0.0273
1283.0,0.0272
1282.0,0.0271
1281.0,0.027
1280.0,0.027
1279.0,0.0269
1278.0,0.0268
1277.0,0.0268
1276.0,0.0267
1275.0,0.0267
1274.0,0.0266
1273.0,0.0266
1272.0,0.0266
1271.0,0.0266
1270.0,0.0266
1269.0,0.0267
1268.0,0.0267
1267.0,0.0268
1266.0,0.0269
1265.0,0.027
1264.0,0.0272
1263.0,0.0274
1262.0,0.0276
1261.0,0.0279
1260.0,0.0283
1259.0,0.0288
1258.0,0.0294
1257.0,0.0299
1256.0,0.0302
1255.0,0.0301
1254.0,0.0298
1253.0,0.0294
1252.0,0.0289
1251.0,0.0284
1250.0,0.0281
1249.0,0.0278
1248.0,0.0277
1247.0,0.0275
1246.0,0.0274
1245.0,0.0272
1244.0,0.0271
1243.0,0.027
1242.0,0.027
1241.0,0.0269
1240.0,0.0269
1239.0,0.0268
1238.0,0.0267
1237.0,0.0268
1236.0,0.0269
1235.0,0.0269
1234.0,0.0269
1233.0,0.0268
1232.0,0.0267
1231.0,0.0267
1230.0,0.0267
1229.0,0.0268
1228.0,0.0269
1227.0,0.027
1226.0,0.0271
1225.0,0.0273
1224.0,0.0275
1223.0,0.0277
1222.0,0.0279
1221.0,0.0281
1220.0,0.0282
1219.0,0.0283
1218.0,0.0282
1217.0,0.0281
1216.0,0.028
1215.0,0.0278
1214.0,0.0277
1213.0,0.0275
1212.0,0.0274
1211.0,0.0273
1210.0,0.0272
1209.0,0.0271
1208.0,0.027
1207.0,0.0269
1206.0,0.0268
1205.0,0.0268
1204.0,0.0267
1203.0,0.0266
1202.0,0.0266
1201.0,0.0266
1200.0,0.0266
1199.0,0.0266
1198.0,0.0266
1197.0,0.0266
1196.0,0.0266
1195.0,0.0266
1194.0,0.0266
1193.0,0.0266
1192.0,0.0266
1191.0,0.0265
1190.0,0.0265
1189.0,0.0264
1188.0,0.0264
1187.0,0.0264
1186.0,0.0264
1185.0,0.0265
1184.0,0.0266
1183.0,0.0267
1182.0,0.0268
1181.0,0.027
1180.0,0.0273
1179.0,0.0277
1178.0,0.0281
1177.0,0.0286
1176.0,0.0293
1175.0,0.0303
1174.0,0.0317
1173.0,0.0335
1172.0,0.0357
1171.0,0.038
1170.0,0.0402
1169.0,0.0419
1168.0,0.0429
1167.0,0.0431
1166.0,0.0426
1165.0,0.0417
1164.0,0.0407
1163.0,0.0396
1162.0,0.0387
1161.0,0.0379
1160.0,0.0373
1159.0,0.0369
1158.0,0.0365
1157.0,0.0362
1156.0,0.036
1155.0,0.0359
1154.0,0.0358
1153.0,0.0357
1152.0,0.0354
1151.0,0.0351
1150.0,0.0346
1149.0,0.034
1148.0,0.0334
1147.0,0.0328
1146.0,0.0322
1145.0,0.0317
1144.0,0.0313
1143.0,0.0309
1142.0,0.0305
1141.0,0.0301
1140.0,0.0298
1139.0,0.0295
1138.0,0.0293
1137.0,0.0291
1136.0,0.0289
1135.0,0.0288
1134.0,0.0286
1133.0,0.0285
1132.0,0.0284
1131.0,0.0282
1130.0,0.0281
1129.0,0.028
1128.0,0.0279
1127.0,0.0279
1126.0,0.0278
1125.0,0.0277
1124.0,0.0277
1123.0,0.0276
1122.0,0.0275
1121.0,0.0275
1120.0,0.0275
1119.0,0.0275
1118.0,0.0276
1117.0,0.0276
1116.0,0.0276
1115.0,0.0276
1114.0,0.0277
1113.0,0.0277
1112.0,0.0278
1111.0,0.028
1110.0,0.0281
1109.0,0.0282
1108.0,0.0284
1107.0,0.0287
1106.0,0.029
1105.0,0.0295
1104.0,0.0299
1103.0,0.0302
1102.0,0.0303
1101.0,0.0301
1100.0,0.0299
1099.0,0.0296
1098.0,0.0292
1097.0,0.0289
1096.0,0.0286
1095.0,0.0284
1094.0,0.0283
1093.0,0.0282
1092.0,0.0281
1091.0,0.028
1090.0,0.0278
1089.0,0.0277
1088.0,0.0276
1087.0,0.0275
1086.0,0.0275
1085.0,0.0274
1084.0,0.0274
1083.0,0.0274
1082.0,0.0274
1081.0,0.0274
1080.0,0.0274
1079.0,0.0273
1078.0,0.0272
1077.0,0.0271
1076.0,0.0271
1075.0,0.0271
1074.0,0.027
1073.0,0.0269
1072.0,0.0268
1071.0,0.0268
1070.0,0.0269
1069.0,0.0269
1068.0,0.0268
1067.0,0.0267
1066.0,0.0266
1065.0,0.0267
1064.0,0.0268
1063.0,0.0269
1062.0,0.027
1061.0,0.0271
1060.0,0.027
1059.0,0.0269
1058.0,0.0268
1057.0,0.0269
1056.0,0.027
1055.0,0.0271
1054.0,0.0272
1053.0,0.0273
1052.0,0.0274
1051.0,0.0276
1050.0,0.0278
1049.0,0.028
1048.0,0.0282
1047.0,0.0284
1046.0,0.0285
1045.0,0.0285
1044.0,0.0285
1043.0,0.0284
1042.0,0.0283
1041.0,0.0281
1040.0,0.0281
1039.0,0.028
1038.0,0.028
1037.0,0.0279
1036.0,0.0279
1035.0,0.0278
1034.0,0.0278
1033.0,0.0277
1032.0,0.0277
1031.0,0.0276
1030.0,0.0275
1029.0,0.0275
1028.0,0.0274
1027.0,0.0274
1026.0,0.0275
1025.0,0.0276
1024.0,0.0278
1023.0,0.0279
1022.0,0.0279
1021.0,0.0278
1020.0,0.0278
1019.0,0.0278
1018.0,0.028
1017.0,0.0281
1016.0,0.0282
1015.0,0.0282
1014.0,0.0283
1013.0,0.0284
1012.0,0.0286
1011.0,0.0288
1010.0,0.0291
1009.0,0.0293
1008.0,0.0296
1007.0,0.03
1006.0,0.0306
1005.0,0.0315
1004.0,0.0328
1003.0,0.0344
1002.0,0.0366
1001.0,0.0394
1000.0,0.0425
999.0,0.0452
998.0,0.0467
997.0,0.0466
996.0,0.0451
995.0,0.0428
994.0,0.0402
993.0,0.0379
992.0,0.0361
991.0,0.0348
990.0,0.0338
989.0,0.0331
988.0,0.0325
987.0,0.0322
986.0,0.0319
985.0,0.0317
984.0,0.0318
983.0,0.0321
982.0,0.0328
981.0,0.0339
980.0,0.0354
979.0,0.0375
978.0,0.0401
977.0,0.0432
976.0,0.0465
975.0,0.0497
974.0,0.0522
973.0,0.0532
972.0,0.0526
971.0,0.0505
970.0,0.0475
969.0,0.0443
968.0,0.0415
967.0,0.0394
966.0,0.0379
965.0,0.0369
964.0,0.0361
963.0,0.0355
962.0,0.0349
961.0,0.0343
960.0,0.0338
959.0,0.0334
958.0,0.0332
957.0,0.033
956.0,0.0328
955.0,0.0327
954.0,0.0326
953.0,0.0325
952.0,0.0324
951.0,0.0322
950.0,0.0321
949.0,0.032
948.0,0.032
947.0,0.0321
946.0,0.0323
945.0,0.0326
944.0,0.0328
943.0,0.033
942.0,0.0333
941.0,0.0335
940.0,0.0335
939.0,0.0334
938.0,0.0332
937.0,0.033
936.0,0.0328
935.0,0.0326
934.0,0.0324
933.0,0.0321
932.0,0.032
931.0,0.0319
930.0,0.0318
929.0,0.0318
928.0,0.0318
927.0,0.0318
926.0,0.0319
925.0,0.0319
924.0,0.032
923.0,0.032
922.0,0.0321
921.0,0.032
920.0,0.032
919.0,0.0321
918.0,0.0322
917.0,0.0324
916.0,0.0325
915.0,0.0325
914.0,0.0325
913.0,0.0326
912.0,0.0327
911.0,0.0327
910.0,0.0328
909.0,0.033
908.0,0.0332
907.0,0.0336
906.0,0.0342
905.0,0.035
904.0,0.036
903.0,0.0371
902.0,0.0384
901.0,0.0395
900.0,0.0403
899.0,0.0407
898.0,0.0406
897.0,0.04
896.0,0.0391
895.0,0.0382
894.0,0.0373
893.0,0.0366
892.0,0.0361
891.0,0.0359
890.0,0.0358
889.0,0.0357
888.0,0.0356
887.0,0.0354
886.0,0.0352
885.0,0.0351
884.0,0.0352
883.0,0.0352
882.0,0.0353
881.0,0.0354
880.0,0.0354
879.0,0.0354
878.0,0.0354
877.0,0.0354
876.0,0.0355
875.0,0.0356
874.0,0.0358
873.0,0.0358
872.0,0.0358
871.0,0.0358
870.0,0.0358
869.0,0.0358
868.0,0.0358
867.0,0.0359
866.0,0.0359
865.0,0.036
864.0,0.0362
863.0,0.0363
862.0,0.0363
861.0,0.0363
860.0,0.0364
859.0,0.0365
858.0,0.0366
857.0,0.0366
856.0,0.0366
855.0,0.0368
854.0,0.037
853.0,0.0372
852.0,0.0374
851.0,0.0376
850.0,0.0378
849.0,0.038
848.0,0.0384
847.0,0.0391
846.0,0.0404
845.0,0.0426
844.0,0.0457
843.0,0.0493
842.0,0.0522
841.0,0.0532
840.0,0.0519
839.0,0.0492
838.0,0.0464
837.0,0.0442
836.0,0.0429
835.0,0.042
834.0,0.0414
833.0,0.0409
832.0,0.0406
831.0,0.0403
830.0,0.0401
829.0,0.04
828.0,0.0398
827.0,0.0397
826.0,0.0397
825.0,0.0397
824.0,0.0397
823.0,0.0395
822.0,0.0394
821.0,0.0393
820.0,0.0394
819.0,0.0395
818.0,0.0397
817.0,0.04
816.0,0.0405
815.0,0.0411
814.0,0.0419
813.0,0.0429
812.0,0.044
811.0,0.045
810.0,0.046
809.0,0.0465
808.0,0.0466
807.0,0.0461
806.0,0.0452
805.0,0.0443
804.0,0.0435
803.0,0.0428
802.0,0.0423
801.0,0.0418
800.0,0.0414
799.0,0.0412
798.0,0.041
797.0,0.0408
796.0,0.0406
795.0,0.0404
794.0,0.0402
793.0,0.0401
792.0,0.0401
791.0,0.0402
790.0,0.0403
789.0,0.0403
788.0,0.0402
787.0,0.04
786.0,0.0398
785.0,0.0396
784.0,0.0395
783.0,0.0394
782.0,0.0393
781.0,0.0393
780.0,0.0392
779.0,0.0391
778.0,0.0392
777.0,0.0393
776.0,0.0394
775.0,0.0394
774.0,0.0394
773.0,0.0394
772.0,0.0394
771.0,0.0393
770.0,0.0393
769.0,0.0394
768.0,0.0394
767.0,0.0392
766.0,0.039
765.0,0.0389
764.0,0.0388
763.0,0.0388
762.0,0.0389
761.0,0.0392
760.0,0.0394
759.0,0.0395
758.0,0.0394
757.0,0.0391
756.0,0.039
755.0,0.039
754.0,0.0392
753.0,0.0395
752.0,0.0396
751.0,0.0395
750.0,0.0394
749.0,0.0394
748.0,0.0395
747.0,0.0397
746.0,0.0399
745.0,0.0399
744.0,0.0399
743.0,0.0398
742.0,0.0399
741.0,0.0402
740.0,0.0405
739.0,0.0408
738.0,0.0408
737.0,0.0407
736.0,0.0407
735.0,0.0407
734.0,0.0408
733.0,0.041
732.0,0.0411
731.0,0.0411
730.0,0.0412
729.0,0.0413
728.0,0.0414
727.0,0.0414
726.0,0.0414
725.0,0.0415
724.0,0.0415
723.0,0.0416
722.0,0.0416
721.0,0.0418
720.0,0.0421
719.0,0.0424
718.0,0.0424
717.0,0.0423
716.0,0.0419
715.0,0.0415
714.0,0.0411
713.0,0.0409
712.0,0.0409
711.0,0.0411
710.0,0.0414
709.0,0.0417
708.0,0.0419
707.0,0.0418
706.0,0.0417
705.0,0.0417
704.0,0.0418
703.0,0.042
702.0,0.0423
701.0,0.0425
700.0,0.0426
699.0,0.0422
698.0,0.0417
697.0,0.0413
696.0,0.0412
695.0,0.0415
694.0,0.0418
693.0,0.0422
692.0,0.0429
691.0,0.0438
690.0,0.0447
689.0,0.0451
688.0,0.0447
687.0,0.0435
686.0,0.0419
685.0,0.0408
684.0,0.0405
683.0,0.0409
682.0,0.0412
681.0,0.0414
680.0,0.0417
679.0,0.042
678.0,0.0422
677.0,0.0419
676.0,0.0411
675.0,0.0405
674.0,0.0404
673.0,0.0404
672.0,0.0401
671.0,0.0392
670.0,0.0386
669.0,0.0392
668.0,0.0409
667.0,0.0419
666.0,0.0417
665.0,0.0413
664.0,0.0412
663.0,0.0414
662.0,0.0413
661.0,0.0409
660.0,0.0404
659.0,0.0401
658.0,0.04
657.0,0.0402
656.0,0.0408
655.0,0.0414
654.0,0.0417
653.0,0.0418
652.0,0.0416
651.0,0.0414
650.0,0.0412
649.0,0.0407
648.0,0.0399
647.0,0.0391
646.0,0.0384
645.0,0.0383
644.0,0.0387
643.0,0.0393
642.0,0.0399
641.0,0.0406
640.0,0.0415
639.0,0.0428
638.0,0.0443
637.0,0.0455
636.0,0.0461
635.0,0.046
634.0,0.0456
633.0,0.0458
632.0,0.0463
631.0,0.0467
630.0,0.0464
629.0,0.0457
628.0,0.0447
627.0,0.0432
626.0,0.0416
625.0,0.0405
624.0,0.0407
623.0,0.0418
622.0,0.0428
621.0,0.0431
620.0,0.0429
619.0,0.0429
618.0,0.0434
617.0,0.0441
616.0,0.0445
615.0,0.0446
614.0,0.045
613.0,0.046
612.0,0.047
611.0,0.047
610.0,0.0462
609.0,0.0455
608.0,0.0458
607.0,0.0467
606.0,0.0469
605.0,0.046
604.0,0.0445
603.0,0.0434
602.0,0.0428
601.0,0.0427
600.0,0.0428
