cm-1,A
4000.0,0.0680846829187538
3999.0,0.0680846829187538
3998.0,0.06813548650796819
3997.0,0.06813548650796819
3996.0,0.0681862960408608
3995.0,0.06833876031551878
3994.0,0.06844043290919477
3993.0,0.0685421293109949
3992.0,0.0685421293109949
3991.0,0.06864384953207203
3990.0,0.06874559358358656
3989.0,0.06879647454924775
3988.0,0.06884736147670667
3987.0,0.06884736147670667
3986.0,0.06879647454924775
3985.0,0.06884736147670667
3984.0,0.06894915322260897
3983.0,0.06915280831750303
3982.0,0.06935655895783555
3981.0,0.06940751155740177
3980.0,0.06930561233546473
3979.0,0.06915280831750303
3978.0,0.06905096883247697
3977.0,0.0690000580438479
3976.0,0.06905096883247697
3975.0,0.06915280831750303
3974.0,0.0692037370166998
3973.0,0.06915280831750303
3972.0,0.06905096883247697
3971.0,0.0690000580438479
3970.0,0.06905096883247697
3969.0,0.06905096883247697
3968.0,0.0691018855898955
3967.0,0.0691018855898955
3966.0,0.06915280831750303
3965.0,0.0692037370166998
3964.0,0.06935655895783555
3963.0,0.06945847013556561
3962.0,0.06961138175567827
3961.0,0.06961138175567827
3960.0,0.06950943469373039
3959.0,0.06930561233546473
3958.0,0.06905096883247697
3957.0,0.0688982543673613
3956.0,0.06874559358358656
3955.0,0.06869471857832687
3954.0,0.06859298644342648
3953.0,0.068389593637038
3952.0,0.0681862960408608
3951.0,0.06798309356579857
3950.0,0.06798309356579857
3949.0,0.0681862960408608
3948.0,0.0684912781333824
3947.0,0.06884736147670667
3946.0,0.0690000580438479
3945.0,0.06894915322260897
3944.0,0.0688982543673613
3943.0,0.06874559358358656
3942.0,0.0685421293109949
3941.0,0.06844043290919477
3940.0,0.06844043290919477
3939.0,0.06874559358358656
3938.0,0.0690000580438479
3937.0,0.06915280831750303
3936.0,0.06905096883247697
3935.0,0.06884736147670667
3934.0,0.06869471857832687
3933.0,0.0684912781333824
3932.0,0.06828793294324442
3931.0,0.06813548650796819
3930.0,0.06813548650796819
3929.0,0.0681862960408608
3928.0,0.06823711151882228
3927.0,0.06833876031551878
3926.0,0.06844043290919477
3925.0,0.06844043290919477
3924.0,0.06828793294324442
3923.0,0.0680846829187538
3922.0,0.0680846829187538
3921.0,0.06828793294324442
3920.0,0.0684912781333824
3919.0,0.06864384953207203
3918.0,0.06884736147670667
3917.0,0.0692037370166998
3916.0,0.06945847013556561
3915.0,0.06956040523329987
3914.0,0.06976434723371505
3913.0,0.07007043991541217
3912.0,0.0702746216219956
3911.0,0.07022356719509815
3910.0,0.0699173666076287
3909.0,0.06950943469373039
3908.0,0.0691018855898955
3907.0,0.06869471857832687
3906.0,0.06833876031551878
3905.0,0.06803388527182741
3904.0,0.0676277178520861
3903.0,0.06732334137759932
3902.0,0.0671712330991534
3901.0,0.06737405597821788
3900.0,0.06798309356579857
3899.0,0.0684912781333824
3898.0,0.06869471857832687
3897.0,0.06879647454924775
3896.0,0.06884736147670667
3895.0,0.06884736147670667
3894.0,0.06864384953207203
3893.0,0.0685421293109949
3892.0,0.06884736147670667
3891.0,0.06945847013556561
3890.0,0.06956040523329987
3889.0,0.06915280831750303
3888.0,0.0691018855898955
3887.0,0.06956040523329987
3886.0,0.06996838504902692
3885.0,0.06981534770138009
3884.0,0.0692037370166998
3883.0,0.06859298644342648
3882.0,0.0684912781333824
3881.0,0.06874559358358656
3880.0,0.06894915322260897
3879.0,0.0690000580438479
3878.0,0.06894915322260897
3877.0,0.06905096883247697
3876.0,0.06940751155740177
3875.0,0.06950943469373039
3874.0,0.06915280831750303
3873.0,0.06844043290919477
3872.0,0.06813548650796819
3871.0,0.0685421293109949
3870.0,0.06905096883247697
3869.0,0.06884736147670667
3868.0,0.06798309356579857
3867.0,0.0676277178520861
3866.0,0.06813548650796819
3865.0,0.0685421293109949
3864.0,0.0684912781333824
3863.0,0.0685421293109949
3862.0,0.06894915322260897
3861.0,0.06935655895783555
3860.0,0.06940751155740177
3859.0,0.0691018855898955
3858.0,0.06869471857832687
3857.0,0.0681862960408608
3856.0,0.06777998612288094
3855.0,0.0675769736232612
3854.0,0.06788152797087754
3853.0,0.06859298644342648
3852.0,0.06874559358358656
3851.0,0.06803388527182741
3850.0,0.0680846829187538
3849.0,0.06894915322260897
3848.0,0.06945847013556561
3847.0,0.06956040523329987
3846.0,0.06950943469373039
3845.0,0.06945847013556561
3844.0,0.06930561233546473
3843.0,0.0690000580438479
3842.0,0.0685421293109949
3841.0,0.06813548650796819
3840.0,0.06798309356579857
3839.0,0.06793230779927839
3838.0,0.06798309356579857
3837.0,0.06798309356579857
3836.0,0.06793230779927839
3835.0,0.06803388527182741
3834.0,0.0684912781333824
3833.0,0.06915280831750303
3832.0,0.06971335275448043
3831.0,0.0699173666076287
3830.0,0.06986635415888243
3829.0,0.06996838504902692
3828.0,0.07022356719509815
3827.0,0.07052998382251041
3826.0,0.07032568205141221
3825.0,0.06950943469373039
3824.0,0.06874559358358656
3823.0,0.06859298644342648
3822.0,0.06905096883247697
3821.0,0.06961138175567827
3820.0,0.06966236426227002
3819.0,0.06905096883247697
3818.0,0.06905096883247697
3817.0,0.06996838504902692
3816.0,0.07078549626260622
3815.0,0.07078549626260622
3814.0,0.07037674848475972
3813.0,0.0702746216219956
3812.0,0.07063217075990047
3811.0,0.07068327324650436
3810.0,0.07032568205141221
3809.0,0.07007043991541217
3808.0,0.07032568205141221
3807.0,0.07068327324650436
3806.0,0.07032568205141221
3805.0,0.06925467168888666
3804.0,0.06859298644342648
3803.0,0.06874559358358656
3802.0,0.0691018855898955
3801.0,0.06905096883247697
3800.0,0.0684912781333824
3799.0,0.06803388527182741
3798.0,0.06859298644342648
3797.0,0.06981534770138009
3796.0,0.07073438174693436
3795.0,0.07109230975604719
3794.0,0.07129697256940304
3793.0,0.07150173187630915
3792.0,0.07170658776779781
3791.0,0.07170658776779781
3790.0,0.07160414774328627
3789.0,0.07139934015547578
3788.0,0.07119462910671581
3787.0,0.0710411591191702
3786.0,0.0710411591191702
3785.0,0.07119462910671581
3784.0,0.0713481533463054
3783.0,0.07129697256940304
3782.0,0.07119462910671581
3781.0,0.07124579782334672
3780.0,0.0713481533463054
3779.0,0.07129697256940304
3778.0,0.07114346641808922
3777.0,0.07109230975604719
3776.0,0.07129697256940304
3775.0,0.07160414774328627
3774.0,0.07175781684269089
3773.0,0.0716553647351379
3772.0,0.0716553647351379
3771.0,0.07186029312488018
3770.0,0.07196279359311708
3769.0,0.07175781684269089
3768.0,0.07139934015547578
3767.0,0.0713481533463054
3766.0,0.07160414774328627
3765.0,0.0718090519612431
3764.0,0.07170658776779781
3763.0,0.07150173187630915
3762.0,0.07150173187630915
3761.0,0.07155293679081787
3760.0,0.07129697256940304
3759.0,0.07093887591523451
3758.0,0.07068327324650436
3757.0,0.07047889936889606
3756.0,0.07001940948448526
3755.0,0.06961138175567827
3754.0,0.06930561233546473
3753.0,0.06894915322260897
3752.0,0.06833876031551878
3751.0,0.06803388527182741
3750.0,0.06828793294324442
3749.0,0.06828793294324442
3748.0,0.0676277178520861
3747.0,0.06737405597821788
3746.0,0.06813548650796819
3745.0,0.06925467168888666
3744.0,0.06981534770138009
3743.0,0.06935655895783555
3742.0,0.06859298644342648
3741.0,0.06879647454924775
3740.0,0.06935655895783555
3739.0,0.0692037370166998
3738.0,0.06859298644342648
3737.0,0.06813548650796819
3736.0,0.06798309356579857
3735.0,0.06798309356579857
3734.0,0.06844043290919477
3733.0,0.06940751155740177
3732.0,0.07047889936889606
3731.0,0.07093887591523451
3730.0,0.07083661679493547
3729.0,0.07073438174693436
3728.0,0.07083661679493547
3727.0,0.07093887591523451
3726.0,0.07083661679493547
3725.0,0.07063217075990047
3724.0,0.07052998382251041
3723.0,0.07047889936889606
3722.0,0.07047889936889606
3721.0,0.07063217075990047
3720.0,0.0710411591191702
3719.0,0.07170658776779781
3718.0,0.07216786713341827
3717.0,0.07227044022834539
3716.0,0.07191154033502922
3715.0,0.07145053299833615
3714.0,0.07109230975604719
3713.0,0.07083661679493547
3712.0,0.07063217075990047
3711.0,0.07083661679493547
3710.0,0.07124579782334672
3709.0,0.07150173187630915
3708.0,0.0716553647351379
3707.0,0.07175781684269089
3706.0,0.07175781684269089
3705.0,0.07175781684269089
3704.0,0.0718090519612431
3703.0,0.07206531825882068
3702.0,0.07247565912497134
3701.0,0.07288638806623937
3700.0,0.07304051161972436
3699.0,0.07304051161972436
3698.0,0.07309189829456408
3697.0,0.07314329105030759
3696.0,0.07309189829456408
3695.0,0.07278366940873537
3694.0,0.07252697900472405
3693.0,0.07221915065262552
3692.0,0.07175781684269089
3691.0,0.07124579782334672
3690.0,0.07114346641808922
3689.0,0.07150173187630915
3688.0,0.07170658776779781
3687.0,0.07145053299833615
3686.0,0.0713481533463054
3685.0,0.07186029312488018
3684.0,0.0725783049495814
3683.0,0.07288638806623937
3682.0,0.07283502570063005
3681.0,0.07262963696097646
3680.0,0.07221915065262552
3679.0,0.07145053299833615
3678.0,0.07058107428570715
3677.0,0.07032568205141221
3676.0,0.07073438174693436
3675.0,0.07129697256940304
3674.0,0.0709900145060387
3673.0,0.07032568205141221
3672.0,0.07068327324650436
3671.0,0.07160414774328627
3670.0,0.07227044022834539
3669.0,0.07262963696097646
3668.0,0.07278366940873537
3667.0,0.07304051161972436
3666.0,0.07360609973031784
3665.0,0.07406940213152868
3664.0,0.07422394616325367
3663.0,0.07417242537525759
3662.0,0.07406940213152868
3661.0,0.07391491307485598
3660.0,0.07355465218161061
3659.0,0.07329750581735506
3658.0,0.07329750581735506
3657.0,0.07365755337434488
3656.0,0.07396640332115534
3655.0,0.07381195089279391
3654.0,0.0732460948102629
3653.0,0.07273231918911849
3652.0,0.07232173586200852
3651.0,0.07170658776779781
3650.0,0.07093887591523451
3649.0,0.07078549626260622
3648.0,0.07114346641808922
3647.0,0.0713481533463054
3646.0,0.07145053299833615
3645.0,0.07191154033502922
3644.0,0.07262963696097646
3643.0,0.07340034609297241
3642.0,0.07386342893255127
3641.0,0.07406940213152868
3640.0,0.07427547306393745
3639.0,0.07453319930846214
3638.0,0.07473949048056472
3637.0,0.07473949048056472
3636.0,0.07473949048056472
3635.0,0.07473949048056472
3634.0,0.07458476291575367
3633.0,0.07412091069849924
3632.0,0.0734517753643813
3631.0,0.07309189829456408
3630.0,0.07304051161972436
3629.0,0.0734517753643813
3628.0,0.07401789967289685
3627.0,0.07427547306393745
3626.0,0.07432700607875953
3625.0,0.07473949048056472
3624.0,0.07494587968815725
3623.0,0.07473949048056472
3622.0,0.07443009045662374
3621.0,0.07422394616325367
3620.0,0.07412091069849924
3619.0,0.07396640332115534
3618.0,0.07376047895413773
3617.0,0.0734517753643813
3616.0,0.07340034609297241
3615.0,0.07360609973031784
3614.0,0.07370901311513656
3613.0,0.07360609973031784
3612.0,0.0734517753643813
3611.0,0.07355465218161061
3610.0,0.07401789967289685
3609.0,0.07463633264589853
3608.0,0.07520400420208784
3607.0,0.07551395626608493
3606.0,0.07566901529132153
3605.0,0.07572071393811841
3604.0,0.07577241873988227
3603.0,0.07572071393811841
3602.0,0.07556563645676939
3601.0,0.07535895258283709
3600.0,0.07520400420208784
3599.0,0.07510073598571654
3598.0,0.07504911108438939
3597.0,0.07489427319033615
3596.0,0.07479107858799638
3595.0,0.07479107858799638
3594.0,0.07510073598571654
3593.0,0.07556563645676939
3592.0,0.07592757008963713
3591.0,0.07613452481449845
3590.0,0.07618627890881036
3589.0,0.07608277688689435
3588.0,0.07587584681417514
3587.0,0.07582412969807906
3586.0,0.07592757008963713
3585.0,0.07613452481449845
3584.0,0.07649693305789551
3583.0,0.07701518429111709
3582.0,0.07737832847680104
3581.0,0.07758597585436577
3580.0,0.07753405470158659
3579.0,0.07737832847680104
3578.0,0.07711890879170658
3577.0,0.07691148455760066
3576.0,0.07691148455760066
3575.0,0.07701518429111709
3574.0,0.07717078033335123
3573.0,0.07732643214144574
3572.0,0.07727454200674
3571.0,0.07706704344478843
3570.0,0.07665234350217442
3569.0,0.07613452481449845
3568.0,0.0756173227980268
3567.0,0.07535895258283709
3566.0,0.07541061433058172
3565.0,0.07566901529132153
3564.0,0.07592757008963713
3563.0,0.07628980560343712
3562.0,0.07665234350217442
3561.0,0.07696333132921396
3560.0,0.07732643214144574
3559.0,0.07763790321520991
3558.0,0.07784567476894111
3557.0,0.07800156869172903
3556.0,0.07805354577058976
3555.0,0.07800156869172903
3554.0,0.07800156869172903
3553.0,0.07805354577058976
3552.0,0.07810552907089763
3551.0,0.07810552907089763
3550.0,0.07794959783282618
3549.0,0.07784567476894111
3548.0,0.07784567476894111
3547.0,0.07794959783282618
3546.0,0.07820951434181311
3545.0,0.07846958649875768
3544.0,0.07867775641617802
3543.0,0.07878187880504961
3542.0,0.07883394936226118
3541.0,0.07893810920972144
3540.0,0.07893810920972144
3539.0,0.0788860261633193
3538.0,0.07878187880504961
3537.0,0.07883394936226118
3536.0,0.07893810920972144
3535.0,0.07904229404455076
3534.0,0.07893810920972144
3533.0,0.07872981449018734
3532.0,0.07857365898473456
3531.0,0.07852161962430992
3530.0,0.07862570458152551
3529.0,0.07883394936226118
3528.0,0.07904229404455076
3527.0,0.079094395835976
3526.0,0.07904229404455076
3525.0,0.07899019850296574
3524.0,0.07904229404455076
3523.0,0.07925073872429178
3522.0,0.07956359344924135
3521.0,0.07992887570247587
3520.0,0.08018997982980403
3519.0,0.08034671768963575
3518.0,0.08034671768963575
3517.0,0.08024221949810584
3516.0,0.08003329851661278
3515.0,0.07987667370927598
3514.0,0.07982447798997727
3513.0,0.07992887570247587
3512.0,0.07998108397108505
3511.0,0.08008551934056851
3510.0,0.08008551934056851
3509.0,0.08013774644446192
3508.0,0.08013774644446192
3507.0,0.08013774644446192
3506.0,0.08003329851661278
3505.0,0.07982447798997727
3504.0,0.07972010536705154
3503.0,0.07982447798997727
3502.0,0.08003329851661278
3501.0,0.08018997982980403
3500.0,0.08013774644446192
3499.0,0.07998108397108505
3498.0,0.07998108397108505
3497.0,0.08024221949810584
3496.0,0.08055578953476306
3495.0,0.08071265949561734
3494.0,0.08066036321258663
3493.0,0.08045124103115198
3492.0,0.08024221949810584
3491.0,0.08029446545087904
3490.0,0.08045124103115198
3489.0,0.08071265949561734
3488.0,0.08092190762392604
3487.0,0.0809742354126397
3486.0,0.0809742354126397
3485.0,0.08086958613938555
3484.0,0.08081727095749947
3483.0,0.08071265949561734
3482.0,0.08066036321258663
3481.0,0.08060807322614072
3480.0,0.08071265949561734
3479.0,0.08092190762392604
3478.0,0.08113125661901543
3477.0,0.08144546944972642
3476.0,0.08165507103772507
3475.0,0.08175990977858505
3474.0,0.08175990977858505
3473.0,0.08170748724464438
3472.0,0.08165507103772507
3471.0,0.08165507103772507
3470.0,0.08155025759884227
3469.0,0.08139308485501817
3468.0,0.08118360963962057
3467.0,0.0809742354126397
3466.0,0.08092190762392604
3465.0,0.0809742354126397
3464.0,0.08113125661901543
3463.0,0.08134070657817682
3462.0,0.08149786036382611
3461.0,0.08160266115629988
3460.0,0.08170748724464438
3459.0,0.08175990977858505
3458.0,0.08196966321511989
3457.0,0.08217951800630297
3456.0,0.08244197917456386
3455.0,0.08259953204474924
3454.0,0.08259953204474924
3453.0,0.08244197917456386
3452.0,0.08217951800630297
3451.0,0.08191721535781271
3450.0,0.08175990977858505
3449.0,0.08181233864107451
3448.0,0.08191721535781271
3447.0,0.08202211740709164
3446.0,0.08207457793525874
3445.0,0.08223199755224364
3444.0,0.08254700807033655
3443.0,0.08291480935943274
3442.0,0.08301995267961781
3441.0,0.08286224724355584
3440.0,0.08265206237222844
3439.0,0.08254700807033655
3438.0,0.08275714209253371
3437.0,0.08296737783760655
3436.0,0.08296737783760655
3435.0,0.08275714209253371
3434.0,0.08254700807033655
3433.0,0.08249449044745338
3432.0,0.08254700807033655
3431.0,0.08265206237222844
3430.0,0.08265206237222844
3429.0,0.08254700807033655
3428.0,0.08244197917456386
3427.0,0.08238947425013277
3426.0,0.08249449044745338
3425.0,0.08259953204474924
3424.0,0.08275714209253371
3423.0,0.08280969148843575
3422.0,0.08286224724355584
3421.0,0.08286224724355584
3420.0,0.08291480935943274
3419.0,0.08301995267961781
3418.0,0.08301995267961781
3417.0,0.08296737783760655
3416.0,0.08286224724355584
3415.0,0.08280969148843575
3414.0,0.08286224724355584
3413.0,0.08301995267961781
3412.0,0.08317771540408803
3411.0,0.08328292240118751
3410.0,0.08328292240118751
3409.0,0.08328292240118751
3408.0,0.0832303157168639
3407.0,0.0832303157168639
3406.0,0.08328292240118751
3405.0,0.08333553545860273
3404.0,0.08333553545860273
3403.0,0.08328292240118751
3402.0,0.0832303157168639
3401.0,0.08328292240118751
3400.0,0.0833881548906541
3399.0,0.08359869639612438
3398.0,0.08375666953466032
3397.0,0.08375666953466032
3396.0,0.08365134772453975
3395.0,0.0833881548906541
3394.0,0.08312512146131668
3393.0,0.08296737783760655
3392.0,0.08286224724355584
3391.0,0.08286224724355584
3390.0,0.08296737783760655
3389.0,0.08317771540408803
3388.0,0.08349341288484435
3387.0,0.08375666953466032
3386.0,0.0838620168928248
3385.0,0.08380934001946239
3384.0,0.08370400543686918
3383.0,0.08370400543686918
3382.0,0.08380934001946239
3381.0,0.08396738981143059
3380.0,0.08412549714230844
3379.0,0.08423093401631587
3378.0,0.08423093401631587
3377.0,0.08417821237960132
3376.0,0.0839147001562972
3375.0,0.08349341288484435
3374.0,0.08312512146131668
3373.0,0.08291480935943274
3372.0,0.08301995267961781
3371.0,0.08328292240118751
3370.0,0.08349341288484435
3369.0,0.08359869639612438
3368.0,0.08359869639612438
3367.0,0.08354605145007499
3366.0,0.08354605145007499
3365.0,0.08359869639612438
3364.0,0.08365134772453975
3363.0,0.08370400543686918
3362.0,0.08370400543686918
3361.0,0.08365134772453975
3360.0,0.08354605145007499
3359.0,0.08349341288484435
3358.0,0.08354605145007499
3357.0,0.08365134772453975
3356.0,0.08380934001946239
3355.0,0.0839147001562972
3354.0,0.0838620168928248
3353.0,0.08380934001946239
3352.0,0.0838620168928248
3351.0,0.08396738981143059
3350.0,0.08402008585977572
3349.0,0.08396738981143059
3348.0,0.0838620168928248
3347.0,0.08375666953466032
3346.0,0.08370400543686918
3345.0,0.08370400543686918
3344.0,0.08365134772453975
3343.0,0.08365134772453975
3342.0,0.08365134772453975
3341.0,0.08375666953466032
3340.0,0.08396738981143059
3339.0,0.08417821237960132
3338.0,0.08423093401631587
3337.0,0.08412549714230844
3336.0,0.08402008585977572
3335.0,0.08396738981143059
3334.0,0.08407278830288423
3333.0,0.08428366205400617
3332.0,0.08460016478773014
3331.0,0.08481129482684358
3330.0,0.08496970974083906
3329.0,0.08491689834879956
3328.0,0.08470571697731355
3327.0,0.08444188458847957
3326.0,0.08423093401631587
3325.0,0.08412549714230844
3324.0,0.08402008585977572
3323.0,0.08380934001946239
3322.0,0.08354605145007499
3321.0,0.08344078069888616
3320.0,0.08359869639612438
3319.0,0.08396738981143059
3318.0,0.08433639649422697
3317.0,0.08454739831152125
3316.0,0.08460016478773014
3315.0,0.08454739831152125
3314.0,0.08449463824562353
3313.0,0.08444188458847957
3312.0,0.08433639649422697
3311.0,0.08423093401631587
3310.0,0.08412549714230844
3309.0,0.08396738981143059
3308.0,0.08380934001946239
3307.0,0.08375666953466032
3306.0,0.0839147001562972
3305.0,0.08417821237960132
3304.0,0.08433639649422697
3303.0,0.08444188458847957
3302.0,0.08444188458847957
3301.0,0.08444188458847957
3300.0,0.08444188458847957
3299.0,0.08433639649422697
3298.0,0.08412549714230844
3297.0,0.0839147001562972
3296.0,0.08375666953466032
3295.0,0.08365134772453975
3294.0,0.08359869639612438
3293.0,0.08365134772453975
3292.0,0.0838620168928248
3291.0,0.08423093401631587
3290.0,0.08454739831152125
3289.0,0.08470571697731355
3288.0,0.08460016478773014
3287.0,0.08433639649422697
3286.0,0.08407278830288423
3285.0,0.0838620168928248
3284.0,0.08375666953466032
3283.0,0.0838620168928248
3282.0,0.08402008585977572
3281.0,0.08417821237960132
3280.0,0.08417821237960132
3279.0,0.08412549714230844
3278.0,0.08407278830288423
3277.0,0.08417821237960132
3276.0,0.08444188458847957
3275.0,0.08460016478773014
3274.0,0.08454739831152125
3273.0,0.08433639649422697
3272.0,0.08412549714230844
3271.0,0.08407278830288423
3270.0,0.08428366205400617
3269.0,0.08449463824562353
3268.0,0.08454739831152125
3267.0,0.08444188458847957
3266.0,0.08433639649422697
3265.0,0.08438913733853282
3264.0,0.08444188458847957
3263.0,0.08454739831152125
3262.0,0.08454739831152125
3261.0,0.08454739831152125
3260.0,0.08454739831152125
3259.0,0.08454739831152125
3258.0,0.08438913733853282
3257.0,0.08417821237960132
3256.0,0.0839147001562972
3255.0,0.08375666953466032
3254.0,0.08380934001946239
3253.0,0.08396738981143059
3252.0,0.08423093401631587
3251.0,0.08438913733853282
3250.0,0.08428366205400617
3249.0,0.08407278830288423
3248.0,0.08375666953466032
3247.0,0.08349341288484435
3246.0,0.08344078069888616
3245.0,0.08354605145007499
3244.0,0.08370400543686918
3243.0,0.0838620168928248
3242.0,0.08396738981143059
3241.0,0.08402008585977572
3240.0,0.08396738981143059
3239.0,0.08396738981143059
3238.0,0.0838620168928248
3237.0,0.0838620168928248
3236.0,0.0838620168928248
3235.0,0.08380934001946239
3234.0,0.08375666953466032
3233.0,0.08375666953466032
3232.0,0.08370400543686918
3231.0,0.08365134772453975
3230.0,0.08359869639612438
3229.0,0.08365134772453975
3228.0,0.08380934001946239
3227.0,0.08402008585977572
3226.0,0.08417821237960132
3225.0,0.08428366205400617
3224.0,0.08417821237960132
3223.0,0.08402008585977572
3222.0,0.0838620168928248
3221.0,0.08375666953466032
3220.0,0.08370400543686918
3219.0,0.08359869639612438
3218.0,0.08344078069888616
3217.0,0.08333553545860273
3216.0,0.08328292240118751
3215.0,0.08333553545860273
3214.0,0.08349341288484435
3213.0,0.08354605145007499
3212.0,0.08354605145007499
3211.0,0.08344078069888616
3210.0,0.08333553545860273
3209.0,0.0832303157168639
3208.0,0.08328292240118751
3207.0,0.08333553545860273
3206.0,0.08349341288484435
3205.0,0.08354605145007499
3204.0,0.08349341288484435
3203.0,0.08333553545860273
3202.0,0.08312512146131668
3201.0,0.08291480935943274
3200.0,0.08270459905431071
3199.0,0.08244197917456386
3198.0,0.0823369756726251
3197.0,0.08238947425013277
3196.0,0.08254700807033655
3195.0,0.08270459905431071
3194.0,0.08275714209253371
3193.0,0.08286224724355584
3192.0,0.08291480935943274
3191.0,0.08296737783760655
3190.0,0.08296737783760655
3189.0,0.08291480935943274
3188.0,0.08275714209253371
3187.0,0.08265206237222844
3186.0,0.08270459905431071
3185.0,0.08275714209253371
3184.0,0.08280969148843575
3183.0,0.08270459905431071
3182.0,0.08254700807033655
3181.0,0.08238947425013277
3180.0,0.0823369756726251
3179.0,0.08238947425013277
3178.0,0.08249449044745338
3177.0,0.08259953204474924
3176.0,0.08270459905431071
3175.0,0.08275714209253371
3174.0,0.08270459905431071
3173.0,0.08259953204474924
3172.0,0.08244197917456386
3171.0,0.08238947425013277
3170.0,0.0823369756726251
3169.0,0.08228448344050654
3168.0,0.08217951800630297
3167.0,0.08191721535781271
3166.0,0.08175990977858505
3165.0,0.08181233864107451
3164.0,0.08202211740709164
3163.0,0.08217951800630297
3162.0,0.08217951800630297
3161.0,0.08207457793525874
3160.0,0.08196966321511989
3159.0,0.08181233864107451
3158.0,0.08170748724464438
3157.0,0.08149786036382611
3156.0,0.08134070657817682
3155.0,0.08118360963962057
3154.0,0.08113125661901543
3153.0,0.0812359689720008
3152.0,0.08134070657817682
3151.0,0.08134070657817682
3150.0,0.0812359689720008
3149.0,0.0809742354126397
3148.0,0.08076496207674921
3147.0,0.08060807322614072
3146.0,0.0805035121369384
3145.0,0.08045124103115198
3144.0,0.08039897621588898
3143.0,0.08029446545087904
3142.0,0.08013774644446192
3141.0,0.08003329851661278
3140.0,0.08003329851661278
3139.0,0.08013774644446192
3138.0,0.08024221949810584
3137.0,0.08024221949810584
3136.0,0.08024221949810584
3135.0,0.08024221949810584
3134.0,0.08029446545087904
3133.0,0.08029446545087904
3132.0,0.08013774644446192
3131.0,0.07992887570247587
3130.0,0.07961575782164254
3129.0,0.07935499859321249
3128.0,0.07925073872429178
3127.0,0.07930286553008004
3126.0,0.0794071379151915
3125.0,0.07951143534170213
3124.0,0.0794592834975203
3123.0,0.07935499859321249
3122.0,0.07919861817434581
3121.0,0.079094395835976
3120.0,0.07893810920972144
3119.0,0.07883394936226118
3118.0,0.07862570458152551
3117.0,0.07841755960658348
3116.0,0.07826151631540124
3115.0,0.0781575185941421
3114.0,0.07820951434181311
3113.0,0.07831352451639795
3112.0,0.07836553894629472
3111.0,0.07826151631540124
3110.0,0.0781575185941421
3109.0,0.0781575185941421
3108.0,0.0781575185941421
3107.0,0.0781575185941421
3106.0,0.07805354577058976
3105.0,0.07779372256098371
3104.0,0.07758597585436577
3103.0,0.07748213975538865
3102.0,0.07737832847680104
3101.0,0.0772226580712021
3100.0,0.07706704344478843
3099.0,0.07685964397479927
3098.0,0.07675598136972361
3097.0,0.07680780957933253
3096.0,0.07696333132921396
3095.0,0.07706704344478843
3094.0,0.07706704344478843
3093.0,0.07685964397479927
3092.0,0.07665234350217442
3091.0,0.07654873036034848
3090.0,0.07654873036034848
3089.0,0.07660053384128362
3088.0,0.07660053384128362
3087.0,0.07654873036034848
3086.0,0.07649693305789551
3085.0,0.07644514193245056
3084.0,0.07634157820669385
3083.0,0.07623803917129979
3082.0,0.07608277688689435
3081.0,0.07592757008963713
3080.0,0.07577241873988227
3079.0,0.07556563645676939
3078.0,0.07541061433058172
3077.0,0.07530729697981409
3076.0,0.07520400420208784
3075.0,0.07510073598571654
3074.0,0.0748426728241014
3073.0,0.07458476291575367
3072.0,0.07448164182257
3071.0,0.07448164182257
3070.0,0.07453319930846214
3069.0,0.07453319930846214
3068.0,0.07453319930846214
3067.0,0.07437854520917098
3066.0,0.07412091069849924
3065.0,0.07376047895413773
3064.0,0.0734517753643813
3063.0,0.07314329105030759
3062.0,0.07293775650699996
3061.0,0.07283502570063005
3060.0,0.07268097504034388
3059.0,0.07252697900472405
3058.0,0.07242434530888953
3057.0,0.07242434530888953
3056.0,0.07252697900472405
3055.0,0.07262963696097646
3054.0,0.07252697900472405
3053.0,0.07227044022834539
3052.0,0.07196279359311708
3051.0,0.0718090519612431
3050.0,0.0718090519612431
3049.0,0.07186029312488018
3048.0,0.07186029312488018
3047.0,0.0716553647351379
3046.0,0.0713481533463054
3045.0,0.07109230975604719
3044.0,0.07088774334533943
3043.0,0.07073438174693436
3042.0,0.07063217075990047
3041.0,0.07058107428570715
3040.0,0.07047889936889606
3039.0,0.07037674848475972
3038.0,0.07022356719509815
3037.0,0.07001940948448526
3036.0,0.06976434723371505
3035.0,0.06956040523329987
3034.0,0.06935655895783555
3033.0,0.06915280831750303
3032.0,0.0690000580438479
3031.0,0.06884736147670667
3030.0,0.06869471857832687
3029.0,0.06844043290919477
3028.0,0.0681862960408608
3027.0,0.0678307540792078
3026.0,0.06752623532284674
3025.0,0.06727263269847072
3024.0,0.06701917807680191
3023.0,0.06686717627326577
3022.0,0.06686717627326577
3021.0,0.06691783763020887
3020.0,0.06691783763020887
3019.0,0.06676587128519196
3018.0,0.0665127121512945
3017.0,0.06615853710127872
3016.0,0.06580465065211571
3015.0,0.0653500770992892
3014.0,0.06494641076893504
3013.0,0.06449273417528723
3012.0,0.06408986356949264
3011.0,0.0636873663378068
3010.0,0.06333548699992453
3009.0,0.0630843190547461
3008.0,0.06293368798257193
3007.0,0.0627329277885873
3006.0,0.062381820606176586
3005.0,0.06198090252378963
3004.0,0.06148027482350815
3003.0,0.06108018775522828
3002.0,0.06068046892176193
3001.0,0.06038092104330195
3000.0,0.060081579630943294
2999.0,0.05973260855398799
2998.0,0.05938391766259232
2997.0,0.05908526241971446
2996.0,0.058836539841526925
2995.0,0.05858795962645047
2994.0,0.0582898510583536
2993.0,0.05794231615860479
2992.0,0.05749589383191922
2991.0,0.057000406633959555
2990.0,0.05660442349104544
2989.0,0.05625823416868636
2988.0,0.05601112492622806
2987.0,0.05571477931124735
2986.0,0.05536929814372171
2985.0,0.0549747987575373
2984.0,0.05453141486818014
2983.0,0.054088483180726676
2982.0,0.053596866100945384
2981.0,0.053203972728539606
2980.0,0.05290953578037816
2979.0,0.05271335532220167
2978.0,0.0525172634430815
2977.0,0.05237025261564554
2976.0,0.05217431555754937
2975.0,0.052027420754219955
2974.0,0.052027420754219955
2973.0,0.05217431555754937
2972.0,0.05237025261564554
2971.0,0.05266432405126009
2970.0,0.05300765925162776
2969.0,0.05340037498486727
2968.0,0.05403929642243144
2967.0,0.05482695382609992
2966.0,0.055764156206519866
2965.0,0.05665390164340933
2964.0,0.05744631966579017
2963.0,0.05799194697768684
2962.0,0.0583891978463662
2961.0,0.058836539841526925
2960.0,0.05933412752417122
2959.0,0.05988213325228142
2958.0,0.06033101647767336
2957.0,0.06063052992534024
2956.0,0.06068046892176193
2955.0,0.06063052992534024
2954.0,0.060430831344098435
2953.0,0.060231224546650086
2952.0,0.05998184499233683
2951.0,0.0595831353183347
2950.0,0.059035506507200575
2949.0,0.05848856736559682
2948.0,0.05814087347462649
2947.0,0.05824018618530458
2946.0,0.058786812414678646
2945.0,0.05983228596592505
2944.0,0.061380218497318895
2943.0,0.06333548699992453
2942.0,0.06590573164451952
2941.0,0.06905096883247697
2940.0,0.07278366940873537
2939.0,0.07706704344478843
2938.0,0.08160266115629988
2937.0,0.08639805027084257
2936.0,0.09135416109288674
2935.0,0.09663866374468144
2934.0,0.10237290870955862
2933.0,0.10885296955122903
2932.0,0.11605480496572018
2931.0,0.12389767862220635
2930.0,0.13241467345296387
2929.0,0.14140265500530758
2928.0,0.1509493094304879
2927.0,0.16127680996862814
2926.0,0.17256610459922084
2925.0,0.1851533313955367
2924.0,0.19914550849643908
2923.0,0.21474136664229881
2922.0,0.2321023839819094
2921.0,0.25134690657573255
2920.0,0.2725400791420911
2919.0,0.29542055030370085
2918.0,0.319120825573189
2917.0,0.34246611244201386
2916.0,0.36331155204671717
2915.0,0.37944755527056473
2914.0,0.38880793913156575
2913.0,0.39083262569798016
2912.0,0.38626385873812863
2911.0,0.3771645204784797
2910.0,0.3659259745125316
2909.0,0.35389047802115203
2908.0,0.34217954398430295
2907.0,0.331334584545508
2906.0,0.32139058344107396
2905.0,0.3126494304419727
2904.0,0.3051316720175439
2903.0,0.29860473098607976
2902.0,0.2928558116575548
2901.0,0.2875186621980814
2900.0,0.2824127031445396
2899.0,0.27777753603026967
2898.0,0.2735988378970775
2897.0,0.26978315943130604
2896.0,0.26616099930285064
2895.0,0.2624893093265239
2894.0,0.2589272276266785
2893.0,0.2555505425532014
2892.0,0.25219990913563106
2891.0,0.24879790541164692
2890.0,0.24519314464557662
2889.0,0.241315150117559
2888.0,0.23739645043319646
2887.0,0.23351279376030587
2886.0,0.22951619056889205
2885.0,0.2252641174482466
2884.0,0.22076436832413648
2883.0,0.21616785661555893
2882.0,0.21176090261783198
2881.0,0.2074682380986923
2880.0,0.2032175882986922
2879.0,0.19893947015214453
2878.0,0.1944311824514442
2877.0,0.18983471545685027
2876.0,0.18528638730402336
2875.0,0.18104868835982724
2874.0,0.17711305216584927
2873.0,0.17353645090719882
2872.0,0.1701175535565067
2871.0,0.16672536070943655
2870.0,0.163359458427226
2869.0,0.15989390554324223
2868.0,0.1565803347950816
2867.0,0.1534154971019539
2866.0,0.15064201833870117
2865.0,0.14831368455757254
2864.0,0.1466060225493342
2863.0,0.1455724942121388
2862.0,0.14551177495556966
2861.0,0.14642345638035836
2860.0,0.14849704722945534
2859.0,0.15187248943212528
2858.0,0.15682953548010214
2857.0,0.16367588429324842
2856.0,0.17276000049435458
2855.0,0.1842894602110372
2854.0,0.19893947015214453
2853.0,0.21724080737600282
2852.0,0.2399546720341894
2851.0,0.2670436304243753
2850.0,0.2974833025618495
2849.0,0.32845691473742633
2848.0,0.35585694949008095
2847.0,0.37509939779550994
2846.0,0.3835244861114344
2845.0,0.38153350780091966
2844.0,0.3719177390093207
2843.0,0.3583276267753135
2842.0,0.34313550845108276
2841.0,0.3279945549770482
2840.0,0.3137213219327988
2839.0,0.3005959181846627
2838.0,0.2886990400838343
2837.0,0.27785987454258443
2836.0,0.2681695797118375
2835.0,0.2594794139463352
2834.0,0.25173442733125917
2833.0,0.24488773360492888
2832.0,0.23874892569133732
2831.0,0.23321548450214102
2830.0,0.22826557461323072
2829.0,0.22366209037982476
2828.0,0.2194666746835956
2827.0,0.21566805197785177
2826.0,0.2122562283535332
2825.0,0.20915209603456808
2824.0,0.20627944318647673
2823.0,0.20349504844670374
2822.0,0.200797343699475
2821.0,0.1981848314185628
2820.0,0.19579239491795852
2819.0,0.19368433019188647
2818.0,0.19185657423850877
2817.0,0.19010375339756092
2816.0,0.18829097330380895
2815.0,0.18648572845811695
2814.0,0.18482086986058133
2813.0,0.1832285876666535
2812.0,0.1818401136028147
2811.0,0.180587688790675
2810.0,0.17933886535640453
2809.0,0.17809362264767703
2808.0,0.17678668671733244
2807.0,0.1754186237665174
2806.0,0.17418455501479646
2805.0,0.1730186630880064
2804.0,0.17204947169736973
2803.0,0.1711468403233598
2802.0,0.17018181256112253
2801.0,0.16909070045355667
2800.0,0.16813022571949832
2799.0,0.16717187046064663
2798.0,0.16640670600154372
2797.0,0.16564288728159493
2796.0,0.16488040957545036
2795.0,0.16405589990615188
2794.0,0.16323295260579473
2793.0,0.16234844215360744
2792.0,0.1614027471833437
2791.0,0.1605219526258017
2790.0,0.15970566838856382
2789.0,0.15914144595812063
2788.0,0.158765704493959
2787.0,0.1583902878315646
2786.0,0.15789023655938994
2785.0,0.15726598105173029
2784.0,0.15645578805436489
2783.0,0.15570925674565683
2782.0,0.1550260618531123
2781.0,0.15440590683997568
2780.0,0.1538485234711846
2779.0,0.15323004646278116
2778.0,0.15261244897260462
2777.0,0.1519957285027318
2776.0,0.1514414278762366
2775.0,0.15101079374883275
2774.0,0.15064201833870117
2773.0,0.15033494452126717
2772.0,0.1499667423102311
2771.0,0.14953756723848333
2770.0,0.1490476002065071
2769.0,0.14855818532794496
2768.0,0.1480693213597324
2767.0,0.14764201633217278
2766.0,0.1472151313194523
2765.0,0.146788665496683
2764.0,0.14642345638035836
2763.0,0.14605855411951008
2762.0,0.1455724942121388
2761.0,0.14496568332411575
2760.0,0.14448084433219988
2759.0,0.14417809459397013
2758.0,0.143996546002779
2757.0,0.1438755557576996
2756.0,0.14375459920994582
2755.0,0.14369413356670102
2754.0,0.14357322752975565
2753.0,0.14333151638846497
2752.0,0.14302956651750764
2751.0,0.14266750356873148
2750.0,0.14230574221345038
2749.0,0.141884067809934
2748.0,0.1414628024303608
2747.0,0.1410419452819942
2746.0,0.14068153490288382
2745.0,0.1404414273739465
2744.0,0.14026143380285316
2743.0,0.1402014525194344
2742.0,0.14002155835797914
2741.0,0.13984173868172167
2740.0,0.13960209487268727
2739.0,0.13948232253825377
2738.0,0.13948232253825377
2737.0,0.13954220457652888
2736.0,0.13948232253825377
2735.0,0.13930272594796111
2734.0,0.1390633792999063
2733.0,0.1387643813659596
2732.0,0.1385253311428314
2731.0,0.13822670328130693
2730.0,0.13786862068696282
2729.0,0.1374512304752069
2728.0,0.13715334001706125
2727.0,0.1369151746796402
2726.0,0.1367961409713705
2725.0,0.1366771398795441
2724.0,0.13661765155921235
2723.0,0.13649869935854997
2722.0,0.13643923547375736
2721.0,0.1363797797296844
2720.0,0.13626089265478303
2719.0,0.1360826230421397
2718.0,0.13590442657575252
2717.0,0.13572630319562085
2716.0,0.13554825284181704
2715.0,0.13537027545448765
2714.0,0.13519237097385295
2713.0,0.1350738084609946
2712.0,0.13489602535887202
2711.0,0.1345998818206986
2710.0,0.13430394008392943
2709.0,0.13406733180681396
2708.0,0.1340081998737246
2707.0,0.1341264717921853
2706.0,0.13418561983203192
2705.0,0.13406733180681396
2704.0,0.1337717526203528
2703.0,0.13329924395750092
2702.0,0.13294519952329842
2701.0,0.13265038281120756
2700.0,0.13247358880025661
2699.0,0.13229686672990226
2698.0,0.132179091954427
2697.0,0.132179091954427
2696.0,0.1322379753497993
2695.0,0.13241467345296387
2694.0,0.13241467345296387
2693.0,0.13235576609690147
2692.0,0.132179091954427
2691.0,0.1320613491092153
2690.0,0.13194363817695853
2689.0,0.13182595914036166
2688.0,0.1316495003520317
2687.0,0.1314731132317961
2686.0,0.13141433344123432
2685.0,0.13141433344123432
2684.0,0.1314731132317961
2683.0,0.1314731132317961
2682.0,0.13141433344123432
2681.0,0.13135556160517425
2680.0,0.1312967977214634
2679.0,0.13123804178794973
2678.0,0.13123804178794973
2677.0,0.13123804178794973
2676.0,0.1311205537629121
2675.0,0.13100309751286465
2674.0,0.1308856730206247
2673.0,0.13094438129809216
2672.0,0.1311205537629121
2671.0,0.1312967977214634
2670.0,0.13135556160517425
2669.0,0.13123804178794973
2668.0,0.13100309751286465
2667.0,0.13076828026902376
2666.0,0.1305922506177981
2665.0,0.1305922506177981
2664.0,0.1306509192409071
2663.0,0.1306509192409071
2662.0,0.1304749371427727
2661.0,0.1302990263261221
2660.0,0.13012318673323353
2659.0,0.13012318673323353
2658.0,0.13018179202067182
2657.0,0.1302990263261221
2656.0,0.1302990263261221
2655.0,0.1302990263261221
2654.0,0.1302990263261221
2653.0,0.13018179202067182
2652.0,0.13000599987825812
2651.0,0.12983027886355947
2650.0,0.12965462891904034
2649.0,0.12953756841108
2648.0,0.12953756841108
2647.0,0.1294790499872358
2646.0,0.1294790499872358
2645.0,0.12953756841108
2644.0,0.1295960947209729
2643.0,0.12971317100740865
2642.0,0.12971317100740865
2641.0,0.12965462891904034
2640.0,0.1295960947209729
2639.0,0.1294790499872358
2638.0,0.12936203678919433
2637.0,0.12924505510985984
2636.0,0.12918657608440243
2635.0,0.12918657608440243
2634.0,0.12912810493225724
2633.0,0.1290696416513042
2632.0,0.12895273869450063
2631.0,0.12889429901441463
2630.0,0.12895273869450063
2629.0,0.1290696416513042
2628.0,0.12912810493225724
2627.0,0.12912810493225724
2626.0,0.12901118623942476
2625.0,0.12889429901441463
2624.0,0.1287190271420271
2623.0,0.12854382597704617
2622.0,0.1283103343144847
2621.0,0.12819363554127072
2620.0,0.1280769681176266
2619.0,0.1280769681176266
2618.0,0.1280769681176266
2617.0,0.12796033202671375
2616.0,0.1277271537757949
2615.0,0.1275523522109867
2614.0,0.12743585690934855
2613.0,0.1275523522109867
2612.0,0.1277271537757949
2611.0,0.12790202572577325
2610.0,0.12796033202671375
2609.0,0.12790202572577325
2608.0,0.12784372725170723
2607.0,0.1277271537757949
2606.0,0.12761061158217912
2605.0,0.1275523522109867
2604.0,0.12749410065407507
2603.0,0.12737762097471172
2602.0,0.12731939284807026
2601.0,0.12720296001040166
2600.0,0.12714475529518965
2599.0,0.1270865583796048
2598.0,0.12702836926155658
2597.0,0.1270865583796048
2596.0,0.12714475529518965
2595.0,0.12726117252733116
2594.0,0.12726117252733116
2593.0,0.12726117252733116
2592.0,0.12720296001040166
2591.0,0.1270865583796048
2590.0,0.12691201440971422
2589.0,0.12667939818460128
2588.0,0.12650501774383094
2587.0,0.12650501774383094
2586.0,0.12667939818460128
2585.0,0.12685384867174432
2584.0,0.12691201440971422
2583.0,0.12691201440971422
2582.0,0.12667939818460128
2581.0,0.12644690648638135
2580.0,0.12621453918179926
2579.0,0.126156466776564
2578.0,0.12621453918179926
2577.0,0.12621453918179926
2576.0,0.1260984021355387
2575.0,0.12592425477696523
2574.0,0.12575017722159698
2573.0,0.12563416426995122
2572.0,0.12575017722159698
2571.0,0.12586622117202761
2570.0,0.12604034525664676
2569.0,0.1260984021355387
2568.0,0.12604034525664676
2567.0,0.12592425477696523
2566.0,0.12575017722159698
2565.0,0.12563416426995122
2564.0,0.12551818230053358
2563.0,0.12546020292898974
2562.0,0.12540223129680017
2561.0,0.12534426740189897
2560.0,0.12534426740189897
2559.0,0.12546020292898974
2558.0,0.12551818230053358
2557.0,0.12551818230053358
2556.0,0.12546020292898974
2555.0,0.12534426740189897
2554.0,0.1252863112422209
2553.0,0.1252863112422209
2552.0,0.12534426740189897
2551.0,0.12534426740189897
2550.0,0.12540223129680017
2549.0,0.12546020292898974
2548.0,0.12546020292898974
2547.0,0.12546020292898974
2546.0,0.12534426740189897
2545.0,0.12522836281570182
2544.0,0.1251124891538875
2543.0,0.1249387366082999
2542.0,0.12476505354983503
2541.0,0.12476505354983503
2540.0,0.12482294018529605
2539.0,0.1249387366082999
2538.0,0.1249387366082999
2537.0,0.12476505354983503
2536.0,0.12453358413361437
2535.0,0.1244757360506914
2534.0,0.12453358413361437
2533.0,0.12470717462899183
2532.0,0.1248808345374317
2531.0,0.125054563914468
2530.0,0.1251124891538875
2529.0,0.125054563914468
2528.0,0.1248808345374317
2527.0,0.12470717462899183
2526.0,0.12453358413361437
2525.0,0.12436006299583169
2524.0,0.12424442074194553
2523.0,0.12424442074194553
2522.0,0.12424442074194553
2521.0,0.12418661116024232
2520.0,0.12412880927263426
2519.0,0.12407101507707297
2518.0,0.12412880927263426
2517.0,0.12424442074194553
2516.0,0.12436006299583169
2515.0,0.12441789567211425
2514.0,0.12441789567211425
2513.0,0.12436006299583169
2512.0,0.12436006299583169
2511.0,0.12441789567211425
2510.0,0.12441789567211425
2509.0,0.12436006299583169
2508.0,0.12424442074194553
2507.0,0.12407101507707297
2506.0,0.12395544975390482
2505.0,0.12389767862220635
2504.0,0.12395544975390482
2503.0,0.12407101507707297
2502.0,0.12418661116024232
2501.0,0.12424442074194553
2500.0,0.12430223801979201
2499.0,0.12430223801979201
2498.0,0.12430223801979201
2497.0,0.12424442074194553
2496.0,0.12418661116024232
2495.0,0.12407101507707297
2494.0,0.12395544975390482
2493.0,0.12407101507707297
2492.0,0.12424442074194553
2491.0,0.1244757360506914
2490.0,0.12459143992293642
2489.0,0.1244757360506914
2488.0,0.12430223801979201
2487.0,0.12407101507707297
2486.0,0.12401322857151209
2485.0,0.12401322857151209
2484.0,0.12401322857151209
2483.0,0.12401322857151209
2482.0,0.12395544975390482
2481.0,0.12395544975390482
2480.0,0.12395544975390482
2479.0,0.12401322857151209
2478.0,0.12412880927263426
2477.0,0.12424442074194553
2476.0,0.12430223801979201
2475.0,0.12430223801979201
2474.0,0.12424442074194553
2473.0,0.12412880927263426
2472.0,0.12407101507707297
2471.0,0.12412880927263426
2470.0,0.12407101507707297
2469.0,0.12395544975390482
2468.0,0.12383991517437187
2467.0,0.12372441132212098
2466.0,0.12372441132212098
2465.0,0.12378215940835768
2464.0,0.12389767862220635
2463.0,0.12389767862220635
2462.0,0.12389767862220635
2461.0,0.12395544975390482
2460.0,0.12412880927263426
2459.0,0.12424442074194553
2458.0,0.12430223801979201
2457.0,0.12418661116024232
2456.0,0.12407101507707297
2455.0,0.12401322857151209
2454.0,0.12401322857151209
2453.0,0.12395544975390482
2452.0,0.12395544975390482
2451.0,0.12395544975390482
2450.0,0.12401322857151209
2449.0,0.12412880927263426
2448.0,0.12412880927263426
2447.0,0.12412880927263426
2446.0,0.12412880927263426
2445.0,0.12407101507707297
2444.0,0.12401322857151209
2443.0,0.12401322857151209
2442.0,0.12401322857151209
2441.0,0.12412880927263426
2440.0,0.12418661116024232
2439.0,0.12418661116024232
2438.0,0.12418661116024232
2437.0,0.12424442074194553
2436.0,0.12436006299583169
2435.0,0.12441789567211425
2434.0,0.12436006299583169
2433.0,0.12412880927263426
2432.0,0.12395544975390482
2431.0,0.12395544975390482
2430.0,0.12407101507707297
2429.0,0.12418661116024232
2428.0,0.12424442074194553
2427.0,0.12430223801979201
2426.0,0.12436006299583169
2425.0,0.12441789567211425
2424.0,0.1244757360506914
2423.0,0.1244757360506914
2422.0,0.12453358413361437
2421.0,0.12459143992293642
2420.0,0.12464930342071079
2419.0,0.12470717462899183
2418.0,0.12476505354983503
2417.0,0.12470717462899183
2416.0,0.12470717462899183
2415.0,0.12464930342071079
2414.0,0.12464930342071079
2413.0,0.12464930342071079
2412.0,0.12459143992293642
2411.0,0.12459143992293642
2410.0,0.12459143992293642
2409.0,0.12464930342071079
2408.0,0.12476505354983503
2407.0,0.12482294018529605
2406.0,0.12482294018529605
2405.0,0.12476505354983503
2404.0,0.12476505354983503
2403.0,0.12476505354983503
2402.0,0.1248808345374317
2401.0,0.124996646399959
2400.0,0.125054563914468
2399.0,0.125054563914468
2398.0,0.124996646399959
2397.0,0.1249387366082999
2396.0,0.124996646399959
2395.0,0.1251124891538875
2394.0,0.1251124891538875
2393.0,0.124996646399959
2392.0,0.12482294018529605
2391.0,0.12453358413361437
2390.0,0.12436006299583169
2389.0,0.12441789567211425
2388.0,0.1244757360506914
2387.0,0.12441789567211425
2386.0,0.12418661116024232
2385.0,0.12383991517437187
2384.0,0.12343578601615435
2383.0,0.12303203256741524
2382.0,0.12262865413022594
2381.0,0.12216810850710624
2380.0,0.12165057778222454
2379.0,0.12119106764079435
2378.0,0.12067469921519258
2377.0,0.12015894401343741
2376.0,0.11970100857424737
2375.0,0.11941504393502012
2374.0,0.11930071078129845
2373.0,0.11941504393502012
2372.0,0.11970100857424737
2371.0,0.11987267778337518
2370.0,0.11970100857424737
2369.0,0.11912926746757657
2368.0,0.11861534322942724
2367.0,0.11855827805860697
2366.0,0.1190150095132465
2365.0,0.11952940719622163
2364.0,0.11970100857424737
2363.0,0.11952940719622163
2362.0,0.11941504393502012
2361.0,0.12004441487725082
2360.0,0.12119106764079435
2359.0,0.12188051530283239
2358.0,0.12165057778222454
2357.0,0.12119106764079435
2356.0,0.12153565465853111
2355.0,0.12262865413022594
2354.0,0.12355121312165873
2353.0,0.12407101507707297
2352.0,0.1244757360506914
2351.0,0.1244757360506914
2350.0,0.12383991517437187
2349.0,0.12280148472821018
2348.0,0.12257105921178035
2347.0,0.12314735239865637
2346.0,0.12378215940835768
2345.0,0.12372441132212098
2344.0,0.12257105921178035
2343.0,0.12119106764079435
2342.0,0.1207893947082408
2341.0,0.12165057778222454
2340.0,0.12285911021517903
2339.0,0.12337808396572703
2338.0,0.1236666709136196
2337.0,0.12378215940835768
2336.0,0.12378215940835768
2335.0,0.12343578601615435
2334.0,0.12320502379929943
2333.0,0.12337808396572703
2332.0,0.12378215940835768
2331.0,0.12401322857151209
2330.0,0.12407101507707297
2329.0,0.12412880927263426
2328.0,0.12430223801979201
2327.0,0.1244757360506914
2326.0,0.12470717462899183
2325.0,0.12522836281570182
2324.0,0.12586622117202761
2323.0,0.12644690648638135
2322.0,0.12650501774383094
2321.0,0.1263307072932056
2320.0,0.126156466776564
2319.0,0.12644690648638135
2318.0,0.12702836926155658
2317.0,0.12743585690934855
2316.0,0.12749410065407507
2315.0,0.12720296001040166
2314.0,0.12679569072295926
2313.0,0.12656313677796316
2312.0,0.1263307072932056
2311.0,0.12621453918179926
2310.0,0.126156466776564
2309.0,0.12621453918179926
2308.0,0.1263307072932056
2307.0,0.12644690648638135
2306.0,0.12644690648638135
2305.0,0.12650501774383094
2304.0,0.12644690648638135
2303.0,0.12650501774383094
2302.0,0.12656313677796316
2301.0,0.12679569072295926
2300.0,0.12691201440971422
2299.0,0.12697018793895576
2298.0,0.12685384867174432
2297.0,0.12679569072295926
2296.0,0.12667939818460128
2295.0,0.126621263590859
2294.0,0.12656313677796316
2293.0,0.12667939818460128
2292.0,0.12691201440971422
2291.0,0.1270865583796048
2290.0,0.12720296001040166
2289.0,0.12726117252733116
2288.0,0.12737762097471172
2287.0,0.12743585690934855
2286.0,0.12749410065407507
2285.0,0.12761061158217912
2284.0,0.1277271537757949
2283.0,0.12778543660241448
2282.0,0.12778543660241448
2281.0,0.1277271537757949
2280.0,0.1276688787697493
2279.0,0.12749410065407507
2278.0,0.12737762097471172
2277.0,0.12731939284807026
2276.0,0.12737762097471172
2275.0,0.12749410065407507
2274.0,0.12749410065407507
2273.0,0.12743585690934855
2272.0,0.12731939284807026
2271.0,0.12731939284807026
2270.0,0.12737762097471172
2269.0,0.12737762097471172
2268.0,0.12743585690934855
2267.0,0.12743585690934855
2266.0,0.12743585690934855
2265.0,0.12743585690934855
2264.0,0.12743585690934855
2263.0,0.12743585690934855
2262.0,0.12743585690934855
2261.0,0.12743585690934855
2260.0,0.12737762097471172
2259.0,0.12726117252733116
2258.0,0.12714475529518965
2257.0,0.12714475529518965
2256.0,0.12726117252733116
2255.0,0.12749410065407507
2254.0,0.12784372725170723
2253.0,0.1281352979118051
2252.0,0.12836869546244634
2251.0,0.12842706445412122
2250.0,0.1282519810081284
2249.0,0.1280186461566306
2248.0,0.12784372725170723
2247.0,0.12784372725170723
2246.0,0.12778543660241448
2245.0,0.1277271537757949
2244.0,0.1277271537757949
2243.0,0.12778543660241448
2242.0,0.12784372725170723
2241.0,0.12778543660241448
2240.0,0.1277271537757949
2239.0,0.1276688787697493
2238.0,0.1277271537757949
2237.0,0.12784372725170723
2236.0,0.12796033202671375
2235.0,0.1280769681176266
2234.0,0.12819363554127072
2233.0,0.12819363554127072
2232.0,0.1282519810081284
2231.0,0.1283103343144847
2230.0,0.1284854412916181
2229.0,0.12866061890013913
2228.0,0.1287190271420271
2227.0,0.12866061890013913
2226.0,0.12854382597704617
2225.0,0.12842706445412122
2224.0,0.12836869546244634
2223.0,0.1283103343144847
2222.0,0.1282519810081284
2221.0,0.12819363554127072
2220.0,0.1282519810081284
2219.0,0.12836869546244634
2218.0,0.12854382597704617
2217.0,0.1286022185125162
2216.0,0.1286022185125162
2215.0,0.1284854412916181
2214.0,0.12836869546244634
2213.0,0.12842706445412122
2212.0,0.12854382597704617
2211.0,0.12866061890013913
2210.0,0.1287190271420271
2209.0,0.12866061890013913
2208.0,0.1286022185125162
2207.0,0.1286022185125162
2206.0,0.12866061890013913
2205.0,0.1287190271420271
2204.0,0.12877744324029283
2203.0,0.12877744324029283
2202.0,0.12877744324029283
2201.0,0.12883586719705065
2200.0,0.12883586719705065
2199.0,0.12883586719705065
2198.0,0.12877744324029283
2197.0,0.1287190271420271
2196.0,0.1287190271420271
2195.0,0.1287190271420271
2194.0,0.12877744324029283
2193.0,0.12877744324029283
2192.0,0.12883586719705065
2191.0,0.12889429901441463
2190.0,0.12889429901441463
2189.0,0.12895273869450063
2188.0,0.1290696416513042
2187.0,0.12918657608440243
2186.0,0.12936203678919433
2185.0,0.1294790499872358
2184.0,0.12953756841108
2183.0,0.12953756841108
2182.0,0.12942053944731513
2181.0,0.12936203678919433
2180.0,0.12930354201075
2179.0,0.12930354201075
2178.0,0.12936203678919433
2177.0,0.12942053944731513
2176.0,0.12942053944731513
2175.0,0.12936203678919433
2174.0,0.12924505510985984
2173.0,0.12924505510985984
2172.0,0.12930354201075
2171.0,0.12942053944731513
2170.0,0.1294790499872358
2169.0,0.12953756841108
2168.0,0.12953756841108
2167.0,0.12953756841108
2166.0,0.1295960947209729
2165.0,0.12971317100740865
2164.0,0.12983027886355947
2163.0,0.12994741830645506
2162.0,0.13006458935314003
2161.0,0.13012318673323353
2160.0,0.13024040521758962
2159.0,0.13035765534840538
2158.0,0.13035765534840538
2157.0,0.13024040521758962
2156.0,0.13018179202067182
2155.0,0.13018179202067182
2154.0,0.13024040521758962
2153.0,0.13024040521758962
2152.0,0.13024040521758962
2151.0,0.13018179202067182
2150.0,0.13018179202067182
2149.0,0.13012318673323353
2148.0,0.13006458935314003
2147.0,0.13006458935314003
2146.0,0.13018179202067182
2145.0,0.13035765534840538
2144.0,0.13053358991913355
2143.0,0.13070959579060148
2142.0,0.13070959579060148
2141.0,0.1306509192409071
2140.0,0.13053358991913355
2139.0,0.1304749371427727
2138.0,0.13041629228657614
2137.0,0.13041629228657614
2136.0,0.13041629228657614
2135.0,0.1304749371427727
2134.0,0.13053358991913355
2133.0,0.13053358991913355
2132.0,0.1304749371427727
2131.0,0.1304749371427727
2130.0,0.13053358991913355
2129.0,0.13076828026902376
2128.0,0.13100309751286465
2127.0,0.1311205537629121
2126.0,0.13106182166708868
2125.0,0.1308856730206247
2124.0,0.13076828026902376
2123.0,0.13076828026902376
2122.0,0.1308856730206247
2121.0,0.13106182166708868
2120.0,0.13123804178794973
2119.0,0.1312967977214634
2118.0,0.1312967977214634
2117.0,0.1312967977214634
2116.0,0.13123804178794973
2115.0,0.1311792938024825
2114.0,0.1311205537629121
2113.0,0.1311205537629121
2112.0,0.1311205537629121
2111.0,0.1311792938024825
2110.0,0.1311792938024825
2109.0,0.1311792938024825
2108.0,0.1311792938024825
2107.0,0.1312967977214634
2106.0,0.13135556160517425
2105.0,0.13141433344123432
2104.0,0.13135556160517425
2103.0,0.13135556160517425
2102.0,0.1312967977214634
2101.0,0.13123804178794973
2100.0,0.1311792938024825
2099.0,0.13123804178794973
2098.0,0.13135556160517425
2097.0,0.13153190097901324
2096.0,0.1316495003520317
2095.0,0.1316495003520317
2094.0,0.1316495003520317
2093.0,0.13176713157753506
2092.0,0.1318847946727828
2091.0,0.13200248965504868
2090.0,0.13212021654162043
2089.0,0.132179091954427
2088.0,0.1322379753497993
2087.0,0.132179091954427
2086.0,0.13212021654162043
2085.0,0.13200248965504868
2084.0,0.13194363817695853
2083.0,0.13200248965504868
2082.0,0.132179091954427
2081.0,0.13229686672990226
2080.0,0.13241467345296387
2079.0,0.13241467345296387
2078.0,0.13235576609690147
2077.0,0.13241467345296387
2076.0,0.13247358880025661
2075.0,0.1325325121409484
2074.0,0.13259144347720886
2073.0,0.13265038281120756
2072.0,0.13270933014511588
2071.0,0.13276828548110586
2070.0,0.13282724882135022
2069.0,0.13282724882135022
2068.0,0.13276828548110586
2067.0,0.13270933014511588
2066.0,0.13276828548110586
2065.0,0.13288622016802298
2064.0,0.13294519952329842
2063.0,0.13288622016802298
2062.0,0.13276828548110586
2061.0,0.13270933014511588
2060.0,0.13276828548110586
2059.0,0.13282724882135022
2058.0,0.13282724882135022
2057.0,0.13282724882135022
2056.0,0.13276828548110586
2055.0,0.13282724882135022
2054.0,0.13282724882135022
2053.0,0.13288622016802298
2052.0,0.13300418688935212
2051.0,0.1331221856625011
2050.0,0.13318119707395182
2049.0,0.13318119707395182
2048.0,0.13324021650489182
2047.0,0.13324021650489182
2046.0,0.13324021650489182
2045.0,0.13324021650489182
2044.0,0.13329924395750092
2043.0,0.13347637446715632
2042.0,0.13365357725039817
2041.0,0.13383085236622927
2040.0,0.13394907599072514
2039.0,0.13394907599072514
2038.0,0.13394907599072514
2037.0,0.13394907599072514
2036.0,0.1340081998737246
2035.0,0.1340081998737246
2034.0,0.13394907599072514
2033.0,0.13388996015562338
2032.0,0.13388996015562338
2031.0,0.13388996015562338
2030.0,0.13388996015562338
2029.0,0.13388996015562338
2028.0,0.13394907599072514
2027.0,0.1340081998737246
2026.0,0.1341264717921853
2025.0,0.13418561983203192
2024.0,0.13424477592854833
2023.0,0.13418561983203192
2022.0,0.13418561983203192
2021.0,0.13418561983203192
2020.0,0.13430394008392943
2019.0,0.13436311230037123
2018.0,0.13454067733803532
2017.0,0.13471831500438958
2016.0,0.13489602535887202
2015.0,0.1349552783069008
2014.0,0.13483678049391368
2013.0,0.134659094375416
2012.0,0.13448148092522594
2011.0,0.13442229258007088
2010.0,0.13448148092522594
2009.0,0.1345998818206986
2008.0,0.13471831500438958
2007.0,0.13483678049391368
2006.0,0.13489602535887202
2005.0,0.1349552783069008
2004.0,0.13501453934020602
2003.0,0.1350738084609946
2002.0,0.13501453934020602
2001.0,0.1349552783069008
2000.0,0.13489602535887202
1999.0,0.1349552783069008
1998.0,0.1349552783069008
1997.0,0.1349552783069008
1996.0,0.13489602535887202
1995.0,0.13471831500438958
1994.0,0.1345998818206986
1993.0,0.13448148092522594
1992.0,0.13454067733803532
1991.0,0.134659094375416
1990.0,0.13471831500438958
1989.0,0.13477754370982087
1988.0,0.13483678049391368
1987.0,0.13489602535887202
1986.0,0.1349552783069008
1985.0,0.13501453934020602
1984.0,0.13513308567147386
1983.0,0.13531096586314884
1982.0,0.13537027545448765
1981.0,0.13542959314656988
1980.0,0.13542959314656988
1979.0,0.13542959314656988
1978.0,0.1354889189416082
1977.0,0.1354889189416082
1976.0,0.1354889189416082
1975.0,0.1354889189416082
1974.0,0.13542959314656988
1973.0,0.1354889189416082
1972.0,0.13554825284181704
1971.0,0.13560759484941132
1970.0,0.13566694496660703
1969.0,0.13566694496660703
1968.0,0.13566694496660703
1967.0,0.13560759484941132
1966.0,0.13560759484941132
1965.0,0.13566694496660703
1964.0,0.13578566953867033
1963.0,0.1360232160956132
1962.0,0.13626089265478303
1961.0,0.1363797797296844
1960.0,0.13649869935854997
1959.0,0.13649869935854997
1958.0,0.13643923547375736
1957.0,0.1363797797296844
1956.0,0.1363797797296844
1955.0,0.1363797797296844
1954.0,0.13632033212410222
1953.0,0.13620146131949973
1952.0,0.13620146131949973
1951.0,0.13632033212410222
1950.0,0.13649869935854997
1949.0,0.13661765155921235
1948.0,0.13661765155921235
1947.0,0.13655817138629134
1946.0,0.13643923547375736
1945.0,0.13632033212410222
1944.0,0.13632033212410222
1943.0,0.1363797797296844
1942.0,0.13643923547375736
1941.0,0.13655817138629134
1940.0,0.13655817138629134
1939.0,0.13649869935854997
1938.0,0.13649869935854997
1937.0,0.13649869935854997
1936.0,0.13649869935854997
1935.0,0.13661765155921235
1934.0,0.1366771398795441
1933.0,0.1367961409713705
1932.0,0.13685565374733244
1931.0,0.1369151746796402
1930.0,0.1369151746796402
1929.0,0.1369151746796402
1928.0,0.1369151746796402
1927.0,0.1369151746796402
1926.0,0.1369151746796402
1925.0,0.13685565374733244
1924.0,0.13685565374733244
1923.0,0.1369151746796402
1922.0,0.13697470377052956
1921.0,0.13709378643700187
1920.0,0.13721290176465573
1919.0,0.13739163603505822
1918.0,0.13751083309410284
1917.0,0.13763006287711765
1916.0,0.13768969004572962
1915.0,0.13768969004572962
1914.0,0.13774932540207496
1913.0,0.13768969004572962
1912.0,0.13763006287711765
1911.0,0.1374512304752069
1910.0,0.1374512304752069
1909.0,0.1375704438939911
1908.0,0.13768969004572962
1907.0,0.13786862068696282
1906.0,0.13792828062000573
1905.0,0.13798794874978348
1904.0,0.1381073096085541
1903.0,0.13816700234205515
1902.0,0.13828641242856565
1901.0,0.13834612978608907
1900.0,0.1384058553561347
1899.0,0.1384058553561347
1898.0,0.1384058553561347
1897.0,0.1384058553561347
1896.0,0.13846558914096208
1895.0,0.13858508136400327
1894.0,0.13864483980673992
1893.0,0.13870460647330418
1892.0,0.13864483980673992
1891.0,0.13858508136400327
1890.0,0.13846558914096208
1889.0,0.13846558914096208
1888.0,0.13846558914096208
1887.0,0.13846558914096208
1886.0,0.13846558914096208
1885.0,0.13846558914096208
1884.0,0.13858508136400327
1883.0,0.13858508136400327
1882.0,0.13858508136400327
1881.0,0.13858508136400327
1880.0,0.13858508136400327
1879.0,0.1385253311428314
1878.0,0.13846558914096208
1877.0,0.1385253311428314
1876.0,0.13864483980673992
1875.0,0.1387643813659596
1874.0,0.1388241644869712
1873.0,0.1388241644869712
1872.0,0.1387643813659596
1871.0,0.13864483980673992
1870.0,0.13846558914096208
1869.0,0.1384058553561347
1868.0,0.13846558914096208
1867.0,0.13846558914096208
1866.0,0.1384058553561347
1865.0,0.13846558914096208
1864.0,0.13858508136400327
1863.0,0.1387643813659596
1862.0,0.13900356324280416
1861.0,0.13924287691845794
1860.0,0.1394224487555844
1859.0,0.1394224487555844
1858.0,0.13924287691845794
1857.0,0.1390633792999063
1856.0,0.13894375542312654
1855.0,0.1388839558386048
1854.0,0.1388241644869712
1853.0,0.13894375542312654
1852.0,0.1390633792999063
1851.0,0.13924287691845794
1850.0,0.13936258322624528
1849.0,0.13936258322624528
1848.0,0.13930272594796111
1847.0,0.13924287691845794
1846.0,0.13936258322624528
1845.0,0.1396619934290062
1844.0,0.13990167030148193
1843.0,0.13984173868172167
1842.0,0.13960209487268727
1841.0,0.13948232253825377
1840.0,0.13948232253825377
1839.0,0.1394224487555844
1838.0,0.1394224487555844
1837.0,0.13948232253825377
1836.0,0.1397219002477652
1835.0,0.13984173868172167
1834.0,0.13984173868172167
1833.0,0.1396619934290062
1832.0,0.1394224487555844
1831.0,0.13918303613546223
1830.0,0.13900356324280416
1829.0,0.13900356324280416
1828.0,0.13912320359670227
1827.0,0.1394224487555844
1826.0,0.1396619934290062
1825.0,0.13978181533124334
1824.0,0.1399616101928065
1823.0,0.1400815147992842
1822.0,0.14014147951900724
1821.0,0.14014147951900724
1820.0,0.14014147951900724
1819.0,0.14014147951900724
1818.0,0.1402014525194344
1817.0,0.14032142337155173
1816.0,0.1405014418122239
1815.0,0.1405014418122239
1814.0,0.14038142122781938
1813.0,0.1402014525194344
1812.0,0.1402014525194344
1811.0,0.1402014525194344
1810.0,0.1402014525194344
1809.0,0.14026143380285316
1808.0,0.14032142337155173
1807.0,0.14026143380285316
1806.0,0.1402014525194344
1805.0,0.1402014525194344
1804.0,0.1402014525194344
1803.0,0.1402014525194344
1802.0,0.14026143380285316
1801.0,0.14032142337155173
1800.0,0.1405014418122239
1799.0,0.1404414273739465
1798.0,0.1402014525194344
1797.0,0.14002155835797914
1796.0,0.1399616101928065
1795.0,0.14002155835797914
1794.0,0.1400815147992842
1793.0,0.14014147951900724
1792.0,0.14026143380285316
1791.0,0.1404414273739465
1790.0,0.14056146454494378
1789.0,0.14086170270546927
1788.0,0.14122226269455074
1787.0,0.1414628024303608
1786.0,0.1415229581866595
1785.0,0.1415229581866595
1784.0,0.1414628024303608
1783.0,0.14128238513970826
1782.0,0.14116214857141451
1781.0,0.14116214857141451
1780.0,0.14122226269455074
1779.0,0.1413425159091921
1778.0,0.1414628024303608
1777.0,0.1415831222765116
1776.0,0.14164329470222659
1775.0,0.14176366457048695
1774.0,0.14182386201765573
1773.0,0.14176366457048695
1772.0,0.14176366457048695
1771.0,0.141884067809934
1770.0,0.14200450443907608
1769.0,0.14218522202899342
1768.0,0.1423660148499919
1767.0,0.14242629585250421
1766.0,0.1423660148499919
1765.0,0.1423660148499919
1764.0,0.1425468829647336
1763.0,0.14260718907909875
1762.0,0.14260718907909875
1761.0,0.14248658522331015
1760.0,0.14242629585250421
1759.0,0.14242629585250421
1758.0,0.1425468829647336
1757.0,0.14260718907909875
1756.0,0.14260718907909875
1755.0,0.14266750356873148
1754.0,0.1427278264359586
1753.0,0.1427881576831076
1752.0,0.14266750356873148
1751.0,0.1425468829647336
1750.0,0.1425468829647336
1749.0,0.14266750356873148
1748.0,0.14284849731250704
1747.0,0.1430899396992138
1746.0,0.14321071124668383
1745.0,0.14315032127482774
1744.0,0.1432711096171173
1743.0,0.14369413356670102
1742.0,0.14417809459397013
1741.0,0.14466259553045968
1740.0,0.14502632627358292
1739.0,0.14514763758216587
1738.0,0.1450869776921444
1737.0,0.14514763758216587
1736.0,0.14526898278605782
1735.0,0.14520830594601453
1734.0,0.14520830594601453
1733.0,0.1450869776921444
1732.0,0.1447838052666366
1731.0,0.14502632627358292
1730.0,0.14551177495556966
1729.0,0.14587621789883287
1728.0,0.14599776687301103
1727.0,0.1461193498754576
1726.0,0.14624096692523136
1725.0,0.14642345638035836
1724.0,0.14672777597931685
1723.0,0.14703230897118158
1722.0,0.1472151313194523
1721.0,0.14739803066176504
1720.0,0.14745901423020125
1719.0,0.1472760892087941
1718.0,0.1471541819850033
1717.0,0.14745901423020125
1716.0,0.1478861391502384
1715.0,0.14819148577176255
1714.0,0.14849704722945534
1713.0,0.14874165128092476
1712.0,0.148864004988426
1711.0,0.148864004988426
1710.0,0.14874165128092476
1709.0,0.14861933203440336
1708.0,0.14837479684669086
1707.0,0.14819148577176255
1706.0,0.1480693213597324
1705.0,0.14813039927023364
1704.0,0.1482525808667361
1703.0,0.14849704722945534
1702.0,0.148864004988426
1701.0,0.1489251947711132
1700.0,0.148864004988426
1699.0,0.14837479684669086
1698.0,0.14819148577176255
1697.0,0.1489251947711132
1696.0,0.14966014541652073
1695.0,0.1494762911210057
1694.0,0.14861933203440336
1693.0,0.14831368455757254
1692.0,0.14849704722945534
1691.0,0.14843591773651155
1690.0,0.14819148577176255
1689.0,0.14800825203784274
1688.0,0.14813039927023364
1687.0,0.14837479684669086
1686.0,0.14843591773651155
1685.0,0.1482525808667361
1684.0,0.14837479684669086
1683.0,0.14849704722945534
1682.0,0.14837479684669086
1681.0,0.14868048735125483
1680.0,0.1491088158640761
1679.0,0.1493537648169334
1678.0,0.1495988520028415
1677.0,0.14990540561329913
1676.0,0.1500894416985039
1675.0,0.1502121757623145
1674.0,0.15015080439474215
1673.0,0.14990540561329913
1672.0,0.14984407757790774
1671.0,0.14978275820161047
1670.0,0.14978275820161047
1669.0,0.1499667423102311
1668.0,0.15002808767114995
1667.0,0.15002808767114995
1666.0,0.15015080439474215
1665.0,0.1502121757623145
1664.0,0.1500894416985039
1663.0,0.15002808767114995
1662.0,0.15015080439474215
1661.0,0.1502121757623145
1660.0,0.15027355580367208
1659.0,0.1503963419175529
1658.0,0.15045774799498335
1657.0,0.1503963419175529
1656.0,0.15051916275601385
1655.0,0.15064201833870117
1654.0,0.15076490868527737
1653.0,0.15162611615539823
1652.0,0.15131834597604965
1651.0,0.14990540561329913
1650.0,0.14978275820161047
1649.0,0.1500894416985039
1648.0,0.1500894416985039
1647.0,0.15051916275601385
1646.0,0.15131834597604965
1645.0,0.1513798825658661
1644.0,0.15113378850522063
1643.0,0.1509493094304879
1642.0,0.15088783381542248
1641.0,0.15076490868527737
1640.0,0.15051916275601385
1639.0,0.15027355580367208
1638.0,0.1502121757623145
1637.0,0.15027355580367208
1636.0,0.15082636690117335
1635.0,0.1515645446685292
1634.0,0.1515029819096334
1633.0,0.15119529894819617
1632.0,0.15119529894819617
1631.0,0.15113378850522063
1630.0,0.1509493094304879
1629.0,0.15076490868527737
1628.0,0.15058058620310066
1627.0,0.15058058620310066
1626.0,0.1507034591652734
1625.0,0.15082636690117335
1624.0,0.15076490868527737
1623.0,0.15058058620310066
1622.0,0.1503963419175529
1621.0,0.15027355580367208
1620.0,0.1503963419175529
1619.0,0.15064201833870117
1618.0,0.15088783381542248
1617.0,0.15119529894819617
1616.0,0.15125681810431635
1615.0,0.15101079374883275
1614.0,0.15088783381542248
1613.0,0.1509493094304879
1612.0,0.15088783381542248
1611.0,0.1507034591652734
1610.0,0.15058058620310066
1609.0,0.15064201833870117
1608.0,0.15064201833870117
1607.0,0.15064201833870117
1606.0,0.15076490868527737
1605.0,0.15076490868527737
1604.0,0.1507034591652734
1603.0,0.15064201833870117
1602.0,0.1507034591652734
1601.0,0.15076490868527737
1600.0,0.15082636690117335
1599.0,0.15082636690117335
1598.0,0.15088783381542248
1597.0,0.15088783381542248
1596.0,0.15088783381542248
1595.0,0.15088783381542248
1594.0,0.1509493094304879
1593.0,0.15101079374883275
1592.0,0.1509493094304879
1591.0,0.15088783381542248
1590.0,0.15088783381542248
1589.0,0.15088783381542248
1588.0,0.15088783381542248
1587.0,0.1509493094304879
1586.0,0.15107228677292173
1585.0,0.15113378850522063
1584.0,0.15113378850522063
1583.0,0.15119529894819617
1582.0,0.15119529894819617
1581.0,0.15107228677292173
1580.0,0.15082636690117335
1579.0,0.15076490868527737
1578.0,0.15088783381542248
1577.0,0.1509493094304879
1576.0,0.1509493094304879
1575.0,0.15076490868527737
1574.0,0.15045774799498335
1573.0,0.15051916275601385
1572.0,0.15064201833870117
1571.0,0.15058058620310066
1570.0,0.15051916275601385
1569.0,0.1507034591652734
1568.0,0.15076490868527737
1567.0,0.15082636690117335
1566.0,0.15088783381542248
1565.0,0.15076490868527737
1564.0,0.15058058620310066
1563.0,0.15064201833870117
1562.0,0.15082636690117335
1561.0,0.15064201833870117
1560.0,0.14953756723848333
1559.0,0.14941502364796855
1558.0,0.15045774799498335
1557.0,0.15027355580367208
1556.0,0.15051916275601385
1555.0,0.15101079374883275
1554.0,0.15113378850522063
1553.0,0.15082636690117335
1552.0,0.15051916275601385
1551.0,0.15045774799498335
1550.0,0.15045774799498335
1549.0,0.15051916275601385
1548.0,0.15058058620310066
1547.0,0.15045774799498335
1546.0,0.15015080439474215
1545.0,0.1497214474819628
1544.0,0.14941502364796855
1543.0,0.14941502364796855
1542.0,0.14923127307111983
1541.0,0.1489251947711132
1540.0,0.14923127307111983
1539.0,0.14953756723848333
1538.0,0.1490476002065071
1537.0,0.14898639317633
1536.0,0.14923127307111983
1535.0,0.14929251462546267
1534.0,0.14917004015146906
1533.0,0.14917004015146906
1532.0,0.14929251462546267
1531.0,0.14923127307111983
1530.0,0.1490476002065071
1529.0,0.14880282382583943
1528.0,0.14855818532794496
1527.0,0.14843591773651155
1526.0,0.14819148577176255
1525.0,0.1478861391502384
1524.0,0.1475810070629986
1523.0,0.14739803066176504
1522.0,0.1472760892087941
1521.0,0.1472760892087941
1520.0,0.1472151313194523
1519.0,0.14697138528701026
1518.0,0.146788665496683
1517.0,0.14672777597931685
1516.0,0.14691047014813452
1515.0,0.1471541819850033
1514.0,0.1472151313194523
1513.0,0.1471541819850033
1512.0,0.14684956355215717
1511.0,0.14630178822382556
1510.0,0.1456939581989194
1509.0,0.14520830594601453
1508.0,0.14514763758216587
1507.0,0.1459369881335788
1506.0,0.14630178822382556
1505.0,0.14514763758216587
1504.0,0.14442027749828212
1503.0,0.14435971910985468
1502.0,0.14429916916456276
1501.0,0.14405705376768396
1500.0,0.14381507327283027
1499.0,0.14363367634075197
1498.0,0.14333151638846497
1497.0,0.14302956651750764
1496.0,0.14284849731250704
1495.0,0.1425468829647336
1494.0,0.14206473528057106
1493.0,0.14164329470222659
1492.0,0.14116214857141451
1491.0,0.14038142122781938
1490.0,0.13936258322624528
1489.0,0.13858508136400327
1488.0,0.1380476250785483
1487.0,0.1373320497714121
1486.0,0.13643923547375736
1485.0,0.13554825284181704
1484.0,0.134659094375416
1483.0,0.13371266091580503
1482.0,0.13241467345296387
1481.0,0.1308856730206247
1480.0,0.12942053944731513
1479.0,0.1282519810081284
1478.0,0.12731939284807026
1477.0,0.1276688787697493
1476.0,0.13141433344123432
1475.0,0.14056146454494378
1474.0,0.15639352807548912
1473.0,0.1785519809824696
1472.0,0.19935164463601196
1471.0,0.20859008433283988
1470.0,0.2085198839799991
1469.0,0.20669864638688495
1468.0,0.20620961530918125
1467.0,0.20718822875185294
1466.0,0.21027830601907826
1465.0,0.21774242633669827
1464.0,0.2299584456803314
1463.0,0.24245214653075609
1462.0,0.25041826513444065
1461.0,0.25266589038409504
1460.0,0.2498774732165998
1459.0,0.24321180123188202
1458.0,0.23477863369501928
1457.0,0.22731164531785852
1456.0,0.22235572230351508
1455.0,0.21910689131292105
1454.0,0.216739767127051
1453.0,0.21438547505317596
1452.0,0.2115487929765445
1451.0,0.20844969497266996
1450.0,0.20558166912585896
1449.0,0.2032175882986922
1448.0,0.20114226825251436
1447.0,0.1994203784308699
1446.0,0.1981162928747604
1445.0,0.19708951058096025
1444.0,0.1962698290254561
1443.0,0.19551981089400727
1442.0,0.19477108579657387
1441.0,0.1940236492824372
1440.0,0.19334527600813955
1439.0,0.19273564472389304
1438.0,0.1920592787845008
1437.0,0.19131649087103075
1436.0,0.19077707831057822
1435.0,0.19010375339756092
1434.0,0.18936429972446267
1433.0,0.1885590563258419
1432.0,0.18762148884580565
1431.0,0.18655245573517876
1430.0,0.1854860476317619
1429.0,0.18448866263723573
1428.0,0.18362611124763806
1427.0,0.18269912160667867
1426.0,0.1818401136028147
1425.0,0.18085105719286587
1424.0,0.17992996568767428
1423.0,0.17927323717616583
1422.0,0.1788141173911546
1421.0,0.17835548245778288
1420.0,0.17776651976115598
1419.0,0.17717835469689547
1418.0,0.17678668671733244
1417.0,0.1764605663431411
1416.0,0.17633018673186363
1415.0,0.17619984625012197
1414.0,0.17593928258134706
1413.0,0.17561379768122598
1412.0,0.17535358528164813
1411.0,0.17509352869788763
1410.0,0.17483362774345035
1409.0,0.1745089701205691
1408.0,0.17411970106382046
1407.0,0.17379557650074728
1406.0,0.17347169365934856
1405.0,0.173212761183708
1404.0,0.17314805217935603
1403.0,0.1730186630880064
1402.0,0.17282465170130723
1401.0,0.1724368887452763
1400.0,0.1718558926962137
1399.0,0.1714045436282976
1398.0,0.17121125181504682
1397.0,0.1711468403233598
1396.0,0.1711468403233598
1395.0,0.1712756728612086
1394.0,0.1714045436282976
1393.0,0.1714045436282976
1392.0,0.1712756728612086
1391.0,0.17101804599207693
1390.0,0.17076057185861093
1389.0,0.1705032502798176
1388.0,0.17037464664195068
1387.0,0.1704389437006073
1386.0,0.1704389437006073
1385.0,0.1704389437006073
1384.0,0.1705032502798176
1383.0,0.17082492608291244
1382.0,0.1714689933548985
1381.0,0.1725014918665413
1380.0,0.17373078060627378
1379.0,0.17502853887630665
1378.0,0.17619984625012197
1377.0,0.17698247655395072
1376.0,0.17730898922394545
1375.0,0.17730898922394545
1374.0,0.17730898922394545
1373.0,0.17737432122585917
1372.0,0.17743966305730785
1371.0,0.1775703762206431
1370.0,0.17776651976115598
1369.0,0.17809362264767703
1368.0,0.17842097208799124
1367.0,0.17868302940890257
1366.0,0.17887967622317635
1365.0,0.1788141173911546
1364.0,0.17861750025270084
1363.0,0.1785519809824696
1362.0,0.17861750025270084
1361.0,0.17861750025270084
1360.0,0.1784864715952268
1359.0,0.17829000270162365
1358.0,0.17822453281653639
1357.0,0.17815907279954568
1356.0,0.17815907279954568
1355.0,0.17822453281653639
1354.0,0.17842097208799124
1353.0,0.1785519809824696
1352.0,0.17868302940890257
1351.0,0.17887967622317635
1350.0,0.1791420105603001
1349.0,0.17927323717616583
1348.0,0.17927323717616583
1347.0,0.17920761891179637
1346.0,0.1791420105603001
1345.0,0.1791420105603001
1344.0,0.17907641211868253
1343.0,0.1789452449531117
1342.0,0.1788141173911546
1341.0,0.17874856845405884
1340.0,0.1788141173911546
1339.0,0.1791420105603001
1338.0,0.17953580942231584
1337.0,0.17973284283903546
1336.0,0.17973284283903546
1335.0,0.17960147729601839
1334.0,0.17953580942231584
1333.0,0.17947015147648027
1332.0,0.17940450345550985
1331.0,0.17947015147648027
1330.0,0.17953580942231584
1329.0,0.17966715510059017
1328.0,0.17979854051435984
1327.0,0.17999569319168218
1326.0,0.18019293540924397
1325.0,0.18025870272698952
1324.0,0.18019293540924397
1323.0,0.18019293540924397
1322.0,0.18025870272698952
1321.0,0.18039026724841478
1320.0,0.180587688790675
1319.0,0.18078520011761579
1318.0,0.18111458540599013
1317.0,0.18144422070219735
1316.0,0.1818401136028147
1315.0,0.18210424283820448
1314.0,0.18236853280948462
1313.0,0.18269912160667867
1312.0,0.18302996224270052
1311.0,0.18336105510153855
1310.0,0.18369240056806024
1309.0,0.18402399902801458
1308.0,0.1842894602110372
1307.0,0.18455508375564977
1306.0,0.18482086986058133
1305.0,0.18508681872492616
1304.0,0.18535293054814383
1303.0,0.185819018959813
1302.0,0.18635230465310326
1301.0,0.18668594105416525
1300.0,0.18688624599210146
1299.0,0.18708664335714453
1298.0,0.18742084459095332
1297.0,0.18768839086887623
1296.0,0.1879561020697733
1295.0,0.18809001957990112
1294.0,0.18809001957990112
1293.0,0.188023055663046
1292.0,0.188023055663046
1291.0,0.18809001957990112
1290.0,0.18822397839709626
1289.0,0.18842499412940672
1288.0,0.18869315991866387
1287.0,0.18882730493344568
1286.0,0.18896149139578422
1285.0,0.18909571933129965
1284.0,0.18922998876563635
1283.0,0.18936429972446267
1282.0,0.18956584407732735
1281.0,0.18970025895983111
1280.0,0.18983471545685027
1279.0,0.18990195931885712
1278.0,0.18983471545685027
1277.0,0.189767482004916
1276.0,0.18983471545685027
1275.0,0.18996921359416064
1274.0,0.19030564128307614
1273.0,0.19057497120296585
1272.0,0.19077707831057822
1271.0,0.19084446825281964
1270.0,0.19097927951632743
1269.0,0.19111413264018795
1268.0,0.1912490276504053
1267.0,0.19145144875959463
1266.0,0.19158644859963192
1265.0,0.1917214904172322
1264.0,0.19185657423850877
1263.0,0.1920592787845008
1262.0,0.19219446772937543
1261.0,0.19226207798589923
1260.0,0.19219446772937543
1259.0,0.19226207798589923
1258.0,0.19232969876951622
1257.0,0.19239733008350535
1256.0,0.19239733008350535
1255.0,0.19232969876951622
1254.0,0.19232969876951622
1253.0,0.19232969876951622
1252.0,0.19239733008350535
1251.0,0.19246497193114664
1250.0,0.19266796070880954
1249.0,0.1928033392890527
1248.0,0.1928033392890527
1247.0,0.19273564472389304
1246.0,0.19273564472389304
1245.0,0.1928033392890527
1244.0,0.192938760082761
1243.0,0.1930742231162681
1242.0,0.19327749692381868
1241.0,0.19327749692381868
1240.0,0.1932097284159331
1239.0,0.1930742231162681
1238.0,0.192938760082761
1237.0,0.1928033392890527
1236.0,0.19273564472389304
1235.0,0.19273564472389304
1234.0,0.19273564472389304
1233.0,0.19266796070880954
1232.0,0.19266796070880954
1231.0,0.19266796070880954
1230.0,0.19273564472389304
1229.0,0.19266796070880954
1228.0,0.19266796070880954
1227.0,0.19266796070880954
1226.0,0.19266796070880954
1225.0,0.19266796070880954
1224.0,0.19253262431572216
1223.0,0.19232969876951622
1222.0,0.1919917000896001
1221.0,0.19165396425960513
1220.0,0.19151894343404896
1219.0,0.19145144875959463
1218.0,0.19151894343404896
1217.0,0.19151894343404896
1216.0,0.19158644859963192
1215.0,0.19165396425960513
1214.0,0.19165396425960513
1213.0,0.19158644859963192
1212.0,0.19151894343404896
1211.0,0.19151894343404896
1210.0,0.19151894343404896
1209.0,0.19145144875959463
1208.0,0.191383964573008
1207.0,0.19131649087103075
1206.0,0.19131649087103075
1205.0,0.19145144875959463
1204.0,0.19158644859963192
1203.0,0.19165396425960513
1202.0,0.1917214904172322
1201.0,0.1917214904172322
1200.0,0.1917214904172322
1199.0,0.1917214904172322
1198.0,0.19158644859963192
1197.0,0.19145144875959463
1196.0,0.1912490276504053
1195.0,0.1912490276504053
1194.0,0.19145144875959463
1193.0,0.19165396425960513
1192.0,0.19178902707577805
1191.0,0.19178902707577805
1190.0,0.1917214904172322
1189.0,0.19165396425960513
1188.0,0.19158644859963192
1187.0,0.19165396425960513
1186.0,0.19178902707577805
1185.0,0.19192413190869306
1184.0,0.1920592787845008
1183.0,0.1921268679966679
1182.0,0.1919917000896001
1181.0,0.19185657423850877
1180.0,0.19165396425960513
1179.0,0.19158644859963192
1178.0,0.19158644859963192
1177.0,0.1917214904172322
1176.0,0.19185657423850877
1175.0,0.1920592787845008
1174.0,0.19226207798589923
1173.0,0.19226207798589923
1172.0,0.19219446772937543
1171.0,0.1919917000896001
1170.0,0.1917214904172322
1169.0,0.19165396425960513
1168.0,0.19165396425960513
1167.0,0.19178902707577805
1166.0,0.19192413190869306
1165.0,0.1919917000896001
1164.0,0.1920592787845008
1163.0,0.19219446772937543
1162.0,0.19232969876951622
1161.0,0.19253262431572216
1160.0,0.19253262431572216
1159.0,0.19239733008350535
1158.0,0.19232969876951622
1157.0,0.19226207798589923
1156.0,0.19232969876951622
1155.0,0.19246497193114664
1154.0,0.19246497193114664
1153.0,0.19246497193114664
1152.0,0.19253262431572216
1151.0,0.19266796070880954
1150.0,0.1928033392890527
1149.0,0.1928710444075783
1148.0,0.192938760082761
1147.0,0.1930742231162681
1146.0,0.1930742231162681
1145.0,0.19300648631789286
1144.0,0.19266796070880954
1143.0,0.19239733008350535
1142.0,0.19226207798589923
1141.0,0.19226207798589923
1140.0,0.19239733008350535
1139.0,0.1926002872405146
1138.0,0.1928710444075783
1137.0,0.1930742231162681
1136.0,0.1930742231162681
1135.0,0.192938760082761
1134.0,0.1928033392890527
1133.0,0.19273564472389304
1132.0,0.1928710444075783
1131.0,0.192938760082761
1130.0,0.192938760082761
1129.0,0.1928033392890527
1128.0,0.19266796070880954
1127.0,0.1926002872405146
1126.0,0.1926002872405146
1125.0,0.19246497193114664
1124.0,0.19239733008350535
1123.0,0.19239733008350535
1122.0,0.1926002872405146
1121.0,0.1928710444075783
1120.0,0.1932097284159331
1119.0,0.1935486767527379
1118.0,0.19368433019188647
1117.0,0.1935486767527379
1116.0,0.1932097284159331
1115.0,0.1928710444075783
1114.0,0.1928033392890527
1113.0,0.192938760082761
1112.0,0.19314197048118253
1111.0,0.19327749692381868
1110.0,0.19341306567219707
1109.0,0.1934808659192948
1108.0,0.1935486767527379
1107.0,0.1935486767527379
1106.0,0.19334527600813955
1105.0,0.19314197048118253
1104.0,0.19300648631789286
1103.0,0.19300648631789286
1102.0,0.1932097284159331
1101.0,0.19341306567219707
1100.0,0.19361649817583237
1099.0,0.19382002601611292
1098.0,0.1940236492824372
1097.0,0.19422736806433094
1096.0,0.1944311824514442
1095.0,0.1946350925335547
1094.0,0.19470308384201496
1093.0,0.19456711186786002
1092.0,0.19436323369406505
1091.0,0.1941594511853273
1090.0,0.19429529556613567
1089.0,0.19456711186786002
1088.0,0.1948390984005659
1087.0,0.19504320014250842
1086.0,0.19517932127883775
1085.0,0.19531548509305963
1084.0,0.19545169161194398
1083.0,0.19572423287090612
1082.0,0.19620159201032594
1081.0,0.19654288435158618
1080.0,0.19654288435158618
1079.0,0.1962698290254561
1078.0,0.19599694527038736
1077.0,0.19592875111433883
1076.0,0.19599694527038736
1075.0,0.1960651501361581
1074.0,0.19613336571501572
1073.0,0.19620159201032594
1072.0,0.19613336571501572
1071.0,0.19613336571501572
1070.0,0.1962698290254561
1069.0,0.19661117501638659
1068.0,0.1969527895088714
1067.0,0.19715788726092565
1066.0,0.19715788726092565
1065.0,0.19722627470802445
1064.0,0.19722627470802445
1063.0,0.19736308191718943
1062.0,0.19756837356927637
1061.0,0.1977052886025361
1060.0,0.19777376230892996
1059.0,0.1977052886025361
1058.0,0.19749993223560658
1057.0,0.19729467292564795
1056.0,0.19715788726092565
1055.0,0.19708951058096025
1054.0,0.19729467292564795
1053.0,0.19777376230892996
1052.0,0.19825338078053978
1051.0,0.1985276864785288
1050.0,0.19866490432545336
1049.0,0.198596289982645
1048.0,0.19845909380968174
1047.0,0.1983905119726812
1046.0,0.1983905119726812
1045.0,0.198596289982645
1044.0,0.1990081387398286
1043.0,0.1994203784308699
1042.0,0.19962664510865036
1041.0,0.19969542244380145
1040.0,0.19969542244380145
1039.0,0.19969542244380145
1038.0,0.19976421067264605
1037.0,0.19983300979863605
1036.0,0.19990181982522426
1035.0,0.19997064075586568
1034.0,0.200246033588114
1033.0,0.20045269287438483
1032.0,0.20065945054641832
1031.0,0.200521601162019
1030.0,0.20017716900668026
1029.0,0.20003947259401644
1028.0,0.20017716900668026
1027.0,0.20072839165012724
1026.0,0.20121128604875071
1025.0,0.20155653964981246
1024.0,0.2016256233184388
1023.0,0.2014874669686484
1022.0,0.20141840527145227
1021.0,0.20141840527145227
1020.0,0.2014874669686484
1019.0,0.2016256233184388
1018.0,0.20183294028406085
1017.0,0.20197120659592693
1016.0,0.20197120659592693
1015.0,0.20176382363206424
1014.0,0.20141840527145227
1013.0,0.20121128604875071
1012.0,0.20134935455473113
1011.0,0.2016256233184388
1010.0,0.20176382363206424
1009.0,0.20176382363206424
1008.0,0.20169471797802352
1007.0,0.20155653964981246
1006.0,0.2014874669686484
1005.0,0.20134935455473113
1004.0,0.20128031481499375
1003.0,0.20121128604875071
1002.0,0.20114226825251436
1001.0,0.20107326142279858
1000.0,0.2009352806489919
999.0,0.200797343699475
998.0,0.20072839165012724
997.0,0.20065945054641832
996.0,0.20059052038487324
995.0,0.20065945054641832
994.0,0.200797343699475
993.0,0.2010042655561186
992.0,0.20121128604875071
991.0,0.20134935455473113
990.0,0.2014874669686484
989.0,0.2014874669686484
988.0,0.2014874669686484
987.0,0.20141840527145227
986.0,0.20141840527145227
985.0,0.20141840527145227
984.0,0.20134935455473113
983.0,0.20128031481499375
982.0,0.20107326142279858
981.0,0.200797343699475
980.0,0.200521601162019
979.0,0.20038379551850105
978.0,0.20045269287438483
977.0,0.20059052038487324
976.0,0.200797343699475
975.0,0.2009352806489919
974.0,0.20107326142279858
973.0,0.20121128604875071
972.0,0.20128031481499375
971.0,0.20121128604875071
970.0,0.20114226825251436
969.0,0.20107326142279858
968.0,0.20107326142279858
967.0,0.20107326142279858
966.0,0.20114226825251436
965.0,0.20128031481499375
964.0,0.20155653964981246
963.0,0.20176382363206424
962.0,0.20190206793751408
961.0,0.20183294028406085
960.0,0.2016256233184388
959.0,0.2014874669686484
958.0,0.20141840527145227
957.0,0.2014874669686484
956.0,0.20155653964981246
955.0,0.2016256233184388
954.0,0.20190206793751408
953.0,0.20210951694165114
952.0,0.20217868863597643
951.0,0.20210951694165114
950.0,0.20197120659592693
949.0,0.20190206793751408
948.0,0.20197120659592693
947.0,0.20197120659592693
946.0,0.20204035626280392
945.0,0.20224787134928923
944.0,0.20259395032361804
943.0,0.20280173016104097
942.0,0.20294030530002893
941.0,0.20294030530002893
940.0,0.20300960945431368
939.0,0.20300960945431368
938.0,0.20307892466983124
937.0,0.20314825095011302
936.0,0.20328693671910347
935.0,0.2033562962148836
934.0,0.2033562962148836
933.0,0.2032175882986922
932.0,0.20294030530002893
931.0,0.20266319922465015
930.0,0.20238626984692432
929.0,0.20210951694165114
928.0,0.20197120659592693
927.0,0.20183294028406085
926.0,0.20183294028406085
925.0,0.20197120659592693
924.0,0.20224787134928923
923.0,0.20259395032361804
922.0,0.20294030530002893
921.0,0.2032175882986922
920.0,0.20328693671910347
919.0,0.20314825095011302
918.0,0.2028710122034474
917.0,0.20273245916928362
916.0,0.20280173016104097
915.0,0.20300960945431368
914.0,0.20328693671910347
913.0,0.20342566678957041
912.0,0.20356444118982564
911.0,0.2037726859705613
910.0,0.2040505010971967
909.0,0.20446755728984556
908.0,0.20467623567068616
907.0,0.20474581741911724
906.0,0.2046066650687106
905.0,0.2046066650687106
904.0,0.20474581741911724
903.0,0.20502425594886842
902.0,0.20530287310800133
901.0,0.20551195334083028
900.0,0.20558166912585896
899.0,0.20551195334083028
898.0,0.20551195334083028
897.0,0.20558166912585896
896.0,0.20579088365350362
895.0,0.20600019901552957
894.0,0.20620961530918125
893.0,0.20641913263184408
892.0,0.20662875108104428
891.0,0.20676855294347907
890.0,0.20662875108104428
889.0,0.20648899420714217
888.0,0.2065588670223364
887.0,0.2069083998234198
886.0,0.20732821085843267
885.0,0.2076083105017461
884.0,0.2076783636484265
883.0,0.20774842809673588
882.0,0.20781850385032108
881.0,0.208028798979232
880.0,0.2083093509798819
879.0,0.20859008433283988
878.0,0.2087305190897315
877.0,0.20866029603486047
876.0,0.20859008433283988
875.0,0.20844969497266996
874.0,0.20844969497266996
873.0,0.2085198839799991
872.0,0.2085198839799991
871.0,0.20837951730718585
870.0,0.2081690523251638
869.0,0.20809891999042884
868.0,0.20837951730718585
867.0,0.2090818047854217
866.0,0.20964445358561346
865.0,0.20971483596675822
864.0,0.2093630380682967
863.0,0.2090818047854217
862.0,0.2088709992727138
861.0,0.2088007535011247
860.0,0.20859008433283988
859.0,0.20837951730718585
858.0,0.20823919598709506
857.0,0.20823919598709506
856.0,0.2083093509798819
855.0,0.2083093509798819
854.0,0.2081690523251638
853.0,0.208028798979232
852.0,0.20788859091283163
851.0,0.20781850385032108
850.0,0.20781850385032108
849.0,0.20781850385032108
848.0,0.208028798979232
847.0,0.20844969497266996
846.0,0.2090818047854217
845.0,0.20978522975602076
844.0,0.2100669190682496
843.0,0.20978522975602076
842.0,0.20915209603456808
841.0,0.20859008433283988
840.0,0.20837951730718585
839.0,0.20837951730718585
838.0,0.2085198839799991
837.0,0.20866029603486047
836.0,0.2087305190897315
835.0,0.20859008433283988
834.0,0.20837951730718585
833.0,0.20823919598709506
832.0,0.20837951730718585
831.0,0.20866029603486047
830.0,0.20901152491118413
829.0,0.20943337485392344
828.0,0.20992605157369537
827.0,0.21041928783557462
826.0,0.2107013888405589
825.0,0.21077194273266486
824.0,0.21063084640851826
823.0,0.21063084640851826
822.0,0.21091308491197136
821.0,0.21140744407964052
820.0,0.21190236661970263
819.0,0.21204387671606817
818.0,0.21183162885883222
817.0,0.2115487929765445
816.0,0.21140744407964052
815.0,0.21140744407964052
814.0,0.21140744407964052
813.0,0.21140744407964052
812.0,0.21161948468043668
811.0,0.2119731159041962
810.0,0.21232703531250707
809.0,0.21246868387276563
808.0,0.21232703531250707
807.0,0.2121146490590755
806.0,0.21190236661970263
805.0,0.21190236661970263
804.0,0.2121146490590755
803.0,0.21253952548158495
802.0,0.21275211966804597
801.0,0.21275211966804597
800.0,0.21246868387276563
799.0,0.2121146490590755
798.0,0.21183162885883222
797.0,0.21183162885883222
796.0,0.2121146490590755
795.0,0.21246868387276563
794.0,0.21282300752944616
793.0,0.21310667473868428
792.0,0.21324857785443885
791.0,0.21324857785443885
790.0,0.2133195468033513
789.0,0.2135325232597176
788.0,0.21388771628017356
787.0,0.21395878975744576
786.0,0.2135325232597176
785.0,0.21282300752944616
784.0,0.21232703531250707
783.0,0.212185432936977
782.0,0.212185432936977
781.0,0.2121146490590755
780.0,0.2121146490590755
779.0,0.21239785381766252
778.0,0.2128939069634299
777.0,0.21339052735134012
776.0,0.21367456560992992
775.0,0.21367456560992992
774.0,0.21324857785443885
773.0,0.21275211966804597
772.0,0.2126103786478899
771.0,0.2128939069634299
770.0,0.21324857785443885
769.0,0.2133195468033513
768.0,0.21310667473868428
767.0,0.2128939069634299
766.0,0.21275211966804597
765.0,0.21253952548158495
764.0,0.212185432936977
763.0,0.21183162885883222
762.0,0.21176090261783198
761.0,0.2121146490590755
760.0,0.2126103786478899
759.0,0.2128939069634299
758.0,0.21275211966804597
757.0,0.2119731159041962
756.0,0.21126614117229248
755.0,0.2108425080885603
754.0,0.21091308491197136
753.0,0.21133678687914248
752.0,0.21176090261783198
751.0,0.21190236661970263
750.0,0.2115487929765445
749.0,0.2108425080885603
748.0,0.2102078322693246
747.0,0.20978522975602076
746.0,0.20950372303289044
745.0,0.2090818047854217
744.0,0.2083093509798819
743.0,0.20725821416525125
742.0,0.20613979865733034
741.0,0.20509389348319607
740.0,0.20418947533259169
739.0,0.20342566678957041
738.0,0.20231706508510094
737.0,0.20065945054641832
736.0,0.1985276864785288
735.0,0.19640633522865558
734.0,0.19592875111433883
733.0,0.19914550849643908
732.0,0.20753826865304936
731.0,0.22011503680735567
730.0,0.2327699018892817
729.0,0.24070996697569602
728.0,0.24222450898807435
727.0,0.23927602785804836
726.0,0.23552497256559102
725.0,0.23291837863667775
724.0,0.23217650199248308
723.0,0.23395913961861092
722.0,0.2397283394579368
721.0,0.2512694439015055
720.0,0.2677671197795022
719.0,0.2846653162076871
718.0,0.29593532059143257
717.0,0.29903682184045066
716.0,0.295249095709329
715.0,0.28777133038046476
714.0,0.2795925991968915
713.0,0.2723774220308628
712.0,0.26656197290893857
711.0,0.2620920766253614
710.0,0.2583757424961879
709.0,0.255237762934422
708.0,0.25266589038409504
707.0,0.2508049577803275
706.0,0.2494144726589913
705.0,0.24795155218056153
704.0,0.24618721643529784
703.0,0.24435378054332002
702.0,0.24275584897802993
701.0,0.2414665777627134
700.0,0.24040769135402518
699.0,0.23957751657678794
698.0,0.23889946104185777
697.0,0.23837281543841726
696.0,0.2377717157135255
695.0,0.23717144681090963
694.0,0.2363474294354697
693.0,0.23537560214901854
692.0,0.2344059446805551
691.0,0.23388471677858602
690.0,0.2341080235699846
689.0,0.23448045690204733
688.0,0.23455498190985002
687.0,0.23418248469008174
686.0,0.23351279376030587
685.0,0.2326956825467268
684.0,0.2316579413554667
683.0,0.2306965398109182
682.0,0.22973726182940668
681.0,0.22870655737094037
680.0,0.2277516600281464
679.0,0.22709180502872828
678.0,0.22687207596666514
677.0,0.22687207596666514
676.0,0.22665245801917688
675.0,0.22628667472297836
674.0,0.22577509513108107
673.0,0.2251182341812037
672.0,0.2243167509739561
671.0,0.22409842110832567
670.0,0.2251911696892941
669.0,0.22819212100089437
668.0,0.23077041826340627
667.0,0.2303273359445075
666.0,0.22892721677880523
665.0,0.2274582673590566
664.0,0.22562904015008334
663.0,0.22395292881822026
662.0,0.2225731776106885
661.0,0.22184874961635637
660.0,0.2216316566441261
659.0,0.221921138062545
658.0,0.2225731776106885
657.0,0.2229358452575705
656.0,0.22228326139037402
655.0,0.2206199885083442
654.0,0.21896306137886823
653.0,0.2181010806488508
652.0,0.2178141335079835
651.0,0.21774242633669827
650.0,0.2178141335079835
649.0,0.2182446253475312
648.0,0.2183882175068499
647.0,0.2173840679683965
646.0,0.21545402594547736
645.0,0.21381665443236653
644.0,0.2135325232597176
643.0,0.21467016498923286
642.0,0.2166682371125761
641.0,0.21889116427053357
640.0,0.2216316566441261
639.0,0.2251182341812037
638.0,0.22958986848609375
637.0,0.23485320989197467
636.0,0.24063437834407142
635.0,0.24565166428898122
634.0,0.24756739073852607
633.0,0.2448114143916751
632.0,0.23822246249182188
631.0,0.23106605781321843
630.0,0.2259942697417905
629.0,0.22395292881822026
628.0,0.22388020094701222
627.0,0.2240256688706308
626.0,0.2234440892967382
625.0,0.222500680409635
624.0,0.22184874961635637
623.0,0.22170400891116615
622.0,0.221921138062545
621.0,0.222500680409635
620.0,0.2231535913047007
619.0,0.2231535913047007
618.0,0.22148698826107527
617.0,0.21853185715820178
616.0,0.2158107946190393
615.0,0.2145989750076125
614.0,0.2150975501133452
613.0,0.21688286250953293
612.0,0.21975471613464737
611.0,0.2229358452575705
610.0,0.2252641174482466
609.0,0.22570206150072258
608.0,0.2243895519936392
607.0,0.2225731776106885
606.0,0.22119779598676126
605.0,0.22054781659593825
604.0,0.22069217241641415
603.0,0.22119779598676126
602.0,0.22155931642876725
601.0,0.22054781659593825
600.0,0.21795758337944582
