cm-1,A
4000.0,0.009261671492462709
3999.0,0.009261671492462709
3998.0,0.009306039320248427
3997.0,0.009306039320248427
3996.0,0.009306039320248427
3995.0,0.009350411681145587
3994.0,0.009306039320248427
3993.0,0.009350411681145587
3992.0,0.00939478857608056
3991.0,0.009439170005980158
3990.0,0.009483555971770974
3989.0,0.009483555971770974
3988.0,0.009527946474380489
3987.0,0.009572341514736404
3986.0,0.00966114521239847
3985.0,0.009705553871561357
3984.0,0.00974996707218323
3983.0,0.009794384815193347
3982.0,0.00974996707218323
3981.0,0.009705553871561357
3980.0,0.009616741093766423
3979.0,0.009483555971770974
3978.0,0.009350411681145587
3977.0,0.009306039320248427
3976.0,0.009350411681145587
3975.0,0.009439170005980158
3974.0,0.009483555971770974
3973.0,0.009527946474380489
3972.0,0.009439170005980158
3971.0,0.009350411681145587
3970.0,0.009261671492462709
3969.0,0.009217308196862062
3968.0,0.009217308196862062
3967.0,0.009172949432521227
3966.0,0.009172949432521227
3965.0,0.009172949432521227
3964.0,0.009261671492462709
3963.0,0.009350411681145587
3962.0,0.009483555971770974
3961.0,0.009572341514736404
3960.0,0.00966114521239847
3959.0,0.009794384815193347
3958.0,0.009838807101520963
3957.0,0.009838807101520963
3956.0,0.009794384815193347
3955.0,0.00966114521239847
3954.0,0.009572341514736404
3953.0,0.009527946474380489
3952.0,0.009527946474380489
3951.0,0.009527946474380489
3950.0,0.009572341514736404
3949.0,0.009616741093766423
3948.0,0.009616741093766423
3947.0,0.009572341514736404
3946.0,0.009572341514736404
3945.0,0.009616741093766423
3944.0,0.009705553871561357
3943.0,0.00974996707218323
3942.0,0.009705553871561357
3941.0,0.00966114521239847
3940.0,0.009616741093766423
3939.0,0.009616741093766423
3938.0,0.009527946474380489
3937.0,0.009439170005980158
3936.0,0.009306039320248427
3935.0,0.009261671492462709
3934.0,0.009217308196862062
3933.0,0.009217308196862062
3932.0,0.009217308196862062
3931.0,0.009217308196862062
3930.0,0.009217308196862062
3929.0,0.009217308196862062
3928.0,0.009172949432521227
3927.0,0.009217308196862062
3926.0,0.009306039320248427
3925.0,0.009350411681145587
3924.0,0.009306039320248427
3923.0,0.009261671492462709
3922.0,0.009217308196862062
3921.0,0.009217308196862062
3920.0,0.009261671492462709
3919.0,0.009350411681145587
3918.0,0.009483555971770974
3917.0,0.00966114521239847
3916.0,0.009705553871561357
3915.0,0.00966114521239847
3914.0,0.00966114521239847
3913.0,0.009616741093766423
3912.0,0.009527946474380489
3911.0,0.009439170005980158
3910.0,0.009306039320248427
3909.0,0.009172949432521227
3908.0,0.008995559669244813
3907.0,0.008818242332126802
3906.0,0.0087296108049002
3905.0,0.008685301823389224
3904.0,0.008685301823389224
3903.0,0.008685301823389224
3902.0,0.008773924307505121
3901.0,0.00908424549391551
3900.0,0.009350411681145587
3899.0,0.009483555971770974
3898.0,0.00939478857608056
3897.0,0.009306039320248427
3896.0,0.009217308196862062
3895.0,0.009128595198514056
3894.0,0.009039900317800775
3893.0,0.009172949432521227
3892.0,0.009350411681145587
3891.0,0.009261671492462709
3890.0,0.009039900317800775
3889.0,0.009039900317800775
3888.0,0.009306039320248427
3887.0,0.009616741093766423
3886.0,0.009572341514736404
3885.0,0.009172949432521227
3884.0,0.008818242332126802
3883.0,0.008773924307505121
3882.0,0.008995559669244813
3881.0,0.009172949432521227
3880.0,0.009128595198514056
3879.0,0.008951223547323472
3878.0,0.008951223547323472
3877.0,0.00908424549391551
3876.0,0.009172949432521227
3875.0,0.009039900317800775
3874.0,0.0087296108049002
3873.0,0.008463824699968647
3872.0,0.008640997362049818
3871.0,0.009039900317800775
3870.0,0.009172949432521227
3869.0,0.008906891951112605
3868.0,0.0087296108049002
3867.0,0.008862564879688284
3866.0,0.00908424549391551
3865.0,0.009039900317800775
3864.0,0.008906891951112605
3863.0,0.008906891951112605
3862.0,0.009039900317800775
3861.0,0.009128595198514056
3860.0,0.00908424549391551
3859.0,0.008951223547323472
3858.0,0.0087296108049002
3857.0,0.008463824699968647
3856.0,0.008330992620051436
3855.0,0.008463824699968647
3854.0,0.008818242332126802
3853.0,0.008685301823389224
3852.0,0.008286724286910463
3851.0,0.008596697419959609
3850.0,0.009306039320248427
3849.0,0.009705553871561357
3848.0,0.00966114521239847
3847.0,0.009439170005980158
3846.0,0.009217308196862062
3845.0,0.008995559669244813
3844.0,0.008818242332126802
3843.0,0.008596697419959609
3842.0,0.008330992620051436
3841.0,0.008198201155356077
3840.0,0.008286724286910463
3839.0,0.008463824699968647
3838.0,0.008596697419959609
3837.0,0.008640997362049818
3836.0,0.0087296108049002
3835.0,0.008995559669244813
3834.0,0.009261671492462709
3833.0,0.009350411681145587
3832.0,0.009306039320248427
3831.0,0.00908424549391551
3830.0,0.008951223547323472
3829.0,0.008951223547323472
3828.0,0.008995559669244813
3827.0,0.008906891951112605
3826.0,0.008640997362049818
3825.0,0.008330992620051436
3824.0,0.008330992620051436
3823.0,0.008596697419959609
3822.0,0.008906891951112605
3821.0,0.008818242332126802
3820.0,0.008330992620051436
3819.0,0.008198201155356077
3818.0,0.0087296108049002
3817.0,0.009350411681145587
3816.0,0.009527946474380489
3815.0,0.009350411681145587
3814.0,0.009261671492462709
3813.0,0.009527946474380489
3812.0,0.009705553871561357
3811.0,0.009616741093766423
3810.0,0.009483555971770974
3809.0,0.009527946474380489
3808.0,0.00966114521239847
3807.0,0.009527946474380489
3806.0,0.00908424549391551
3805.0,0.0087296108049002
3804.0,0.008818242332126802
3803.0,0.00908424549391551
3802.0,0.009172949432521227
3801.0,0.008862564879688284
3800.0,0.00850811108984062
3799.0,0.0087296108049002
3798.0,0.009306039320248427
3797.0,0.00966114521239847
3796.0,0.009705553871561357
3795.0,0.009572341514736404
3794.0,0.009572341514736404
3793.0,0.00974996707218323
3792.0,0.009838807101520963
3791.0,0.009794384815193347
3790.0,0.00966114521239847
3789.0,0.009483555971770974
3788.0,0.009350411681145587
3787.0,0.009261671492462709
3786.0,0.009217308196862062
3785.0,0.009217308196862062
3784.0,0.00908424549391551
3783.0,0.009039900317800775
3782.0,0.009128595198514056
3781.0,0.00939478857608056
3780.0,0.009705553871561357
3779.0,0.009794384815193347
3778.0,0.00974996707218323
3777.0,0.00974996707218323
3776.0,0.009794384815193347
3775.0,0.00966114521239847
3774.0,0.009439170005980158
3773.0,0.009217308196862062
3772.0,0.009128595198514056
3771.0,0.009172949432521227
3770.0,0.009172949432521227
3769.0,0.009128595198514056
3768.0,0.009172949432521227
3767.0,0.009483555971770974
3766.0,0.00974996707218323
3765.0,0.00974996707218323
3764.0,0.009572341514736404
3763.0,0.00939478857608056
3762.0,0.00939478857608056
3761.0,0.00939478857608056
3760.0,0.00939478857608056
3759.0,0.00939478857608056
3758.0,0.00939478857608056
3757.0,0.009261671492462709
3756.0,0.009128595198514056
3755.0,0.008906891951112605
3754.0,0.008640997362049818
3753.0,0.008419542825660153
3752.0,0.008463824699968647
3751.0,0.008818242332126802
3750.0,0.008906891951112605
3749.0,0.008685301823389224
3748.0,0.00850811108984062
3747.0,0.008773924307505121
3746.0,0.009261671492462709
3745.0,0.009572341514736404
3744.0,0.009261671492462709
3743.0,0.0087296108049002
3742.0,0.008862564879688284
3741.0,0.009217308196862062
3740.0,0.009217308196862062
3739.0,0.008818242332126802
3738.0,0.008552401996197112
3737.0,0.008463824699968647
3736.0,0.00850811108984062
3735.0,0.00850811108984062
3734.0,0.008596697419959609
3733.0,0.008862564879688284
3732.0,0.00908424549391551
3731.0,0.009128595198514056
3730.0,0.009217308196862062
3729.0,0.009350411681145587
3728.0,0.009483555971770974
3727.0,0.009527946474380489
3726.0,0.00939478857608056
3725.0,0.009261671492462709
3724.0,0.009217308196862062
3723.0,0.009217308196862062
3722.0,0.009172949432521227
3721.0,0.009172949432521227
3720.0,0.009306039320248427
3719.0,0.009483555971770974
3718.0,0.009527946474380489
3717.0,0.00939478857608056
3716.0,0.009128595198514056
3715.0,0.008906891951112605
3714.0,0.008818242332126802
3713.0,0.008906891951112605
3712.0,0.009128595198514056
3711.0,0.009261671492462709
3710.0,0.009261671492462709
3709.0,0.009306039320248427
3708.0,0.009439170005980158
3707.0,0.009572341514736404
3706.0,0.00966114521239847
3705.0,0.00974996707218323
3704.0,0.009794384815193347
3703.0,0.009883233932095559
3702.0,0.009838807101520963
3701.0,0.00966114521239847
3700.0,0.009483555971770974
3699.0,0.009483555971770974
3698.0,0.009616741093766423
3697.0,0.009705553871561357
3696.0,0.009572341514736404
3695.0,0.00939478857608056
3694.0,0.009217308196862062
3693.0,0.009128595198514056
3692.0,0.009039900317800775
3691.0,0.009128595198514056
3690.0,0.00939478857608056
3689.0,0.009483555971770974
3688.0,0.00939478857608056
3687.0,0.009439170005980158
3686.0,0.009705553871561357
3685.0,0.01001654169860089
3684.0,0.010105436281226954
3683.0,0.009972101229705377
3682.0,0.00974996707218323
3681.0,0.009572341514736404
3680.0,0.009306039320248427
3679.0,0.008995559669244813
3678.0,0.008951223547323472
3677.0,0.009350411681145587
3676.0,0.00974996707218323
3675.0,0.009572341514736404
3674.0,0.009039900317800775
3673.0,0.00908424549391551
3672.0,0.009527946474380489
3671.0,0.009927665307847056
3670.0,0.010105436281226954
3669.0,0.009972101229705377
3668.0,0.009927665307847056
3667.0,0.010194349063173958
3666.0,0.010505687227290839
3665.0,0.010683695010048622
3664.0,0.010728208358306901
3663.0,0.010728208358306901
3662.0,0.010594681998483901
3661.0,0.01037222925484893
3660.0,0.010060986715464404
3659.0,0.009883233932095559
3658.0,0.009972101229705377
3657.0,0.010194349063173958
3656.0,0.01023881228122181
3655.0,0.01001654169860089
3654.0,0.009838807101520963
3653.0,0.00974996707218323
3652.0,0.009527946474380489
3651.0,0.00939478857608056
3650.0,0.009483555971770974
3649.0,0.00974996707218323
3648.0,0.009883233932095559
3647.0,0.01001654169860089
3646.0,0.010283280051895272
3645.0,0.010550182333308289
3644.0,0.010817248744452446
3643.0,0.010995384301463185
3642.0,0.011084479487313281
3641.0,0.011129033935354915
3640.0,0.011084479487313281
3639.0,0.010950843561779777
3638.0,0.01077272626946324
3637.0,0.010550182333308289
3636.0,0.010416710688994968
3635.0,0.010327752376126709
3634.0,0.010149890396819572
3633.0,0.009883233932095559
3632.0,0.009794384815193347
3631.0,0.009927665307847056
3630.0,0.010416710688994968
3629.0,0.01086177578421088
3628.0,0.01086177578421088
3627.0,0.010817248744452446
3626.0,0.011084479487313281
3625.0,0.011262724711199823
3624.0,0.011084479487313281
3623.0,0.01077272626946324
3622.0,0.010550182333308289
3621.0,0.010550182333308289
3620.0,0.010639186223752484
3619.0,0.010683695010048622
3618.0,0.010594681998483901
3617.0,0.010594681998483901
3616.0,0.010728208358306901
3615.0,0.01086177578421088
3614.0,0.01086177578421088
3613.0,0.010683695010048622
3612.0,0.010416710688994968
3611.0,0.010283280051895272
3610.0,0.01046119667949763
3609.0,0.01077272626946324
3608.0,0.011039929609661936
3607.0,0.011129033935354915
3606.0,0.011084479487313281
3605.0,0.010995384301463185
3604.0,0.01086177578421088
3603.0,0.01077272626946324
3602.0,0.01077272626946324
3601.0,0.01077272626946324
3600.0,0.010728208358306901
3599.0,0.010594681998483901
3598.0,0.010505687227290839
3597.0,0.010505687227290839
3596.0,0.010594681998483901
3595.0,0.010639186223752484
3594.0,0.010594681998483901
3593.0,0.01046119667949763
3592.0,0.01037222925484893
3591.0,0.010416710688994968
3590.0,0.010505687227290839
3589.0,0.010683695010048622
3588.0,0.010906307389674463
3587.0,0.011039929609661936
3586.0,0.011039929609661936
3585.0,0.011129033935354915
3584.0,0.011307297450183107
3583.0,0.011441043121384498
3582.0,0.011441043121384498
3581.0,0.011441043121384498
3580.0,0.011351874764248926
3579.0,0.011262724711199823
3578.0,0.01117359295472431
3577.0,0.011129033935354915
3576.0,0.01117359295472431
3575.0,0.011307297450183107
3574.0,0.011396456654336085
3573.0,0.011441043121384498
3572.0,0.011396456654336085
3571.0,0.011218156546359825
3570.0,0.010995384301463185
3569.0,0.010950843561779777
3568.0,0.011084479487313281
3567.0,0.011262724711199823
3566.0,0.011396456654336085
3565.0,0.011530229790124524
3564.0,0.011708658092512314
3563.0,0.011887159731648111
3562.0,0.0119764380713403
3561.0,0.0119764380713403
3560.0,0.0119764380713403
3559.0,0.0119764380713403
3558.0,0.0119764380713403
3557.0,0.011931796607364653
3556.0,0.011887159731648111
3555.0,0.011887159731648111
3554.0,0.011931796607364653
3553.0,0.0119764380713403
3552.0,0.0119764380713403
3551.0,0.011931796607364653
3550.0,0.011887159731648111
3549.0,0.011797899741219142
3548.0,0.011753276624621556
3547.0,0.011797899741219142
3546.0,0.011931796607364653
3545.0,0.012110390002254778
3544.0,0.012199714248127602
3543.0,0.012199714248127602
3542.0,0.012110390002254778
3541.0,0.012065734767841452
3540.0,0.012110390002254778
3539.0,0.012244383261476699
3538.0,0.012333735073725371
3537.0,0.012333735073725371
3536.0,0.012289056869694281
3535.0,0.01215504982870197
3534.0,0.012110390002254778
3533.0,0.01215504982870197
3532.0,0.012199714248127602
3531.0,0.012199714248127602
3530.0,0.012110390002254778
3529.0,0.0119764380713403
3528.0,0.011797899741219142
3527.0,0.011753276624621556
3526.0,0.011887159731648111
3525.0,0.012065734767841452
3524.0,0.012244383261476699
3523.0,0.012333735073725371
3522.0,0.012333735073725371
3521.0,0.012289056869694281
3520.0,0.012244383261476699
3519.0,0.012244383261476699
3518.0,0.012199714248127602
3517.0,0.01215504982870197
3516.0,0.012199714248127602
3515.0,0.012199714248127602
3514.0,0.012199714248127602
3513.0,0.012110390002254778
3512.0,0.012021084124518078
3511.0,0.0119764380713403
3510.0,0.011931796607364653
3509.0,0.011887159731648111
3508.0,0.011797899741219142
3507.0,0.011708658092512314
3506.0,0.011708658092512314
3505.0,0.011842527443247208
3504.0,0.012065734767841452
3503.0,0.012289056869694281
3502.0,0.012423105273012602
3501.0,0.012423105273012602
3500.0,0.012378417874516323
3499.0,0.012333735073725371
3498.0,0.012289056869694281
3497.0,0.012244383261476699
3496.0,0.01215504982870197
3495.0,0.012110390002254778
3494.0,0.012021084124518078
3493.0,0.0119764380713403
3492.0,0.0119764380713403
3491.0,0.012021084124518078
3490.0,0.012065734767841452
3489.0,0.012199714248127602
3488.0,0.012378417874516323
3487.0,0.012423105273012602
3486.0,0.012378417874516323
3485.0,0.012244383261476699
3484.0,0.01215504982870197
3483.0,0.012065734767841452
3482.0,0.012065734767841452
3481.0,0.012065734767841452
3480.0,0.012021084124518078
3479.0,0.012021084124518078
3478.0,0.012065734767841452
3477.0,0.012199714248127602
3476.0,0.012378417874516323
3475.0,0.012467797270160563
3474.0,0.012423105273012602
3473.0,0.012333735073725371
3472.0,0.012333735073725371
3471.0,0.012333735073725371
3470.0,0.012378417874516323
3469.0,0.012378417874516323
3468.0,0.012333735073725371
3467.0,0.012289056869694281
3466.0,0.012289056869694281
3465.0,0.012289056869694281
3464.0,0.012333735073725371
3463.0,0.012333735073725371
3462.0,0.012333735073725371
3461.0,0.012378417874516323
3460.0,0.012467797270160563
3459.0,0.012691326268817527
3458.0,0.012870232340102872
3457.0,0.013004460275618523
3456.0,0.013049212141483357
3455.0,0.013004460275618523
3454.0,0.012914970375878188
3453.0,0.012870232340102872
3452.0,0.012870232340102872
3451.0,0.013004460275618523
3450.0,0.013138729709955221
3449.0,0.013317820220494436
3448.0,0.013452186585275916
3447.0,0.013541787262693505
3446.0,0.013631406429727155
3445.0,0.013765869865004277
3444.0,0.013945219230304673
3443.0,0.014124642691606404
3442.0,0.014259258949925524
3441.0,0.014304140310157809
3440.0,0.014349026309051105
3439.0,0.014438812226654996
3438.0,0.0144837121472845
3437.0,0.01452861671041239
3436.0,0.014618439768003144
3435.0,0.014753209197138295
3434.0,0.014932966849499074
3433.0,0.015112798935672522
3432.0,0.015202742910707112
3431.0,0.015157768594724175
3430.0,0.015067833932588037
3429.0,0.014843078722943437
3428.0,0.014663358264387139
3427.0,0.0144837121472845
3426.0,0.014393916947563534
3425.0,0.014393916947563534
3424.0,0.014304140310157809
3423.0,0.014259258949925524
3422.0,0.014169510141607944
3421.0,0.014124642691606404
3420.0,0.014124642691606404
3419.0,0.014079779876432497
3418.0,0.01403492169512921
3417.0,0.013900374944870508
3416.0,0.013676222949234651
3415.0,0.013407393177789162
3414.0,0.01318349541446362
3413.0,0.013049212141483357
3412.0,0.012959713020733288
3411.0,0.012959713020733288
3410.0,0.012914970375878188
3409.0,0.012914970375878188
3408.0,0.012825498912458322
3407.0,0.012736045877764557
3406.0,0.01260190086298274
3405.0,0.012557195064198723
3404.0,0.012512493866907004
3403.0,0.012512493866907004
3402.0,0.012512493866907004
3401.0,0.012512493866907004
3400.0,0.012467797270160563
3399.0,0.012378417874516323
3398.0,0.012333735073725371
3397.0,0.012333735073725371
3396.0,0.012378417874516323
3395.0,0.012423105273012602
3394.0,0.012467797270160563
3393.0,0.012423105273012602
3392.0,0.012423105273012602
3391.0,0.012467797270160563
3390.0,0.012557195064198723
3389.0,0.01264661126420652
3388.0,0.01260190086298274
3387.0,0.012378417874516323
3386.0,0.01215504982870197
3385.0,0.012021084124518078
3384.0,0.012021084124518078
3383.0,0.012110390002254778
3382.0,0.012199714248127602
3381.0,0.012289056869694281
3380.0,0.012244383261476699
3379.0,0.01215504982870197
3378.0,0.012021084124518078
3377.0,0.011887159731648111
3376.0,0.011842527443247208
3375.0,0.011842527443247208
3374.0,0.011887159731648111
3373.0,0.011887159731648111
3372.0,0.011842527443247208
3371.0,0.011797899741219142
3370.0,0.011753276624621556
3369.0,0.011708658092512314
3368.0,0.011753276624621556
3367.0,0.011797899741219142
3366.0,0.011797899741219142
3365.0,0.011842527443247208
3364.0,0.011842527443247208
3363.0,0.011887159731648111
3362.0,0.011931796607364653
3361.0,0.011931796607364653
3360.0,0.011931796607364653
3359.0,0.0119764380713403
3358.0,0.0119764380713403
3357.0,0.012021084124518078
3356.0,0.012021084124518078
3355.0,0.012021084124518078
3354.0,0.012021084124518078
3353.0,0.0119764380713403
3352.0,0.011887159731648111
3351.0,0.011842527443247208
3350.0,0.011797899741219142
3349.0,0.011797899741219142
3348.0,0.011842527443247208
3347.0,0.011842527443247208
3346.0,0.011887159731648111
3345.0,0.011887159731648111
3344.0,0.0119764380713403
3343.0,0.012021084124518078
3342.0,0.012065734767841452
3341.0,0.012110390002254778
3340.0,0.012199714248127602
3339.0,0.012289056869694281
3338.0,0.012333735073725371
3337.0,0.012289056869694281
3336.0,0.012199714248127602
3335.0,0.012065734767841452
3334.0,0.011931796607364653
3333.0,0.011842527443247208
3332.0,0.011797899741219142
3331.0,0.011842527443247208
3330.0,0.011931796607364653
3329.0,0.011931796607364653
3328.0,0.011842527443247208
3327.0,0.011708658092512314
3326.0,0.011619434777991433
3325.0,0.011530229790124524
3324.0,0.011530229790124524
3323.0,0.011574829993696856
3322.0,0.011619434777991433
3321.0,0.011708658092512314
3320.0,0.011842527443247208
3319.0,0.0119764380713403
3318.0,0.012065734767841452
3317.0,0.012065734767841452
3316.0,0.0119764380713403
3315.0,0.011887159731648111
3314.0,0.011797899741219142
3313.0,0.011797899741219142
3312.0,0.011797899741219142
3311.0,0.011753276624621556
3310.0,0.011753276624621556
3309.0,0.011797899741219142
3308.0,0.011842527443247208
3307.0,0.011887159731648111
3306.0,0.011842527443247208
3305.0,0.011797899741219142
3304.0,0.011708658092512314
3303.0,0.011664044143949504
3302.0,0.011664044143949504
3301.0,0.011664044143949504
3300.0,0.011708658092512314
3299.0,0.011797899741219142
3298.0,0.011887159731648111
3297.0,0.011931796607364653
3296.0,0.011887159731648111
3295.0,0.011887159731648111
3294.0,0.011887159731648111
3293.0,0.011931796607364653
3292.0,0.0119764380713403
3291.0,0.0119764380713403
3290.0,0.0119764380713403
3289.0,0.0119764380713403
3288.0,0.0119764380713403
3287.0,0.011887159731648111
3286.0,0.011708658092512314
3285.0,0.011530229790124524
3284.0,0.011396456654336085
3283.0,0.011351874764248926
3282.0,0.011441043121384498
3281.0,0.011530229790124524
3280.0,0.011664044143949504
3279.0,0.011664044143949504
3278.0,0.011619434777991433
3277.0,0.011574829993696856
3276.0,0.011574829993696856
3275.0,0.011619434777991433
3274.0,0.011708658092512314
3273.0,0.011708658092512314
3272.0,0.011708658092512314
3271.0,0.011708658092512314
3270.0,0.011753276624621556
3269.0,0.011753276624621556
3268.0,0.011708658092512314
3267.0,0.011574829993696856
3266.0,0.011441043121384498
3265.0,0.011307297450183107
3264.0,0.011262724711199823
3263.0,0.011307297450183107
3262.0,0.011396456654336085
3261.0,0.011396456654336085
3260.0,0.011351874764248926
3259.0,0.011218156546359825
3258.0,0.011129033935354915
3257.0,0.011129033935354915
3256.0,0.011262724711199823
3255.0,0.011351874764248926
3254.0,0.011441043121384498
3253.0,0.011530229790124524
3252.0,0.011574829993696856
3251.0,0.011619434777991433
3250.0,0.011619434777991433
3249.0,0.011574829993696856
3248.0,0.011530229790124524
3247.0,0.011485634166333858
3246.0,0.011396456654336085
3245.0,0.011307297450183107
3244.0,0.011307297450183107
3243.0,0.011307297450183107
3242.0,0.011396456654336085
3241.0,0.011485634166333858
3240.0,0.011574829993696856
3239.0,0.011574829993696856
3238.0,0.011485634166333858
3237.0,0.011351874764248926
3236.0,0.011262724711199823
3235.0,0.011262724711199823
3234.0,0.011351874764248926
3233.0,0.011530229790124524
3232.0,0.011708658092512314
3231.0,0.011753276624621556
3230.0,0.011664044143949504
3229.0,0.011574829993696856
3228.0,0.011485634166333858
3227.0,0.011441043121384498
3226.0,0.011441043121384498
3225.0,0.011396456654336085
3224.0,0.011351874764248926
3223.0,0.011396456654336085
3222.0,0.011441043121384498
3221.0,0.011485634166333858
3220.0,0.011530229790124524
3219.0,0.011485634166333858
3218.0,0.011396456654336085
3217.0,0.011307297450183107
3216.0,0.011218156546359825
3215.0,0.01117359295472431
3214.0,0.011129033935354915
3213.0,0.011129033935354915
3212.0,0.011129033935354915
3211.0,0.01117359295472431
3210.0,0.011262724711199823
3209.0,0.011307297450183107
3208.0,0.011351874764248926
3207.0,0.011351874764248926
3206.0,0.011396456654336085
3205.0,0.011530229790124524
3204.0,0.011664044143949504
3203.0,0.011708658092512314
3202.0,0.011619434777991433
3201.0,0.011485634166333858
3200.0,0.011262724711199823
3199.0,0.01117359295472431
3198.0,0.011129033935354915
3197.0,0.011084479487313281
3196.0,0.011084479487313281
3195.0,0.011084479487313281
3194.0,0.011129033935354915
3193.0,0.01117359295472431
3192.0,0.01117359295472431
3191.0,0.011129033935354915
3190.0,0.011039929609661936
3189.0,0.010906307389674463
3188.0,0.010817248744452446
3187.0,0.010817248744452446
3186.0,0.01086177578421088
3185.0,0.011039929609661936
3184.0,0.01117359295472431
3183.0,0.011307297450183107
3182.0,0.011351874764248926
3181.0,0.011351874764248926
3180.0,0.011307297450183107
3179.0,0.011262724711199823
3178.0,0.011218156546359825
3177.0,0.01117359295472431
3176.0,0.01117359295472431
3175.0,0.011129033935354915
3174.0,0.011084479487313281
3173.0,0.010995384301463185
3172.0,0.010950843561779777
3171.0,0.010906307389674463
3170.0,0.010906307389674463
3169.0,0.010950843561779777
3168.0,0.010950843561779777
3167.0,0.010995384301463185
3166.0,0.010995384301463185
3165.0,0.011039929609661936
3164.0,0.011039929609661936
3163.0,0.011084479487313281
3162.0,0.011129033935354915
3161.0,0.01117359295472431
3160.0,0.01117359295472431
3159.0,0.011218156546359825
3158.0,0.01117359295472431
3157.0,0.011084479487313281
3156.0,0.010950843561779777
3155.0,0.01086177578421088
3154.0,0.010817248744452446
3153.0,0.01086177578421088
3152.0,0.010995384301463185
3151.0,0.011129033935354915
3150.0,0.011218156546359825
3149.0,0.011262724711199823
3148.0,0.01117359295472431
3147.0,0.011084479487313281
3146.0,0.011039929609661936
3145.0,0.011039929609661936
3144.0,0.011084479487313281
3143.0,0.01117359295472431
3142.0,0.011262724711199823
3141.0,0.011351874764248926
3140.0,0.011396456654336085
3139.0,0.011441043121384498
3138.0,0.011485634166333858
3137.0,0.011574829993696856
3136.0,0.011664044143949504
3135.0,0.011664044143949504
3134.0,0.011619434777991433
3133.0,0.011574829993696856
3132.0,0.011574829993696856
3131.0,0.011664044143949504
3130.0,0.011753276624621556
3129.0,0.011842527443247208
3128.0,0.011887159731648111
3127.0,0.011842527443247208
3126.0,0.011753276624621556
3125.0,0.011708658092512314
3124.0,0.011708658092512314
3123.0,0.011753276624621556
3122.0,0.011797899741219142
3121.0,0.011797899741219142
3120.0,0.011797899741219142
3119.0,0.011797899741219142
3118.0,0.011842527443247208
3117.0,0.011842527443247208
3116.0,0.011842527443247208
3115.0,0.011842527443247208
3114.0,0.011887159731648111
3113.0,0.0119764380713403
3112.0,0.012110390002254778
3111.0,0.012244383261476699
3110.0,0.012378417874516323
3109.0,0.012467797270160563
3108.0,0.01260190086298274
3107.0,0.012691326268817527
3106.0,0.012780770091995297
3105.0,0.012825498912458322
3104.0,0.012870232340102872
3103.0,0.012914970375878188
3102.0,0.012959713020733288
3101.0,0.012959713020733288
3100.0,0.012914970375878188
3099.0,0.012825498912458322
3098.0,0.012736045877764557
3097.0,0.01264661126420652
3096.0,0.012557195064198723
3095.0,0.012512493866907004
3094.0,0.012423105273012602
3093.0,0.012423105273012602
3092.0,0.012467797270160563
3091.0,0.012557195064198723
3090.0,0.01264661126420652
3089.0,0.012825498912458322
3088.0,0.013004460275618523
3087.0,0.013138729709955221
3086.0,0.013273040668781544
3085.0,0.013362604389846044
3084.0,0.013362604389846044
3083.0,0.013317820220494436
3082.0,0.013362604389846044
3081.0,0.013362604389846044
3080.0,0.013362604389846044
3079.0,0.013362604389846044
3078.0,0.013317820220494436
3077.0,0.013317820220494436
3076.0,0.013273040668781544
3075.0,0.01322826573375524
3074.0,0.01322826573375524
3073.0,0.01322826573375524
3072.0,0.013273040668781544
3071.0,0.013317820220494436
3070.0,0.013362604389846044
3069.0,0.013452186585275916
3068.0,0.013496984613259544
3067.0,0.013586594534531482
3066.0,0.013676222949234651
3065.0,0.013765869865004277
3064.0,0.013765869865004277
3063.0,0.01372104409400876
3062.0,0.013586594534531482
3061.0,0.013496984613259544
3060.0,0.013407393177789162
3059.0,0.013452186585275916
3058.0,0.013496984613259544
3057.0,0.013631406429727155
3056.0,0.013765869865004277
3055.0,0.01385553528947936
3054.0,0.013900374944870508
3053.0,0.01381070026317599
3052.0,0.013676222949234651
3051.0,0.013452186585275916
3050.0,0.01322826573375524
3049.0,0.013004460275618523
3048.0,0.012780770091995297
3047.0,0.01260190086298274
3046.0,0.012423105273012602
3045.0,0.012199714248127602
3044.0,0.012021084124518078
3043.0,0.011797899741219142
3042.0,0.011619434777991433
3041.0,0.011485634166333858
3040.0,0.011441043121384498
3039.0,0.011441043121384498
3038.0,0.011485634166333858
3037.0,0.011485634166333858
3036.0,0.011530229790124524
3035.0,0.011574829993696856
3034.0,0.011619434777991433
3033.0,0.011664044143949504
3032.0,0.011708658092512314
3031.0,0.011753276624621556
3030.0,0.011797899741219142
3029.0,0.011842527443247208
3028.0,0.0119764380713403
3027.0,0.012110390002254778
3026.0,0.012199714248127602
3025.0,0.012289056869694281
3024.0,0.012333735073725371
3023.0,0.012378417874516323
3022.0,0.012557195064198723
3021.0,0.012780770091995297
3020.0,0.013049212141483357
3019.0,0.013362604389846044
3018.0,0.013586594534531482
3017.0,0.01381070026317599
3016.0,0.01403492169512921
3015.0,0.014214382227394795
3014.0,0.0144837121472845
3013.0,0.014753209197138295
3012.0,0.015022873584506602
3011.0,0.015247721884586563
3010.0,0.01547268665620738
3009.0,0.015607721475734415
3008.0,0.01578783323856614
3007.0,0.01596801972881945
3006.0,0.016148281008528276
3005.0,0.01632861713980338
3004.0,0.016509028184833463
3003.0,0.016644385668211692
3002.0,0.016824927962187042
3001.0,0.017050711425501408
3000.0,0.01727661233145472
2999.0,0.017457417697056554
2998.0,0.01759307113620534
2997.0,0.017728766960431575
2996.0,0.017864505196230507
2995.0,0.01800028587012159
2994.0,0.018136109008649592
2993.0,0.01831727262871463
2992.0,0.01845319495476394
2991.0,0.01858915983411169
2990.0,0.018815862601645694
2989.0,0.01899731005860028
2988.0,0.0192242260373785
2987.0,0.019451260640229506
2986.0,0.019678413991243593
2985.0,0.019996628416253603
2984.0,0.020406104151069693
2983.0,0.020907099361673565
2982.0,0.021363051615525652
2981.0,0.021773818325474092
2980.0,0.0221849739168134
2979.0,0.02259651912656535
2978.0,0.02300845469384938
2977.0,0.023466619608062178
2976.0,0.023925268380126097
2975.0,0.024338466818941473
2974.0,0.024660115394541604
2973.0,0.024936003904763915
2972.0,0.02516604495145991
2971.0,0.025304128090317013
2970.0,0.02539620791296726
2969.0,0.02539620791296726
2968.0,0.02544225514642018
2967.0,0.025488307262671706
2966.0,0.02553436426275746
2965.0,0.02558042614771394
2964.0,0.025488307262671706
2963.0,0.025350165561278004
2962.0,0.02516604495145991
2961.0,0.02484402159331056
2960.0,0.024522236834125355
2959.0,0.024200690320592466
2958.0,0.023833499868024743
2957.0,0.02351246269481
2956.0,0.023191662661933732
2955.0,0.022871099419317753
2954.0,0.022505030926963654
2953.0,0.022093572362881675
2952.0,0.021636852916117055
2951.0,0.021135015652343103
2950.0,0.02067930261797568
2949.0,0.02022406727031445
2948.0,0.019769308608968306
2947.0,0.019315025636685412
2946.0,0.018951941086827073
2945.0,0.018634490921455527
2944.0,0.01831727262871463
2943.0,0.017955020928509757
2942.0,0.01768353030793479
2941.0,0.017412209298337533
2940.0,0.017231422748988034
2939.0,0.017095882207371904
2938.0,0.016960383953898095
2937.0,0.016824927962187042
2936.0,0.016689514205884493
2935.0,0.016554142658660398
2934.0,0.01646391839700767
2933.0,0.016373712875465518
2932.0,0.016373712875465518
2931.0,0.016373712875465518
2930.0,0.016373712875465518
2929.0,0.01632861713980338
2928.0,0.01632861713980338
2927.0,0.016373712875465518
2926.0,0.016509028184833463
2925.0,0.016599261819461697
2924.0,0.016599261819461697
2923.0,0.016599261819461697
2922.0,0.016644385668211692
2921.0,0.01677978535189717
2920.0,0.016960383953898095
2919.0,0.017095882207371904
2918.0,0.017231422748988034
2917.0,0.01727661233145472
2916.0,0.017412209298337533
2915.0,0.017547848615010242
2914.0,0.01781925440359733
2913.0,0.018136109008649592
2912.0,0.01845319495476394
2911.0,0.018770512579999288
2910.0,0.018906576854070378
2909.0,0.018951941086827073
2908.0,0.018770512579999288
2907.0,0.018543833477873584
2906.0,0.018271974638383703
2905.0,0.01809082990920774
2904.0,0.017955020928509757
2903.0,0.01781925440359733
2902.0,0.017638298366853045
2901.0,0.017367005605150476
2900.0,0.017050711425501408
2899.0,0.01677978535189717
2898.0,0.016599261819461697
2897.0,0.016509028184833463
2896.0,0.01646391839700767
2895.0,0.016418813294209356
2894.0,0.016373712875465518
2893.0,0.01628352608625061
2892.0,0.016193358021584725
2891.0,0.016148281008528276
2890.0,0.016058141016111804
2889.0,0.016013078034810446
2888.0,0.015922966097169144
2887.0,0.015832872853011715
2886.0,0.015742798294583915
2885.0,0.015652742414136167
2884.0,0.015607721475734415
2883.0,0.015562705203923999
2882.0,0.015427684378367834
2881.0,0.015337693809893471
2880.0,0.015247721884586563
2879.0,0.015157768594724175
2878.0,0.015067833932588037
2877.0,0.014977917890464765
2876.0,0.014888020460646079
2875.0,0.014843078722943437
2874.0,0.014843078722943437
2873.0,0.014798141635428141
2872.0,0.014753209197138295
2871.0,0.014663358264387139
2870.0,0.014573525916998342
2869.0,0.0144837121472845
2868.0,0.014438812226654996
2867.0,0.014438812226654996
2866.0,0.0144837121472845
2865.0,0.01452861671041239
2864.0,0.014573525916998342
2863.0,0.014573525916998342
2862.0,0.014573525916998342
2861.0,0.01452861671041239
2860.0,0.0144837121472845
2859.0,0.0144837121472845
2858.0,0.0144837121472845
2857.0,0.01452861671041239
2856.0,0.01452861671041239
2855.0,0.01452861671041239
2854.0,0.0144837121472845
2853.0,0.014438812226654996
2852.0,0.014304140310157809
2851.0,0.014124642691606404
2850.0,0.013945219230304673
2849.0,0.01372104409400876
2848.0,0.013541787262693505
2847.0,0.013317820220494436
2846.0,0.01318349541446362
2845.0,0.013093968619278806
2844.0,0.012959713020733288
2843.0,0.012825498912458322
2842.0,0.012736045877764557
2841.0,0.012691326268817527
2840.0,0.01264661126420652
2839.0,0.01264661126420652
2838.0,0.01260190086298274
2837.0,0.012512493866907004
2836.0,0.012378417874516323
2835.0,0.012244383261476699
2834.0,0.012110390002254778
2833.0,0.012065734767841452
2832.0,0.012065734767841452
2831.0,0.012065734767841452
2830.0,0.0119764380713403
2829.0,0.011887159731648111
2828.0,0.011842527443247208
2827.0,0.011753276624621556
2826.0,0.011753276624621556
2825.0,0.011753276624621556
2824.0,0.011708658092512314
2823.0,0.011664044143949504
2822.0,0.011664044143949504
2821.0,0.011708658092512314
2820.0,0.011797899741219142
2819.0,0.011797899741219142
2818.0,0.011753276624621556
2817.0,0.011664044143949504
2816.0,0.011619434777991433
2815.0,0.011664044143949504
2814.0,0.011708658092512314
2813.0,0.011753276624621556
2812.0,0.011753276624621556
2811.0,0.011753276624621556
2810.0,0.011753276624621556
2809.0,0.011664044143949504
2808.0,0.011619434777991433
2807.0,0.011619434777991433
2806.0,0.011708658092512314
2805.0,0.011753276624621556
2804.0,0.011797899741219142
2803.0,0.011708658092512314
2802.0,0.011619434777991433
2801.0,0.011530229790124524
2800.0,0.011485634166333858
2799.0,0.011441043121384498
2798.0,0.011396456654336085
2797.0,0.011396456654336085
2796.0,0.011351874764248926
2795.0,0.011262724711199823
2794.0,0.01117359295472431
2793.0,0.011129033935354915
2792.0,0.011129033935354915
2791.0,0.01117359295472431
2790.0,0.011218156546359825
2789.0,0.011218156546359825
2788.0,0.011218156546359825
2787.0,0.01117359295472431
2786.0,0.01117359295472431
2785.0,0.011129033935354915
2784.0,0.011039929609661936
2783.0,0.010906307389674463
2782.0,0.010817248744452446
2781.0,0.01077272626946324
2780.0,0.010817248744452446
2779.0,0.01086177578421088
2778.0,0.01086177578421088
2777.0,0.010817248744452446
2776.0,0.01077272626946324
2775.0,0.01077272626946324
2774.0,0.01077272626946324
2773.0,0.01086177578421088
2772.0,0.010906307389674463
2771.0,0.010906307389674463
2770.0,0.010950843561779777
2769.0,0.010950843561779777
2768.0,0.010950843561779777
2767.0,0.010950843561779777
2766.0,0.010906307389674463
2765.0,0.01086177578421088
2764.0,0.010817248744452446
2763.0,0.010817248744452446
2762.0,0.010817248744452446
2761.0,0.010817248744452446
2760.0,0.010817248744452446
2759.0,0.010817248744452446
2758.0,0.01077272626946324
2757.0,0.01077272626946324
2756.0,0.01077272626946324
2755.0,0.010817248744452446
2754.0,0.010817248744452446
2753.0,0.01077272626946324
2752.0,0.010683695010048622
2751.0,0.010639186223752484
2750.0,0.010639186223752484
2749.0,0.010639186223752484
2748.0,0.010683695010048622
2747.0,0.010683695010048622
2746.0,0.010683695010048622
2745.0,0.010728208358306901
2744.0,0.010817248744452446
2743.0,0.010906307389674463
2742.0,0.010950843561779777
2741.0,0.010950843561779777
2740.0,0.010906307389674463
2739.0,0.010817248744452446
2738.0,0.010683695010048622
2737.0,0.010594681998483901
2736.0,0.010505687227290839
2735.0,0.01046119667949763
2734.0,0.010416710688994968
2733.0,0.010416710688994968
2732.0,0.01046119667949763
2731.0,0.01046119667949763
2730.0,0.01046119667949763
2729.0,0.01046119667949763
2728.0,0.01046119667949763
2727.0,0.010416710688994968
2726.0,0.010327752376126709
2725.0,0.010194349063173958
2724.0,0.010149890396819572
2723.0,0.010194349063173958
2722.0,0.010283280051895272
2721.0,0.010327752376126709
2720.0,0.01037222925484893
2719.0,0.010327752376126709
2718.0,0.010283280051895272
2717.0,0.010283280051895272
2716.0,0.010283280051895272
2715.0,0.010283280051895272
2714.0,0.010283280051895272
2713.0,0.010327752376126709
2712.0,0.010327752376126709
2711.0,0.010327752376126709
2710.0,0.010283280051895272
2709.0,0.01023881228122181
2708.0,0.010149890396819572
2707.0,0.010105436281226954
2706.0,0.010105436281226954
2705.0,0.010060986715464404
2704.0,0.010060986715464404
2703.0,0.010060986715464404
2702.0,0.01001654169860089
2701.0,0.009972101229705377
2700.0,0.009972101229705377
2699.0,0.010060986715464404
2698.0,0.010105436281226954
2697.0,0.010060986715464404
2696.0,0.009927665307847056
2695.0,0.009794384815193347
2694.0,0.00974996707218323
2693.0,0.009794384815193347
2692.0,0.009838807101520963
2691.0,0.009883233932095559
2690.0,0.009883233932095559
2689.0,0.009838807101520963
2688.0,0.009794384815193347
2687.0,0.009794384815193347
2686.0,0.009794384815193347
2685.0,0.009883233932095559
2684.0,0.009972101229705377
2683.0,0.01001654169860089
2682.0,0.010060986715464404
2681.0,0.010060986715464404
2680.0,0.009972101229705377
2679.0,0.009883233932095559
2678.0,0.009838807101520963
2677.0,0.00974996707218323
2676.0,0.009705553871561357
2675.0,0.009705553871561357
2674.0,0.00974996707218323
2673.0,0.009838807101520963
2672.0,0.009883233932095559
2671.0,0.009927665307847056
2670.0,0.009883233932095559
2669.0,0.009794384815193347
2668.0,0.009705553871561357
2667.0,0.00966114521239847
2666.0,0.00966114521239847
2665.0,0.009616741093766423
2664.0,0.009616741093766423
2663.0,0.009616741093766423
2662.0,0.00966114521239847
2661.0,0.009705553871561357
2660.0,0.00974996707218323
2659.0,0.00974996707218323
2658.0,0.009705553871561357
2657.0,0.00966114521239847
2656.0,0.00966114521239847
2655.0,0.009616741093766423
2654.0,0.009616741093766423
2653.0,0.009616741093766423
2652.0,0.009616741093766423
2651.0,0.009616741093766423
2650.0,0.009616741093766423
2649.0,0.009572341514736404
2648.0,0.009572341514736404
2647.0,0.009616741093766423
2646.0,0.009705553871561357
2645.0,0.009838807101520963
2644.0,0.009883233932095559
2643.0,0.009883233932095559
2642.0,0.009794384815193347
2641.0,0.00974996707218323
2640.0,0.00966114521239847
2639.0,0.00966114521239847
2638.0,0.009705553871561357
2637.0,0.00974996707218323
2636.0,0.009794384815193347
2635.0,0.009838807101520963
2634.0,0.009838807101520963
2633.0,0.00974996707218323
2632.0,0.009705553871561357
2631.0,0.00966114521239847
2630.0,0.00966114521239847
2629.0,0.009616741093766423
2628.0,0.00966114521239847
2627.0,0.00966114521239847
2626.0,0.00966114521239847
2625.0,0.00966114521239847
2624.0,0.009705553871561357
2623.0,0.00974996707218323
2622.0,0.009794384815193347
2621.0,0.00974996707218323
2620.0,0.00966114521239847
2619.0,0.009616741093766423
2618.0,0.009572341514736404
2617.0,0.009572341514736404
2616.0,0.009572341514736404
2615.0,0.009572341514736404
2614.0,0.009616741093766423
2613.0,0.009616741093766423
2612.0,0.00966114521239847
2611.0,0.00966114521239847
2610.0,0.00966114521239847
2609.0,0.009705553871561357
2608.0,0.00974996707218323
2607.0,0.009794384815193347
2606.0,0.009794384815193347
2605.0,0.009794384815193347
2604.0,0.00974996707218323
2603.0,0.009794384815193347
2602.0,0.009838807101520963
2601.0,0.009883233932095559
2600.0,0.009883233932095559
2599.0,0.009838807101520963
2598.0,0.009838807101520963
2597.0,0.009838807101520963
2596.0,0.009883233932095559
2595.0,0.009927665307847056
2594.0,0.009972101229705377
2593.0,0.009972101229705377
2592.0,0.009972101229705377
2591.0,0.009972101229705377
2590.0,0.009972101229705377
2589.0,0.009972101229705377
2588.0,0.01001654169860089
2587.0,0.010060986715464404
2586.0,0.010060986715464404
2585.0,0.010060986715464404
2584.0,0.010060986715464404
2583.0,0.010060986715464404
2582.0,0.01001654169860089
2581.0,0.009972101229705377
2580.0,0.009927665307847056
2579.0,0.009838807101520963
2578.0,0.009794384815193347
2577.0,0.00974996707218323
2576.0,0.009794384815193347
2575.0,0.009883233932095559
2574.0,0.009972101229705377
2573.0,0.01001654169860089
2572.0,0.01001654169860089
2571.0,0.009972101229705377
2570.0,0.009972101229705377
2569.0,0.009972101229705377
2568.0,0.009972101229705377
2567.0,0.009972101229705377
2566.0,0.009927665307847056
2565.0,0.009927665307847056
2564.0,0.009927665307847056
2563.0,0.009927665307847056
2562.0,0.009927665307847056
2561.0,0.009927665307847056
2560.0,0.009927665307847056
2559.0,0.009972101229705377
2558.0,0.009972101229705377
2557.0,0.009927665307847056
2556.0,0.009883233932095559
2555.0,0.009838807101520963
2554.0,0.009838807101520963
2553.0,0.009838807101520963
2552.0,0.009883233932095559
2551.0,0.009972101229705377
2550.0,0.009972101229705377
2549.0,0.009972101229705377
2548.0,0.009972101229705377
2547.0,0.009927665307847056
2546.0,0.009927665307847056
2545.0,0.009883233932095559
2544.0,0.009838807101520963
2543.0,0.009794384815193347
2542.0,0.009794384815193347
2541.0,0.009794384815193347
2540.0,0.009794384815193347
2539.0,0.009794384815193347
2538.0,0.009794384815193347
2537.0,0.00974996707218323
2536.0,0.00974996707218323
2535.0,0.009705553871561357
2534.0,0.009705553871561357
2533.0,0.009705553871561357
2532.0,0.009705553871561357
2531.0,0.009794384815193347
2530.0,0.009838807101520963
2529.0,0.009838807101520963
2528.0,0.00974996707218323
2527.0,0.009705553871561357
2526.0,0.00966114521239847
2525.0,0.00966114521239847
2524.0,0.00966114521239847
2523.0,0.009616741093766423
2522.0,0.009527946474380489
2521.0,0.009483555971770974
2520.0,0.009483555971770974
2519.0,0.009527946474380489
2518.0,0.009616741093766423
2517.0,0.009616741093766423
2516.0,0.009572341514736404
2515.0,0.009439170005980158
2514.0,0.009350411681145587
2513.0,0.009261671492462709
2512.0,0.009306039320248427
2511.0,0.009350411681145587
2510.0,0.009350411681145587
2509.0,0.009350411681145587
2508.0,0.009306039320248427
2507.0,0.009261671492462709
2506.0,0.009172949432521227
2505.0,0.00908424549391551
2504.0,0.009039900317800775
2503.0,0.009039900317800775
2502.0,0.00908424549391551
2501.0,0.009128595198514056
2500.0,0.009172949432521227
2499.0,0.009172949432521227
2498.0,0.00908424549391551
2497.0,0.008951223547323472
2496.0,0.008862564879688284
2495.0,0.008818242332126802
2494.0,0.008862564879688284
2493.0,0.008906891951112605
2492.0,0.008951223547323472
2491.0,0.008995559669244813
2490.0,0.008995559669244813
2489.0,0.009039900317800775
2488.0,0.00908424549391551
2487.0,0.00908424549391551
2486.0,0.009039900317800775
2485.0,0.008906891951112605
2484.0,0.008818242332126802
2483.0,0.0087296108049002
2482.0,0.008685301823389224
2481.0,0.008640997362049818
2480.0,0.008640997362049818
2479.0,0.008685301823389224
2478.0,0.0087296108049002
2477.0,0.0087296108049002
2476.0,0.008685301823389224
2475.0,0.008640997362049818
2474.0,0.008596697419959609
2473.0,0.008596697419959609
2472.0,0.008552401996197112
2471.0,0.008552401996197112
2470.0,0.00850811108984062
2469.0,0.00850811108984062
2468.0,0.00850811108984062
2467.0,0.00850811108984062
2466.0,0.00850811108984062
2465.0,0.00850811108984062
2464.0,0.008463824699968647
2463.0,0.008419542825660153
2462.0,0.008375265465994541
2461.0,0.008330992620051436
2460.0,0.008286724286910463
2459.0,0.008242460465651913
2458.0,0.008242460465651913
2457.0,0.008286724286910463
2456.0,0.008330992620051436
2455.0,0.008419542825660153
2454.0,0.008419542825660153
2453.0,0.008419542825660153
2452.0,0.008419542825660153
2451.0,0.008463824699968647
2450.0,0.008463824699968647
2449.0,0.008463824699968647
2448.0,0.008463824699968647
2447.0,0.008463824699968647
2446.0,0.008463824699968647
2445.0,0.008463824699968647
2444.0,0.008463824699968647
2443.0,0.008419542825660153
2442.0,0.008375265465994541
2441.0,0.008330992620051436
2440.0,0.008286724286910463
2439.0,0.008286724286910463
2438.0,0.008286724286910463
2437.0,0.008286724286910463
2436.0,0.008286724286910463
2435.0,0.008242460465651913
2434.0,0.008242460465651913
2433.0,0.008286724286910463
2432.0,0.008375265465994541
2431.0,0.008419542825660153
2430.0,0.008463824699968647
2429.0,0.008419542825660153
2428.0,0.008375265465994541
2427.0,0.008375265465994541
2426.0,0.008419542825660153
2425.0,0.008419542825660153
2424.0,0.008419542825660153
2423.0,0.008419542825660153
2422.0,0.008463824699968647
2421.0,0.00850811108984062
2420.0,0.00850811108984062
2419.0,0.008463824699968647
2418.0,0.008419542825660153
2417.0,0.008463824699968647
2416.0,0.008552401996197112
2415.0,0.008640997362049818
2414.0,0.0087296108049002
2413.0,0.008773924307505121
2412.0,0.0087296108049002
2411.0,0.0087296108049002
2410.0,0.008685301823389224
2409.0,0.008640997362049818
2408.0,0.008640997362049818
2407.0,0.008640997362049818
2406.0,0.008685301823389224
2405.0,0.008773924307505121
2404.0,0.008818242332126802
2403.0,0.008862564879688284
2402.0,0.008862564879688284
2401.0,0.008818242332126802
2400.0,0.008773924307505121
2399.0,0.008773924307505121
2398.0,0.008818242332126802
2397.0,0.008862564879688284
2396.0,0.008862564879688284
2395.0,0.008862564879688284
2394.0,0.008773924307505121
2393.0,0.0087296108049002
2392.0,0.008685301823389224
2391.0,0.008773924307505121
2390.0,0.008862564879688284
2389.0,0.008951223547323472
2388.0,0.008995559669244813
2387.0,0.008951223547323472
2386.0,0.008862564879688284
2385.0,0.008818242332126802
2384.0,0.0087296108049002
2383.0,0.008685301823389224
2382.0,0.008552401996197112
2381.0,0.008286724286910463
2380.0,0.007932739972333236
2379.0,0.0075790439479759275
2378.0,0.007269796045857202
2377.0,0.007049039429553483
2376.0,0.00696076819309055
2375.0,0.007004901568658406
2374.0,0.007181479933320523
2373.0,0.007313960837872058
2372.0,0.007358130121602358
2371.0,0.007269796045857202
2370.0,0.007093181776687496
2369.0,0.006828394969235152
2368.0,0.006475596832934416
2367.0,0.006343371384537999
2366.0,0.006740168563263094
2365.0,0.00762324020119709
2364.0,0.008463824699968647
2363.0,0.008596697419959609
2362.0,0.007932739972333236
2361.0,0.007004901568658406
2360.0,0.00625524344553785
2359.0,0.005682847330363394
2358.0,0.005243055412371911
2357.0,0.005243055412371911
2356.0,0.005858888873877532
2355.0,0.006475596832934416
2354.0,0.006387442061109638
2353.0,0.005682847330363394
2352.0,0.005067263269958211
2351.0,0.00489154225525934
2350.0,0.005199100705396198
2349.0,0.005506877116487674
2348.0,0.005594853310833647
2347.0,0.005506877116487674
2346.0,0.00537494623139545
2345.0,0.00541891874010525
2344.0,0.005638848091999105
2343.0,0.005990966876386672
2342.0,0.006079041198713275
2341.0,0.005638848091999105
2340.0,0.00489154225525934
2339.0,0.004277078004534696
2338.0,0.00401400208620073
2337.0,0.0040578370074493275
2336.0,0.004145520125434121
2335.0,0.004145520125434121
2334.0,0.0040578370074493275
2333.0,0.003926345514724705
2332.0,0.003794893821675638
2331.0,0.003794893821675638
2330.0,0.003970171588923321
2329.0,0.004233220950025984
2328.0,0.0044964297349936455
2327.0,0.00484762310854614
2326.0,0.005155150446602086
2325.0,0.00541891874010525
2324.0,0.005506877116487674
2323.0,0.00541891874010525
2322.0,0.005330978174470591
2321.0,0.005330978174470591
2320.0,0.005462895701502157
2319.0,0.005638848091999105
2318.0,0.00577085918230158
2317.0,0.005858888873877532
2316.0,0.005990966876386672
2315.0,0.006167133386013823
2314.0,0.006343371384537999
2313.0,0.006387442061109638
2312.0,0.006343371384537999
2311.0,0.00612308505878878
2310.0,0.005946936412324799
2309.0,0.005946936412324799
2308.0,0.006079041198713275
2307.0,0.006343371384537999
2306.0,0.006519680930003435
2305.0,0.006519680930003435
2304.0,0.006431517210272464
2303.0,0.006343371384537999
2302.0,0.006343371384537999
2301.0,0.006431517210272464
2300.0,0.00656376950238835
2299.0,0.006696062080525422
2298.0,0.006784279525863024
2297.0,0.006916639301937977
2296.0,0.007093181776687496
2295.0,0.007225635744644521
2294.0,0.007358130121602358
2293.0,0.0074464821678643656
2292.0,0.0074464821678643656
2291.0,0.0074464821678643656
2290.0,0.0074464821678643656
2289.0,0.007534852191956709
2288.0,0.00762324020119709
2287.0,0.007667440952535687
2286.0,0.00762324020119709
2285.0,0.0075790439479759275
2284.0,0.0075790439479759275
2283.0,0.00762324020119709
2282.0,0.007711646202907652
2281.0,0.007711646202907652
2280.0,0.007667440952535687
2279.0,0.0075790439479759275
2278.0,0.0075790439479759275
2277.0,0.0075790439479759275
2276.0,0.0075790439479759275
2275.0,0.007534852191956709
2274.0,0.007534852191956709
2273.0,0.007534852191956709
2272.0,0.007490664932224611
2271.0,0.0074464821678643656
2270.0,0.007358130121602358
2269.0,0.007358130121602358
2268.0,0.007402303897961815
2267.0,0.0074464821678643656
2266.0,0.0074464821678643656
2265.0,0.007402303897961815
2264.0,0.007358130121602358
2263.0,0.007358130121602358
2262.0,0.007358130121602358
2261.0,0.007402303897961815
2260.0,0.007402303897961815
2259.0,0.0074464821678643656
2258.0,0.007490664932224611
2257.0,0.007490664932224611
2256.0,0.0074464821678643656
2255.0,0.0074464821678643656
2254.0,0.007402303897961815
2253.0,0.007358130121602358
2252.0,0.007269796045857202
2251.0,0.007225635744644521
2250.0,0.007137328610972382
2249.0,0.007049039429553483
2248.0,0.007004901568658406
2247.0,0.00696076819309055
2246.0,0.006916639301937977
2245.0,0.006872514894289861
2244.0,0.006872514894289861
2243.0,0.006916639301937977
2242.0,0.007004901568658406
2241.0,0.007049039429553483
2240.0,0.007049039429553483
2239.0,0.007049039429553483
2238.0,0.007049039429553483
2237.0,0.00696076819309055
2236.0,0.006828394969235152
2235.0,0.006740168563263094
2234.0,0.006696062080525422
2233.0,0.006651960076740071
2232.0,0.006651960076740071
2231.0,0.006696062080525422
2230.0,0.006696062080525422
2229.0,0.006696062080525422
2228.0,0.006651960076740071
2227.0,0.006651960076740071
2226.0,0.006607862550997545
2225.0,0.00656376950238835
2224.0,0.006519680930003435
2223.0,0.006519680930003435
2222.0,0.00656376950238835
2221.0,0.006607862550997545
2220.0,0.006607862550997545
2219.0,0.006607862550997545
2218.0,0.006519680930003435
2217.0,0.006431517210272464
2216.0,0.006299305179649828
2215.0,0.00621118618129457
2214.0,0.00621118618129457
2213.0,0.00625524344553785
2212.0,0.006299305179649828
2211.0,0.006299305179649828
2210.0,0.00621118618129457
2209.0,0.00612308505878878
2208.0,0.006079041198713275
2207.0,0.00612308505878878
2206.0,0.006167133386013823
2205.0,0.006167133386013823
2204.0,0.006167133386013823
2203.0,0.00612308505878878
2202.0,0.006079041198713275
2201.0,0.005990966876386672
2200.0,0.005946936412324799
2199.0,0.005946936412324799
2198.0,0.005946936412324799
2197.0,0.005990966876386672
2196.0,0.006035001804881146
2195.0,0.006035001804881146
2194.0,0.006035001804881146
2193.0,0.005946936412324799
2192.0,0.00590291041179003
2191.0,0.005858888873877532
2190.0,0.005814871797682919
2189.0,0.005814871797682919
2188.0,0.005814871797682919
2187.0,0.00577085918230158
2186.0,0.005682847330363394
2185.0,0.005682847330363394
2184.0,0.005682847330363394
2183.0,0.005682847330363394
2182.0,0.005638848091999105
2181.0,0.005550862985963967
2180.0,0.005550862985963967
2179.0,0.005638848091999105
2178.0,0.005682847330363394
2177.0,0.005726851026829571
2176.0,0.005726851026829571
2175.0,0.00577085918230158
2174.0,0.005814871797682919
2173.0,0.005814871797682919
2172.0,0.005814871797682919
2171.0,0.00577085918230158
2170.0,0.00577085918230158
2169.0,0.00577085918230158
2168.0,0.005726851026829571
2167.0,0.005726851026829571
2166.0,0.005726851026829571
2165.0,0.00577085918230158
2164.0,0.005814871797682919
2163.0,0.00577085918230158
2162.0,0.005726851026829571
2161.0,0.005682847330363394
2160.0,0.005682847330363394
2159.0,0.005682847330363394
2158.0,0.005726851026829571
2157.0,0.00577085918230158
2156.0,0.005814871797682919
2155.0,0.005858888873877532
2154.0,0.005946936412324799
2153.0,0.005946936412324799
2152.0,0.005946936412324799
2151.0,0.005946936412324799
2150.0,0.005946936412324799
2149.0,0.005946936412324799
2148.0,0.00590291041179003
2147.0,0.005858888873877532
2146.0,0.00577085918230158
2145.0,0.005682847330363394
2144.0,0.005682847330363394
2143.0,0.005726851026829571
2142.0,0.005814871797682919
2141.0,0.005858888873877532
2140.0,0.00590291041179003
2139.0,0.005946936412324799
2138.0,0.005946936412324799
2137.0,0.005946936412324799
2136.0,0.005990966876386672
2135.0,0.005990966876386672
2134.0,0.006035001804881146
2133.0,0.006079041198713275
2132.0,0.00612308505878878
2131.0,0.006167133386013823
2130.0,0.006167133386013823
2129.0,0.006167133386013823
2128.0,0.006167133386013823
2127.0,0.006167133386013823
2126.0,0.006167133386013823
2125.0,0.00621118618129457
2124.0,0.00621118618129457
2123.0,0.00621118618129457
2122.0,0.006167133386013823
2121.0,0.006079041198713275
2120.0,0.005990966876386672
2119.0,0.005990966876386672
2118.0,0.005946936412324799
2117.0,0.005946936412324799
2116.0,0.005990966876386672
2115.0,0.006035001804881146
2114.0,0.00612308505878878
2113.0,0.006167133386013823
2112.0,0.006167133386013823
2111.0,0.006079041198713275
2110.0,0.006035001804881146
2109.0,0.005990966876386672
2108.0,0.006035001804881146
2107.0,0.00612308505878878
2106.0,0.00621118618129457
2105.0,0.00625524344553785
2104.0,0.00621118618129457
2103.0,0.006167133386013823
2102.0,0.00612308505878878
2101.0,0.006035001804881146
2100.0,0.006035001804881146
2099.0,0.005990966876386672
2098.0,0.005990966876386672
2097.0,0.005990966876386672
2096.0,0.005990966876386672
2095.0,0.005990966876386672
2094.0,0.005990966876386672
2093.0,0.005946936412324799
2092.0,0.005858888873877532
2091.0,0.00577085918230158
2090.0,0.005726851026829571
2089.0,0.005726851026829571
2088.0,0.00577085918230158
2087.0,0.005814871797682919
2086.0,0.005814871797682919
2085.0,0.00577085918230158
2084.0,0.005726851026829571
2083.0,0.005682847330363394
2082.0,0.005638848091999105
2081.0,0.005638848091999105
2080.0,0.005594853310833647
2079.0,0.005506877116487674
2078.0,0.00541891874010525
2077.0,0.0052870145684298375
2076.0,0.005199100705396198
2075.0,0.005199100705396198
2074.0,0.005155150446602086
2073.0,0.005111204635089406
2072.0,0.005067263269958211
2071.0,0.004935465843858511
2070.0,0.00484762310854614
2069.0,0.004715892310740433
2068.0,0.00458420145758498
2067.0,0.00458420145758498
2066.0,0.004628093971837721
2065.0,0.004628093971837721
2064.0,0.004540313378935901
2063.0,0.004452550524862486
2062.0,0.004408675747646695
2061.0,0.004408675747646695
2060.0,0.004408675747646695
2059.0,0.004408675747646695
2058.0,0.004320939488377862
2057.0,0.004233220950025984
2056.0,0.004189368323957332
2055.0,0.004145520125434121
2054.0,0.0040578370074493275
2053.0,0.00401400208620073
2052.0,0.003970171588923321
2051.0,0.0038825238627120395
2050.0,0.0038387066319929275
2049.0,0.003794893821675638
2048.0,0.0037510854308679953
2047.0,0.0037510854308679953
2046.0,0.003794893821675638
2045.0,0.0038387066319929275
2044.0,0.0038825238627120395
2043.0,0.0038825238627120395
2042.0,0.0038825238627120395
2041.0,0.0038825238627120395
2040.0,0.0038825238627120395
2039.0,0.0038387066319929275
2038.0,0.0037510854308679953
2037.0,0.003619686766589858
2036.0,0.0035758960449088217
2035.0,0.0035321097382827737
2034.0,0.0035758960449088217
2033.0,0.0035758960449088217
2032.0,0.0035758960449088217
2031.0,0.0035321097382827737
2030.0,0.0035321097382827737
2029.0,0.003488327845821315
2028.0,0.0034007772998332353
2027.0,0.0033132443998284966
2026.0,0.0032694845648473247
2025.0,0.0032694845648473247
2024.0,0.0033132443998284966
2023.0,0.0033570086445275926
2022.0,0.0033570086445275926
2021.0,0.0033132443998284966
2020.0,0.0032257291386954545
2019.0,0.0032257291386954545
2018.0,0.0032694845648473247
2017.0,0.0033132443998284966
2016.0,0.0033570086445275926
2015.0,0.0033570086445275926
2014.0,0.0033570086445275926
2013.0,0.0033132443998284966
2012.0,0.0033132443998284966
2011.0,0.0033132443998284966
2010.0,0.0033570086445275926
2009.0,0.0033570086445275926
2008.0,0.0034007772998332353
2007.0,0.0034007772998332353
2006.0,0.0034445503666347133
2005.0,0.0034445503666347133
2004.0,0.0034445503666347133
2003.0,0.0034445503666347133
2002.0,0.0034445503666347133
2001.0,0.0034445503666347133
2000.0,0.0034007772998332353
1999.0,0.0034445503666347133
1998.0,0.0035321097382827737
1997.0,0.0035758960449088217
1996.0,0.003619686766589858
1995.0,0.0036634819042162814
1994.0,0.0036634819042162814
1993.0,0.0036634819042162814
1992.0,0.003707281458678491
1991.0,0.0037510854308679953
1990.0,0.0037510854308679953
1989.0,0.003794893821675638
1988.0,0.0038387066319929275
1987.0,0.0038825238627120395
1986.0,0.003970171588923321
1985.0,0.00401400208620073
1984.0,0.0040578370074493275
1983.0,0.004101676353562844
1982.0,0.004101676353562844
1981.0,0.004101676353562844
1980.0,0.004101676353562844
1979.0,0.004145520125434121
1978.0,0.004233220950025984
1977.0,0.004320939488377862
1976.0,0.004408675747646695
1975.0,0.004452550524862486
1974.0,0.0044964297349936455
1973.0,0.004452550524862486
1972.0,0.004452550524862486
1971.0,0.004540313378935901
1970.0,0.004628093971837721
1969.0,0.004715892310740433
1968.0,0.004759798137184523
1967.0,0.00484762310854614
1966.0,0.004935465843858511
1965.0,0.005067263269958211
1964.0,0.005243055412371911
1963.0,0.00541891874010525
1962.0,0.005550862985963967
1961.0,0.005638848091999105
1960.0,0.005726851026829571
1959.0,0.005814871797682919
1958.0,0.00590291041179003
1957.0,0.00590291041179003
1956.0,0.005858888873877532
1955.0,0.005814871797682919
1954.0,0.00577085918230158
1953.0,0.00577085918230158
1952.0,0.005814871797682919
1951.0,0.005814871797682919
1950.0,0.005726851026829571
1949.0,0.005594853310833647
1948.0,0.00541891874010525
1947.0,0.005330978174470591
1946.0,0.005243055412371911
1945.0,0.005067263269958211
1944.0,0.00489154225525934
1943.0,0.004671990922590297
1942.0,0.004408675747646695
1941.0,0.004233220950025984
1940.0,0.004101676353562844
1939.0,0.0040578370074493275
1938.0,0.0040578370074493275
1937.0,0.003970171588923321
1936.0,0.0038387066319929275
1935.0,0.003707281458678491
1934.0,0.0035321097382827737
1933.0,0.0033570086445275926
1932.0,0.0031819781204844855
1931.0,0.003050751504618754
1930.0,0.0029632891174733444
1929.0,0.0028321285541661467
1928.0,0.002701007590486082
1927.0,0.002569926202528716
1926.0,0.002482560585275184
1925.0,0.0023078820582733695
1924.0,0.0021332737608552588
1923.0,0.0018714928717336043
1922.0,0.0016534626036355249
1921.0,0.0015226969634936083
1920.0,0.0014791171649619628
1919.0,0.0014791171649619628
1918.0,0.0013919706849057079
1917.0,0.001304841688344327
1916.0,0.001304841688344327
1915.0,0.0013919706849057079
1914.0,0.0013919706849057079
1913.0,0.001348404001626502
1912.0,0.0012177301682640973
1911.0,0.0010870956412141197
1910.0,0.0010000277816797354
1909.0,0.000869458712629001
1908.0,0.0007824344698965646
1907.0,0.0007824344698965646
1906.0,0.0008259444115150671
1905.0,0.0007824344698965646
1904.0,0.0007824344698965646
1903.0,0.0006954276616513155
1902.0,0.0006084382809090627
1901.0,0.000521466320689834
1900.0,0.00043451177401765406
1899.0,0.00043451177401765406
1898.0,0.00043451177401765406
1897.0,0.0003910410285830057
1896.0,0.00026065489343207737
1895.0,0.00017375254558760211
1894.0,4.343161980746579e-05
1893.0,-4.3427276862573194e-05
1892.0,-0.00013026880522692963
1891.0,-0.00021709297223004853
1890.0,-0.00030389978481260016
1889.0,-0.0003906892499099257
1888.0,-0.00043407747931878404
1887.0,-0.00043407747931878404
1886.0,-0.0003472966853634851
1885.0,-0.0003472966853634851
1884.0,-0.0003472966853634851
1883.0,-0.0003906892499099257
1882.0,-0.00043407747931878404
1881.0,-0.0005208409361854294
1880.0,-0.0006509536295951079
1879.0,-0.0007376737740329986
1878.0,-0.0007376737740329986
1877.0,-0.0006943158663546001
1876.0,-0.0006509536295951079
1875.0,-0.0006075870628903246
1874.0,-0.0006509536295951079
1873.0,-0.0007376737740329986
1872.0,-0.0008677215312267172
1871.0,-0.0009543984064577238
1870.0,-0.0009977303577937136
1869.0,-0.0010843812922201046
1868.0,-0.0011710149414008164
1867.0,-0.0011710149414008164
1866.0,-0.001041057986093552
1865.0,-0.0009110621312231615
1864.0,-0.0008243766056055257
1863.0,-0.0008243766056055257
1862.0,-0.0008243766056055257
1861.0,-0.0008243766056055257
1860.0,-0.0008243766056055257
1859.0,-0.0007810273534953893
1858.0,-0.0007376737740329986
1857.0,-0.0006943158663546001
1856.0,-0.0006075870628903246
1855.0,-0.00043407747931878404
1854.0,-0.00030389978481260016
1853.0,-0.0002604985473904087
1852.0,-0.00021709297223004853
1851.0,-0.00021709297223004853
1850.0,-0.00021709297223004853
1849.0,-0.00021709297223004853
1848.0,-0.00021709297223004853
1847.0,-0.00013026880522692963
1846.0,-4.3427276862573194e-05
1845.0,-4.3427276862573194e-05
1844.0,-0.00013026880522692963
1843.0,-0.00017368305846510168
1842.0,0.0
1841.0,0.00030411258916074324
1840.0,0.0006084382809090627
1839.0,0.0007824344698965646
1838.0,0.0009129773741116676
1837.0,0.0010000277816797354
1836.0,0.0011306361176557367
1835.0,0.001304841688344327
1834.0,0.0013919706849057079
1833.0,0.0014355417390583547
1832.0,0.0014355417390583547
1831.0,0.0014791171649619628
1830.0,0.0015662811355310335
1829.0,0.0015226969634936083
1828.0,0.0015226969634936083
1827.0,0.0016534626036355249
1826.0,0.0017406615763013722
1825.0,0.0016970599014589638
1824.0,0.0016970599014589638
1823.0,0.0017842676290416026
1822.0,0.001915112063444413
1821.0,0.0020023635919956817
1820.0,0.0019587356365717845
1819.0,0.001915112063444413
1818.0,0.0018714928717336043
1817.0,0.0017842676290416026
1816.0,0.0017842676290416026
1815.0,0.0018278780605593958
1814.0,0.0018714928717336043
1813.0,0.0018714928717336043
1812.0,0.0018278780605593958
1811.0,0.0018278780605593958
1810.0,0.0017842676290416026
1809.0,0.0016970599014589638
1808.0,0.0016534626036355249
1807.0,0.0016534626036355249
1806.0,0.001609869681952425
1805.0,0.0014791171649619628
1804.0,0.001304841688344327
1803.0,0.0011306361176557367
1802.0,0.0010435595295137379
1801.0,0.0010000277816797354
1800.0,0.0010000277816797354
1799.0,0.0010870956412141197
1798.0,0.0010870956412141197
1797.0,0.0010000277816797354
1796.0,0.0009129773741116676
1795.0,0.0009129773741116676
1794.0,0.0009129773741116676
1793.0,0.0008259444115150671
1792.0,0.0006954276616513155
1791.0,0.0006084382809090627
1790.0,0.0006519307932786322
1789.0,0.0007824344698965646
1788.0,0.0009129773741116676
1787.0,0.0010000277816797354
1786.0,0.0010000277816797354
1785.0,0.0009129773741116676
1784.0,0.0008259444115150671
1783.0,0.0009129773741116676
1782.0,0.0010870956412141197
1781.0,0.0011306361176557367
1780.0,0.0010870956412141197
1779.0,0.0011306361176557367
1778.0,0.0012177301682640973
1777.0,0.0012612837441823288
1776.0,0.001304841688344327
1775.0,0.0014791171649619628
1774.0,0.0016534626036355249
1773.0,0.0017406615763013722
1772.0,0.0017842676290416026
1771.0,0.0018278780605593958
1770.0,0.0020023635919956817
1769.0,0.002089632653256679
1768.0,0.0022642234021015284
1767.0,0.0025262411970197185
1766.0,0.0029195645282691363
1765.0,0.0033132443998284966
1764.0,0.0036634819042162814
1763.0,0.0040578370074493275
1762.0,0.004540313378935901
1761.0,0.00489154225525934
1760.0,0.00537494623139545
1759.0,0.006167133386013823
1758.0,0.007137328610972382
1757.0,0.008109696063975047
1756.0,0.009128595198514056
1755.0,0.010283280051895272
1754.0,0.011530229790124524
1753.0,0.012870232340102872
1752.0,0.014618439768003144
1751.0,0.017231422748988034
1750.0,0.02058821736556471
1749.0,0.024430342106337877
1748.0,0.028770552723758724
1747.0,0.03357665405630694
1746.0,0.03862637240519895
1745.0,0.044167989767578186
1744.0,0.05051241005349638
1743.0,0.05749589383191922
1742.0,0.06469430971007495
1741.0,0.07283502570063005
1740.0,0.08275714209253371
1739.0,0.09285746899685954
1738.0,0.10023419805561384
1737.0,0.10485381062400778
1736.0,0.11019424813191447
1735.0,0.12170805075020397
1734.0,0.13978181533124334
1733.0,0.1550260618531123
1732.0,0.16462654752999129
1731.0,0.17360121781238225
1730.0,0.18448866263723573
1729.0,0.1962698290254561
1728.0,0.20725821416525125
1727.0,0.21752737583371373
1726.0,0.22819212100089437
1725.0,0.24018112262517377
1724.0,0.25375512827980184
1723.0,0.26728465965000714
1722.0,0.27777753603026967
1721.0,0.2839966563652008
1720.0,0.2889523961329661
1719.0,0.2996424721773401
1718.0,0.3203904282202441
1717.0,0.341606973720876
1716.0,0.351835221425999
1715.0,0.3533022687006655
1714.0,0.34978964533964096
1713.0,0.3407495312273392
1712.0,0.32670256024036415
1711.0,0.3102473038608433
1710.0,0.2931116050183822
1709.0,0.2753146117626406
1708.0,0.2566470485904444
1707.0,0.2377717157135255
1706.0,0.2198267563574059
1705.0,0.20391157131933157
1704.0,0.18983471545685027
1703.0,0.17685194018930606
1702.0,0.16424603248061653
1701.0,0.1524890347967518
1700.0,0.1427881576831076
1699.0,0.1350738084609946
1698.0,0.12836869546244634
1697.0,0.12222565000860186
1696.0,0.11645212073195621
1695.0,0.11120293254331926
1694.0,0.10657115822045493
1693.0,0.10253786198693682
1692.0,0.09870518283443275
1691.0,0.0950141189006366
1690.0,0.09183679994445204
1689.0,0.0892155652071629
1688.0,0.08661005636824437
1687.0,0.08359869639612438
1686.0,0.08055578953476306
1685.0,0.07899019850296574
1684.0,0.07899019850296574
1683.0,0.07800156869172903
1682.0,0.07592757008963713
1681.0,0.07365755337434488
1680.0,0.07129697256940304
1679.0,0.06884736147670667
1678.0,0.06646209802829528
1677.0,0.06424089625468832
1676.0,0.06248210798265341
1675.0,0.06108018775522828
1674.0,0.05948351506743288
1673.0,0.05769424710410598
1672.0,0.055764156206519866
1671.0,0.05403929642243144
1670.0,0.052762392129333646
1669.0,0.051684859310652254
1668.0,0.050414848673348
1667.0,0.04885683989244738
1666.0,0.04720755695590784
1665.0,0.045564513671517703
1664.0,0.04402377775167454
1663.0,0.042775942156833
1662.0,0.04172287445230238
1661.0,0.04057697805689475
1660.0,0.03938654235209116
1659.0,0.038151940981675736
1658.0,0.03692083935817303
1657.0,0.03559892883726867
1656.0,0.03409308450480819
1655.0,0.03249882527715853
1654.0,0.03184406285002961
1653.0,0.03226486821611996
1652.0,0.03184406285002961
1651.0,0.031143625385307683
1650.0,0.03067729388779794
1649.0,0.030118356253500123
1648.0,0.029653123769906697
1647.0,0.02942069428514915
1646.0,0.029188389127482228
1645.0,0.02872415126189476
1644.0,0.028214062120885508
1643.0,0.0277045713888604
1642.0,0.027195677663422346
1641.0,0.02664120011360227
1640.0,0.025995203102585407
1639.0,0.02521206778644225
1638.0,0.024522236834125355
1637.0,0.024246610963712723
1636.0,0.024430342106337877
1635.0,0.02438440203310499
1634.0,0.02406295751688936
1633.0,0.023695883447997224
1632.0,0.023329119375188556
1631.0,0.022871099419317753
1630.0,0.022367834754000393
1629.0,0.02200219004126036
1628.0,0.021728158389364705
1627.0,0.02140867317992523
1626.0,0.021043834782408455
1625.0,0.020770406977844713
1624.0,0.020633757603838898
1623.0,0.020633757603838898
1622.0,0.02067930261797568
1621.0,0.02067930261797568
1620.0,0.020724852408976924
1619.0,0.020770406977844713
1618.0,0.0211806132671577
1617.0,0.022093572362881675
1616.0,0.02296266477531872
1615.0,0.02342078135989012
1614.0,0.02351246269481
1613.0,0.023374947949272418
1612.0,0.02296266477531872
1611.0,0.022367834754000393
1610.0,0.021728158389364705
1609.0,0.021089422824428272
1608.0,0.020315076172974234
1607.0,0.019451260640229506
1606.0,0.018679826740892747
1605.0,0.017955020928509757
1604.0,0.017321806616515723
1603.0,0.016734647433454652
1602.0,0.016193358021584725
1601.0,0.015697768020096703
1600.0,0.015247721884586563
1599.0,0.014798141635428141
1598.0,0.014393916947563534
1597.0,0.013990068146738865
1596.0,0.013676222949234651
1595.0,0.013452186585275916
1594.0,0.013317820220494436
1593.0,0.013317820220494436
1592.0,0.013362604389846044
1591.0,0.013452186585275916
1590.0,0.013541787262693505
1589.0,0.01372104409400876
1588.0,0.013945219230304673
1587.0,0.014349026309051105
1586.0,0.014932966849499074
1585.0,0.015832872853011715
1584.0,0.017050711425501408
1583.0,0.01858915983411169
1582.0,0.020178569969774962
1581.0,0.021636852916117055
1580.0,0.022733787572707387
1579.0,0.023329119375188556
1578.0,0.023283295636617574
1577.0,0.022642270454698687
1576.0,0.0214542995372613
1575.0,0.02004210665933459
1574.0,0.018861217359339655
1573.0,0.017909760704207134
1572.0,0.016915227262211507
1571.0,0.01578783323856614
1570.0,0.014708281407112
1569.0,0.01381070026317599
1568.0,0.01318349541446362
1567.0,0.012736045877764557
1566.0,0.012333735073725371
1565.0,0.011887159731648111
1564.0,0.011441043121384498
1563.0,0.010950843561779777
1562.0,0.01037222925484893
1561.0,0.009572341514736404
1560.0,0.00908424549391551
1559.0,0.009217308196862062
1558.0,0.008951223547323472
1557.0,0.008773924307505121
1556.0,0.008862564879688284
1555.0,0.008906891951112605
1554.0,0.008773924307505121
1553.0,0.008596697419959609
1552.0,0.00850811108984062
1551.0,0.008375265465994541
1550.0,0.008153946355103248
1549.0,0.007932739972333236
1548.0,0.007755855953228474
1547.0,0.007534852191956709
1546.0,0.007269796045857202
1545.0,0.006916639301937977
1544.0,0.006651960076740071
1543.0,0.006431517210272464
1542.0,0.006343371384537999
1541.0,0.006475596832934416
1540.0,0.006519680930003435
1539.0,0.006299305179649828
1538.0,0.006167133386013823
1537.0,0.006431517210272464
1536.0,0.006740168563263094
1535.0,0.006916639301937977
1534.0,0.007137328610972382
1533.0,0.007358130121602358
1532.0,0.007534852191956709
1531.0,0.007667440952535687
1530.0,0.007844288957383316
1529.0,0.007976972236149349
1528.0,0.007976972236149349
1527.0,0.007844288957383316
1526.0,0.00762324020119709
1525.0,0.0074464821678643656
1524.0,0.007269796045857202
1523.0,0.007049039429553483
1522.0,0.006784279525863024
1521.0,0.006387442061109638
1520.0,0.005990966876386672
1519.0,0.00590291041179003
1518.0,0.005990966876386672
1517.0,0.00621118618129457
1516.0,0.006431517210272464
1515.0,0.006740168563263094
1514.0,0.007358130121602358
1513.0,0.008198201155356077
1512.0,0.009350411681145587
1511.0,0.01077272626946324
1510.0,0.01260190086298274
1509.0,0.01538268676325183
1508.0,0.02081596632558158
1507.0,0.028863370523193765
1506.0,0.034046110897937076
1505.0,0.034187046963396917
1504.0,0.03184406285002961
1503.0,0.02826040911222183
1502.0,0.024108863598207186
1501.0,0.01995115493504329
1500.0,0.016238439713835096
1499.0,0.013138729709955221
1498.0,0.010728208358306901
1497.0,0.008906891951112605
1496.0,0.00762324020119709
1495.0,0.006740168563263094
1494.0,0.006343371384537999
1493.0,0.006299305179649828
1492.0,0.006343371384537999
1491.0,0.006343371384537999
1490.0,0.006607862550997545
1489.0,0.007358130121602358
1488.0,0.008375265465994541
1487.0,0.009483555971770974
1486.0,0.010639186223752484
1485.0,0.011797899741219142
1484.0,0.012959713020733288
1483.0,0.014214382227394795
1482.0,0.015652742414136167
1481.0,0.01727661233145472
1480.0,0.018679826740892747
1479.0,0.019723858922159776
1478.0,0.02067930261797568
1477.0,0.021636852916117055
1476.0,0.02255077261765881
1475.0,0.023237476732539397
1474.0,0.023971159908874107
1473.0,0.02484402159331056
1472.0,0.02539620791296726
1471.0,0.02539620791296726
1470.0,0.02516604495145991
1469.0,0.024936003904763915
1468.0,0.024660115394541604
1467.0,0.024568191490736968
1466.0,0.024936003904763915
1465.0,0.025810808881832736
1464.0,0.02682594731702781
1463.0,0.027565723042634938
1462.0,0.028028723600243666
1461.0,0.028306761050139073
1460.0,0.02839947976994095
1459.0,0.02858497661500481
1458.0,0.029374223311705583
1457.0,0.0307239045110681
1456.0,0.03147035562516054
1455.0,0.031563752288295444
1454.0,0.03151705144606498
1453.0,0.03133029827960798
1452.0,0.03081714076773867
1451.0,0.030118356253500123
1450.0,0.02942069428514915
1449.0,0.02872415126189476
1448.0,0.028167720075074953
1447.0,0.027612000892527133
1446.0,0.02710321556345563
1445.0,0.02664120011360227
1444.0,0.02617967564731627
1443.0,0.025718641122169483
1442.0,0.025258095499050004
1441.0,0.024798037742147727
1440.0,0.024200690320592466
1439.0,0.02342078135989012
1438.0,0.02227639471115217
1437.0,0.020907099361673565
1436.0,0.019360432556262852
1435.0,0.01800028587012159
1434.0,0.016824927962187042
1433.0,0.015697768020096703
1432.0,0.0144837121472845
1431.0,0.013317820220494436
1430.0,0.012199714248127602
1429.0,0.011262724711199823
1428.0,0.010594681998483901
1427.0,0.010194349063173958
1426.0,0.010060986715464404
1425.0,0.010149890396819572
1424.0,0.010639186223752484
1423.0,0.011396456654336085
1422.0,0.012333735073725371
1421.0,0.013765869865004277
1420.0,0.016418813294209356
1419.0,0.020952673052035298
1418.0,0.02664120011360227
1417.0,0.033060836978886954
1416.0,0.040481623027001756
1415.0,0.048954051864180226
1414.0,0.058538260652670315
1413.0,0.06905096883247697
1412.0,0.07977228854307139
1411.0,0.08905559425002108
1410.0,0.09533854208447545
1409.0,0.09794268919153337
1408.0,0.09685572959046151
1407.0,0.09226626300234453
1406.0,0.08496970974083906
1405.0,0.07649693305789551
1404.0,0.06823711151882228
1403.0,0.06103020277710969
1402.0,0.0549255115212699
1401.0,0.04953778109440221
1400.0,0.04455278942230456
1399.0,0.04019568349166214
1398.0,0.03668448861388862
1397.0,0.03399914237121604
1396.0,0.03170388495374454
1395.0,0.029653123769906697
1394.0,0.02798240132598462
1393.0,0.02682594731702781
1392.0,0.026087429580295085
1391.0,0.02544225514642018
1390.0,0.02484402159331056
1389.0,0.024292536462819925
1388.0,0.024017056287453542
1387.0,0.024017056287453542
1386.0,0.024246610963712723
1385.0,0.024568191490736968
1384.0,0.024936003904763915
1383.0,0.025304128090317013
1382.0,0.02562649291857677
1381.0,0.026087429580295085
1380.0,0.02664120011360227
1379.0,0.02724191609646076
1378.0,0.027797161620935595
1377.0,0.028353117935693284
1376.0,0.028956208163971375
1375.0,0.029653123769906697
1374.0,0.030490901403433135
1373.0,0.031143625385307683
1372.0,0.03151705144606498
1371.0,0.03147035562516054
1370.0,0.03105031901865729
1369.0,0.030211462585061133
1368.0,0.028956208163971375
1367.0,0.02738066094037661
1366.0,0.02562649291857677
1365.0,0.023695883447997224
1364.0,0.021773818325474092
1363.0,0.01995115493504329
1362.0,0.01858915983411169
1361.0,0.017774008325325275
1360.0,0.017457417697056554
1359.0,0.017412209298337533
1358.0,0.017638298366853045
1357.0,0.018045555530026514
1356.0,0.018770512579999288
1355.0,0.019723858922159776
1354.0,0.021043834782408455
1353.0,0.02277955336461468
1352.0,0.025028005701930978
1351.0,0.027797161620935595
1350.0,0.03128362253321426
1349.0,0.035646070707806565
1348.0,0.040958607678906356
1347.0,0.04730440041308315
1346.0,0.054876229877880656
1345.0,0.06353652599525317
1344.0,0.07278366940873537
1343.0,0.08191721535781271
1342.0,0.09044397075882471
1341.0,0.09799710864927058
1340.0,0.10374943753836186
1339.0,0.1062937069352865
1338.0,0.10479852522110678
1337.0,0.09963287134352972
1336.0,0.0917831469106074
1335.0,0.08212704480115218
1334.0,0.07155293679081787
1333.0,0.06098022355133348
1332.0,0.05134256785867963
1331.0,0.04315950984076644
1330.0,0.036779013477011624
1329.0,0.032031037121307726
1328.0,0.028770552723758724
1327.0,0.026733563891471412
1326.0,0.025672564576383117
1325.0,0.025304128090317013
1324.0,0.02544225514642018
1323.0,0.025902996205869
1322.0,0.02654885597506529
1321.0,0.02738066094037661
1320.0,0.028306761050139073
1319.0,0.029374223311705583
1318.0,0.03063068826647264
1317.0,0.031984286006358165
1316.0,0.03338901331806565
1315.0,0.03489241415094413
1314.0,0.03658998431977123
1313.0,0.038436537637930535
1312.0,0.04043395336207234
1311.0,0.04253638427006878
1310.0,0.04474531717982
1309.0,0.04696554274964315
1308.0,0.04919717703534143
1307.0,0.05134256785867963
1306.0,0.0534986094304124
1305.0,0.05561604235915585
1304.0,0.05789269101064454
1303.0,0.06033101647767336
1302.0,0.06313454102437754
1301.0,0.06641148980334699
1300.0,0.07012147634321675
1299.0,0.07417242537525759
1298.0,0.07846958649875768
1297.0,0.08291480935943274
1296.0,0.08751223866767632
1295.0,0.09210516458371698
1294.0,0.09658441423091357
1293.0,0.10100072911021085
1292.0,0.10535169620648288
1291.0,0.10946720807225518
1290.0,0.11339648571328764
1289.0,0.11724784438692004
1288.0,0.12101887660626365
1287.0,0.12459143992293642
1286.0,0.1280186461566306
1285.0,0.13123804178794973
1284.0,0.13448148092522594
1283.0,0.13768969004572962
1282.0,0.1408016384661226
1281.0,0.14405705376768396
1280.0,0.14739803066176504
1279.0,0.15088783381542248
1278.0,0.1545918603782066
1277.0,0.158765704493959
1276.0,0.16354928627984533
1275.0,0.16877030613293664
1274.0,0.1745089701205691
1273.0,0.18104868835982724
1272.0,0.1885590563258419
1271.0,0.19681611146465805
1270.0,0.20572113427860006
1269.0,0.21516882187553077
1268.0,0.22497239990115525
1267.0,0.23477863369501928
1266.0,0.24435378054332002
1265.0,0.25375512827980184
1264.0,0.2626483041962855
1263.0,0.27083521030723
1262.0,0.2780245984140466
1261.0,0.2843308575990098
1260.0,0.2898826348881838
1259.0,0.29439283659539495
1258.0,0.29800052511036323
1257.0,0.3015514619846711
1256.0,0.30548254618884374
1255.0,0.3098925605436693
1254.0,0.31461659019851274
1253.0,0.32011805788713765
1252.0,0.3264262035769485
1251.0,0.33310778893346393
1250.0,0.33989377827675593
1249.0,0.34659450933549873
1248.0,0.3532043112215306
1247.0,0.3589226866746258
1246.0,0.36351210364663467
1245.0,0.36683464631609675
1244.0,0.36865771351606735
1243.0,0.368556230986828
1242.0,0.3660268442103265
1241.0,0.3617104645857432
1240.0,0.3555614105321614
1239.0,0.34746358140697464
1238.0,0.3378090091409929
1237.0,0.3269790928711038
1236.0,0.3156933539283684
1235.0,0.3039058400047767
1234.0,0.292089334286894
1233.0,0.28058584029740663
1232.0,0.2698639960033222
1231.0,0.2596373105057561
1230.0,0.2501091587285782
1229.0,0.2414665777627134
1228.0,0.23351279376030587
1227.0,0.22606735253235488
1226.0,0.21889116427053357
1225.0,0.21204387671606817
1224.0,0.20565139610391725
1223.0,0.19928292171761486
1222.0,0.1928710444075783
1221.0,0.18648572845811695
1220.0,0.180127178049454
1219.0,0.17360121781238225
1218.0,0.16691666582165698
1217.0,0.1603334431175667
1216.0,0.1538485234711846
1215.0,0.14745901423020125
1214.0,0.14128238513970826
1213.0,0.13542959314656988
1212.0,0.13006458935314003
1211.0,0.125054563914468
1210.0,0.12033079436794658
1209.0,0.11588463798833115
1208.0,0.11165198982195101
1207.0,0.10757145305477
1206.0,0.10369429253391926
1205.0,0.10001543745060903
1204.0,0.0964759355287379
1203.0,0.09301884677114591
1202.0,0.08964244272712252
1201.0,0.08645104209348209
1200.0,0.0833881548906541
1199.0,0.08045124103115198
1198.0,0.07748213975538865
1197.0,0.07463633264589853
1196.0,0.07186029312488018
1195.0,0.06915280831750303
1194.0,0.0665127121512945
1193.0,0.06408986356949264
1192.0,0.061880730805688344
1191.0,0.05988213325228142
1190.0,0.05804158346918653
1189.0,0.056456022846545606
1188.0,0.055172003656783764
1187.0,0.054186873412661596
1186.0,0.0534986094304124
1185.0,0.05310580489767336
1184.0,0.05310580489767336
1183.0,0.053449489430144714
1182.0,0.05413767551038262
1181.0,0.055122694036304765
1180.0,0.05630767289398331
1179.0,0.05749589383191922
1178.0,0.05858795962645047
1177.0,0.05948351506743288
1176.0,0.060131455540490375
1175.0,0.06033101647767336
1174.0,0.05998184499233683
1173.0,0.05898575629443026
1172.0,0.05734718830678798
1171.0,0.05522131887649295
1170.0,0.052762392129333646
1169.0,0.05021979163799939
1168.0,0.0478374257855374
1167.0,0.04585401117045196
1166.0,0.044360346976747955
1165.0,0.04339941178682327
1164.0,0.04282386959515394
1163.0,0.04248848854552012
1162.0,0.042344833056508824
1161.0,0.042392712939904875
1160.0,0.04272802000705722
1159.0,0.04315950984076644
1158.0,0.0437835307566099
1157.0,0.04455278942230456
1156.0,0.0454680573730859
1155.0,0.04667530361081473
1154.0,0.048128442871635535
1153.0,0.04987865248862655
1152.0,0.05192951848105887
1151.0,0.05428528594013993
1150.0,0.05685187064143715
1149.0,0.0595831353183347
1148.0,0.06253226035662252
1147.0,0.06565307326174441
1146.0,0.0690000580438479
1145.0,0.07268097504034388
1144.0,0.07670415934449615
1143.0,0.0809742354126397
1142.0,0.0854453014823664
1141.0,0.09017663034908807
1140.0,0.09517630019905599
1139.0,0.1005078038618683
1138.0,0.1061827760325369
1137.0,0.11232644754555254
1136.0,0.1190150095132465
1135.0,0.12621453918179926
1134.0,0.13388996015562338
1133.0,0.14206473528057106
1132.0,0.1507034591652734
1131.0,0.15964294079664376
1130.0,0.16870625562299035
1129.0,0.1778973313530796
1128.0,0.1871534630329288
1127.0,0.19620159201032594
1126.0,0.20509389348319607
1125.0,0.21381665443236653
1124.0,0.22221081256513253
1123.0,0.2301059641878309
1122.0,0.23717144681090963
1121.0,0.24336389175415185
1120.0,0.24848994972995864
1119.0,0.25219990913563106
1118.0,0.25422278211024096
1117.0,0.2548471049230996
1116.0,0.2541448048262711
1115.0,0.25258819211357686
1114.0,0.2506502394025234
1113.0,0.24949160514865376
1112.0,0.2498774732165998
1111.0,0.2521222941802099
1110.0,0.25633347855378696
1109.0,0.2626483041962855
1108.0,0.2705922030369319
1107.0,0.2795925991968915
1106.0,0.28878347567891005
1105.0,0.2979142785641751
1104.0,0.30680085484628283
1103.0,0.3147062186132159
1102.0,0.32157267756613295
1101.0,0.3274403722367243
1100.0,0.33236029394358924
1099.0,0.3359224098149254
1098.0,0.3377144842778699
1097.0,0.33818731446273875
1096.0,0.3374310330667398
1095.0,0.3352640314812949
1094.0,0.3318005158013382
1093.0,0.3273480771599975
1092.0,0.32202824718926015
1091.0,0.3159629625134803
1090.0,0.3093609882840327
1089.0,0.30268345826761656
1088.0,0.29593532059143257
1087.0,0.28903688100472436
1086.0,0.2819968317329824
1085.0,0.27506908580760214
1084.0,0.26808905788312765
1083.0,0.2607441967314894
1082.0,0.25297682254837217
1081.0,0.2448114143916751
1080.0,0.23627259623430175
1079.0,0.22731164531785852
1078.0,0.21802932608744796
1077.0,0.2089412564081745
1076.0,0.20010831534313467
1075.0,0.19158644859963192
1074.0,0.18342730397389695
1073.0,0.17587416608345108
1072.0,0.16889843549864048
1071.0,0.1624115617644888
1070.0,0.15633127702085625
1069.0,0.1507034591652734
1068.0,0.1455724942121388
1067.0,0.14086170270546927
1066.0,0.13649869935854997
1065.0,0.13235576609690147
1064.0,0.12854382597704617
1063.0,0.124996646399959
1062.0,0.12170805075020397
1061.0,0.11878658374498086
1060.0,0.11633856484638239
1059.0,0.11418662533951118
1058.0,0.11243895906999102
1057.0,0.11103465569966264
1056.0,0.11002636159600376
1055.0,0.10935546370475246
1054.0,0.10885296955122903
1053.0,0.10868560061785693
1052.0,0.10885296955122903
1051.0,0.10918790104487552
1050.0,0.10957898119908571
1049.0,0.11002636159600376
1048.0,0.11041819785037621
1047.0,0.1106422631110684
1046.0,0.11075433910702048
1045.0,0.1106422631110684
1044.0,0.11036219959333216
1043.0,0.10974669484546551
1042.0,0.10868560061785693
1041.0,0.10734896612269962
1040.0,0.10562854614376227
1039.0,0.10369429253391926
1038.0,0.10154908080162528
1037.0,0.09935981601739963
1036.0,0.0972358560759139
1035.0,0.09506817260434741
1034.0,0.09296504751658308
1033.0,0.09097914578884403
1032.0,0.0892155652071629
1031.0,0.08783110394037297
1030.0,0.08714052483764512
1029.0,0.0877779434675845
1028.0,0.09044397075882471
1027.0,0.09582563171583658
1026.0,0.10424605792627206
1025.0,0.11577123036739612
1024.0,0.13000599987825812
1023.0,0.1461193498754576
1022.0,0.16348600110932865
1021.0,0.18104868835982724
1020.0,0.19736308191718943
1019.0,0.2102078322693246
1018.0,0.21702600505595182
1017.0,0.21645371772965016
1016.0,0.20859008433283988
1015.0,0.19517932127883775
1014.0,0.17887967622317635
1013.0,0.16266413198498508
1012.0,0.14819148577176255
1011.0,0.1360826230421397
1010.0,0.12621453918179926
1009.0,0.11821604440661537
1008.0,0.11165198982195101
1007.0,0.10623823794205656
1006.0,0.10171372141087698
1005.0,0.09799710864927058
1004.0,0.09496007192378841
1003.0,0.09248115389337075
1002.0,0.09033701484598189
1001.0,0.08841629901892434
1000.0,0.08661005636824437
999.0,0.08481129482684358
998.0,0.08317771540408803
997.0,0.08170748724464438
996.0,0.0805035121369384
995.0,0.0794592834975203
994.0,0.07852161962430992
993.0,0.07789763319239285
992.0,0.07748213975538865
991.0,0.0772226580712021
990.0,0.07711890879170658
989.0,0.07711890879170658
988.0,0.07717078033335123
987.0,0.0772226580712021
986.0,0.07743023101428781
985.0,0.07779372256098371
984.0,0.07836553894629472
983.0,0.07930286553008004
982.0,0.08045124103115198
981.0,0.08186477383364066
980.0,0.08344078069888616
979.0,0.08518101955252688
978.0,0.08687520961044104
977.0,0.08868255767596933
976.0,0.09044397075882471
975.0,0.0919441259012328
974.0,0.09318028453345462
973.0,0.09398837472858723
972.0,0.09431203228814788
971.0,0.09404230090757282
970.0,0.09328794305703592
969.0,0.09210516458371698
968.0,0.09060445403289452
967.0,0.08873582900163002
966.0,0.08666307406737683
965.0,0.08449463824562353
964.0,0.08238947425013277
963.0,0.08018997982980403
962.0,0.07794959783282618
961.0,0.07582412969807906
960.0,0.07376047895413773
959.0,0.07186029312488018
958.0,0.07007043991541217
957.0,0.06844043290919477
956.0,0.06696850489759454
955.0,0.06560255921901192
954.0,0.06424089625468832
953.0,0.06293368798257193
952.0,0.061780582187257016
951.0,0.060730413661268745
950.0,0.05973260855398799
949.0,0.058786812414678646
948.0,0.05789269101064454
947.0,0.05709945885970602
946.0,0.056456022846545606
945.0,0.055961719945581745
944.0,0.055566682299785564
943.0,0.055172003656783764
942.0,0.054679159207724926
941.0,0.054186873412661596
940.0,0.05374429280060267
939.0,0.053351266093323746
938.0,0.05305672930217464
937.0,0.05286048235717078
936.0,0.05266432405126009
935.0,0.05237025261564554
934.0,0.052027420754219955
933.0,0.051684859310652254
932.0,0.05129369109514803
931.0,0.050805225762017736
930.0,0.05026854768429301
929.0,0.04982994019179987
928.0,0.04944043838819989
927.0,0.049148541111453614
926.0,0.048808242065293994
925.0,0.048468209457651845
924.0,0.048225491918274965
923.0,0.04803141550708934
922.0,0.0478374257855374
921.0,0.047643522676209304
920.0,0.047352830241056854
919.0,0.04696554274964315
918.0,0.04653025674659861
917.0,0.046143701775014145
916.0,0.045902279520810385
915.0,0.045902279520810385
914.0,0.04599883231842972
913.0,0.04624030826677128
912.0,0.04657860031896477
911.0,0.047062332249019345
910.0,0.047691990337874746
909.0,0.048468209457651845
908.0,0.04939177521576932
907.0,0.05036607620073763
906.0,0.05144033789103841
905.0,0.05256627811294923
904.0,0.053596866100945384
903.0,0.05453141486818014
902.0,0.05536929814372171
901.0,0.05610995175152733
900.0,0.05680236993107379
899.0,0.05729763111133224
898.0,0.0575950591438934
897.0,0.0575950591438934
896.0,0.057396751157843484
895.0,0.057049929922901255
894.0,0.05660442349104544
893.0,0.056159373598738904
892.0,0.055764156206519866
891.0,0.055566682299785564
890.0,0.05571477931124735
889.0,0.05635711724787096
888.0,0.05744631966579017
887.0,0.059035506507200575
886.0,0.06128018521761747
885.0,0.06434161389936577
884.0,0.06833876031551878
883.0,0.07319468988839395
882.0,0.07899019850296574
881.0,0.08555105930144569
880.0,0.09274991711867164
879.0,0.10045306890913297
878.0,0.10857405715200596
877.0,0.11730473761840288
876.0,0.12685384867174432
875.0,0.13661765155921235
874.0,0.14520830594601453
873.0,0.15045774799498335
872.0,0.15045774799498335
871.0,0.1447838052666366
870.0,0.1350738084609946
869.0,0.12407101507707297
868.0,0.11379137583250243
867.0,0.10513034325474746
866.0,0.09832376867362447
865.0,0.09318028453345462
864.0,0.08932224525729482
863.0,0.08645104209348209
862.0,0.08428366205400617
861.0,0.08275714209253371
860.0,0.08181233864107451
859.0,0.08118360963962057
858.0,0.08092190762392604
857.0,0.08092190762392604
856.0,0.0812883346176787
855.0,0.08170748724464438
854.0,0.08217951800630297
853.0,0.08280969148843575
852.0,0.08370400543686918
851.0,0.08491689834879956
850.0,0.08634506491338012
849.0,0.08767164203958999
848.0,0.0884695376928375
847.0,0.0885227828938977
846.0,0.08793744441149753
845.0,0.08687520961044104
844.0,0.08549817717268593
843.0,0.08370400543686918
842.0,0.08165507103772507
841.0,0.07956359344924135
840.0,0.07758597585436577
839.0,0.07556563645676939
838.0,0.07350321072677968
837.0,0.07145053299833615
836.0,0.06950943469373039
835.0,0.06752623532284674
834.0,0.06560255921901192
833.0,0.06373765809652254
832.0,0.06203099704854709
831.0,0.060430831344098435
830.0,0.05898575629443026
829.0,0.057743849580535134
828.0,0.05665390164340933
827.0,0.05561604235915585
826.0,0.05453141486818014
825.0,0.053596866100945384
824.0,0.05290953578037816
823.0,0.05232126006306337
822.0,0.05178270644002936
821.0,0.05119595406718891
820.0,0.05065879322950262
819.0,0.05021979163799939
818.0,0.049927370249842395
817.0,0.04973253198641148
816.0,0.04958646063061889
815.0,0.04944043838819989
814.0,0.04934311749548925
813.0,0.049294465226138895
812.0,0.04909991063361274
811.0,0.04885683989244738
810.0,0.048468209457651845
809.0,0.04807992647970649
808.0,0.047691990337874746
807.0,0.04740126547022694
806.0,0.04725597598510167
805.0,0.047062332249019345
804.0,0.04677202844014605
803.0,0.04624030826677128
802.0,0.045660991397539874
801.0,0.04522701031028298
800.0,0.04522701031028298
799.0,0.045902279520810385
798.0,0.047643522676209304
797.0,0.05056119896349576
796.0,0.05428528594013993
795.0,0.05794231615860479
794.0,0.06063052992534024
793.0,0.06163040254819374
792.0,0.06093025007657582
791.0,0.058836539841526925
790.0,0.055961719945581745
789.0,0.05305672930217464
788.0,0.050463626623857394
787.0,0.04807992647970649
786.0,0.04585401117045196
785.0,0.043735497301724546
784.0,0.04196198390166317
783.0,0.04057697805689475
782.0,0.03948165721929198
781.0,0.03848398855105106
780.0,0.03744126420403626
779.0,0.03630659476198117
778.0,0.03522197797762394
777.0,0.03432802877989327
776.0,0.03357665405630694
775.0,0.03282657704446046
774.0,0.03193753992355086
773.0,0.030910397045078586
772.0,0.029839156962686353
771.0,0.028770552723758724
770.0,0.027889771597169544
769.0,0.027056991894431892
768.0,0.026271941311972746
767.0,0.02539620791296726
766.0,0.024522236834125355
765.0,0.023787622882622816
764.0,0.023237476732539397
763.0,0.022733787572707387
762.0,0.022230681908425698
761.0,0.02168250325324883
760.0,0.021135015652343103
759.0,0.02058821736556471
758.0,0.02022406727031445
757.0,0.019996628416253603
756.0,0.01990568621470623
755.0,0.01990568621470623
754.0,0.020087589665283012
753.0,0.02045162529590483
752.0,0.020724852408976924
751.0,0.020861530453190058
750.0,0.0209982515252789
749.0,0.0214542995372613
748.0,0.022322112326006227
747.0,0.02355831062115543
746.0,0.025074013910237447
745.0,0.027056991894431892
744.0,0.029792641193145286
743.0,0.033482823553208085
742.0,0.03862637240519895
741.0,0.04570923829887308
740.0,0.05507339001378431
739.0,0.06661395809694559
738.0,0.08018997982980403
737.0,0.0955549589230904
736.0,0.11238269966426384
735.0,0.12994741830645506
734.0,0.14782509557969692
733.0,0.16596098184053343
732.0,0.18448866263723573
731.0,0.20349504844670374
730.0,0.2230809971579535
729.0,0.24336389175415185
728.0,0.26376290109527134
727.0,0.2825791632776251
726.0,0.2976556416442313
725.0,0.3073293008436311
724.0,0.3106911408763797
723.0,0.30794663496591923
722.0,0.30085631260551615
721.0,0.29200425357707105
720.0,0.2832456425673029
719.0,0.27466018409026294
718.0,0.26600071346161314
717.0,0.2571178285627269
716.0,0.24787469270210183
715.0,0.23814730553361696
714.0,0.22819212100089437
713.0,0.2186036948032093
712.0,0.20957408260888943
711.0,0.20086630669793704
710.0,0.19239733008350535
709.0,0.18462151503408197
708.0,0.17750501472124913
707.0,0.17088928984470542
706.0,0.1646899991309374
705.0,0.1588909155318461
704.0,0.15323004646278116
703.0,0.14733705565543076
702.0,0.1409818561111058
701.0,0.13418561983203192
700.0,0.12743585690934855
699.0,0.12090412049992727
698.0,0.11475189221861393
697.0,0.10913206118855912
696.0,0.10419084983086901
695.0,0.09990609845660159
694.0,0.09625905937846135
693.0,0.09312646527792956
692.0,0.09028354676565531
691.0,0.08783110394037297
690.0,0.08586848736910624
689.0,0.08428366205400617
688.0,0.08286224724355584
687.0,0.08144546944972642
686.0,0.08029446545087904
685.0,0.07951143534170213
684.0,0.079094395835976
683.0,0.07872981449018734
682.0,0.07846958649875768
681.0,0.07826151631540124
680.0,0.0777417765670334
679.0,0.07644514193245056
678.0,0.07448164182257
677.0,0.07247565912497134
676.0,0.07078549626260622
675.0,0.06930561233546473
674.0,0.06772922410050963
673.0,0.06590573164451952
672.0,0.06373765809652254
671.0,0.06093025007657582
670.0,0.05744631966579017
669.0,0.0534986094304124
668.0,0.051098239029786274
667.0,0.05134256785867963
666.0,0.0518316382728683
665.0,0.05144033789103841
664.0,0.05065879322950262
663.0,0.04958646063061889
662.0,0.048225491918274965
661.0,0.04682039893436585
660.0,0.04599883231842972
659.0,0.04585401117045196
658.0,0.04580574818413763
657.0,0.04527520902093718
656.0,0.044312249686494276
655.0,0.0433514207947967
654.0,0.04253638427006878
653.0,0.0417706858116178
652.0,0.040958607678906356
651.0,0.040338629726504704
650.0,0.0402909757535701
649.0,0.04072004986906119
648.0,0.041101805289228244
647.0,0.04081545726880842
646.0,0.039719535563357944
645.0,0.038436537637930535
644.0,0.03772539537668518
643.0,0.03800971255993524
642.0,0.03924390909822728
641.0,0.04086316882962593
640.0,0.042201225070002124
639.0,0.04287180232318688
638.0,0.043063586155803746
637.0,0.04320747962950522
636.0,0.04368746915880539
635.0,0.04440844959427559
634.0,0.0454680573730859
633.0,0.04667530361081473
632.0,0.047643522676209304
631.0,0.04754660357696672
630.0,0.046481918555007384
629.0,0.045323413081356456
628.0,0.04469717723830824
627.0,0.044360346976747955
626.0,0.0437835307566099
625.0,0.042775942156833
624.0,0.04172287445230238
623.0,0.041006334969674096
622.0,0.04076775094900409
621.0,0.04057697805689475
620.0,0.04010041213405646
619.0,0.03919637508823026
618.0,0.038341651362284734
617.0,0.03800971255993524
616.0,0.038199360808321536
615.0,0.038341651362284734
614.0,0.03800971255993524
613.0,0.037346595106788616
612.0,0.036542739883292485
611.0,0.03583468937826462
610.0,0.03503362516890207
609.0,0.03409308450480819
608.0,0.03301397488206215
607.0,0.03175060589208267
606.0,0.030351159519274695
605.0,0.029002634427514717
604.0,0.02812138297373412
603.0,0.027936083991977778
602.0,0.02863136320857662
601.0,0.029792641193145286
600.0,0.03081714076773867
