cm-1,A
4000.0,-0.0006
3999.0,-0.0006
3998.0,-0.0005
3997.0,-0.0005
3996.0,-0.0004
3995.0,-0.0003
3994.0,-0.0003
3993.0,-0.0003
3992.0,-0.0004
3991.0,-0.0004
3990.0,-0.0005
3989.0,-0.0005
3988.0,-0.0005
3987.0,-0.0004
3986.0,-0.0003
3985.0,-0.0003
3984.0,-0.0003
3983.0,-0.0003
3982.0,-0.0003
3981.0,-0.0003
3980.0,-0.0003
3979.0,-0.0003
3978.0,-0.0002
3977.0,-0.0002
3976.0,-0.0002
3975.0,-0.0002
3974.0,-0.0003
3973.0,-0.0003
3972.0,-0.0003
3971.0,-0.0003
3970.0,-0.0003
3969.0,-0.0002
3968.0,-0.0002
3967.0,-0.0002
3966.0,-0.0002
3965.0,-0.0003
3964.0,-0.0003
3963.0,-0.0003
3962.0,-0.0003
3961.0,-0.0003
3960.0,-0.0003
3959.0,-0.0003
3958.0,-0.0004
3957.0,-0.0004
3956.0,-0.0004
3955.0,-0.0004
3954.0,-0.0003
3953.0,-0.0003
3952.0,-0.0003
3951.0,-0.0003
3950.0,-0.0002
3949.0,-0.0002
3948.0,-0.0001
3947.0,-0.0001
3946.0,-0.0001
3945.0,-0.0002
3944.0,-0.0002
3943.0,-0.0003
3942.0,-0.0003
3941.0,-0.0004
3940.0,-0.0004
3939.0,-0.0004
3938.0,-0.0004
3937.0,-0.0004
3936.0,-0.0004
3935.0,-0.0003
3934.0,-0.0002
3933.0,-0.0002
3932.0,-0.0002
3931.0,-0.0002
3930.0,-0.0002
3929.0,-0.0002
3928.0,-0.0002
3927.0,-0.0002
3926.0,-0.0002
3925.0,-0.0002
3924.0,-0.0003
3923.0,-0.0003
3922.0,-0.0003
3921.0,-0.0002
3920.0,-0.0002
3919.0,-0.0003
3918.0,-0.0003
3917.0,-0.0003
3916.0,-0.0003
3915.0,-0.0003
3914.0,-0.0003
3913.0,-0.0003
3912.0,-0.0003
3911.0,-0.0003
3910.0,-0.0003
3909.0,-0.0003
3908.0,-0.0003
3907.0,-0.0002
3906.0,-0.0002
3905.0,-0.0001
3904.0,-0.0002
3903.0,-0.0003
3902.0,-0.0004
3901.0,-0.0005
3900.0,-0.0005
3899.0,-0.0005
3898.0,-0.0004
3897.0,-0.0003
3896.0,-0.0003
3895.0,-0.0003
3894.0,-0.0003
3893.0,-0.0004
3892.0,-0.0005
3891.0,-0.0005
3890.0,-0.0004
3889.0,-0.0003
3888.0,-0.0003
3887.0,-0.0002
3886.0,-0.0003
3885.0,-0.0003
3884.0,-0.0003
3883.0,-0.0003
3882.0,-0.0003
3881.0,-0.0002
3880.0,-0.0002
3879.0,-0.0002
3878.0,-0.0002
3877.0,-0.0001
3876.0,-0.0001
3875.0,0.0
3874.0,0.0001
3873.0,0.0001
3872.0,0.0
3871.0,-0.0
3870.0,-0.0001
3869.0,-0.0001
3868.0,-0.0001
3867.0,0.0
3866.0,0.0001
3865.0,0.0001
3864.0,0.0
3863.0,-0.0
3862.0,-0.0001
3861.0,-0.0001
3860.0,-0.0002
3859.0,-0.0001
3858.0,-0.0001
3857.0,-0.0001
3856.0,-0.0001
3855.0,-0.0003
3854.0,-0.0005
3853.0,-0.0006
3852.0,-0.0006
3851.0,-0.0006
3850.0,-0.0005
3849.0,-0.0005
3848.0,-0.0005
3847.0,-0.0005
3846.0,-0.0004
3845.0,-0.0002
3844.0,-0.0001
3843.0,0.0001
3842.0,0.0002
3841.0,0.0002
3840.0,0.0001
3839.0,0.0001
3838.0,0.0001
3837.0,0.0001
3836.0,0.0001
3835.0,0.0
3834.0,-0.0001
3833.0,-0.0001
3832.0,-0.0002
3831.0,-0.0001
3830.0,-0.0001
3829.0,-0.0
3828.0,-0.0001
3827.0,-0.0002
3826.0,-0.0002
3825.0,-0.0002
3824.0,-0.0002
3823.0,-0.0001
3822.0,0.0
3821.0,0.0
3820.0,-0.0
3819.0,-0.0
3818.0,-0.0
3817.0,-0.0
3816.0,-0.0001
3815.0,-0.0001
3814.0,-0.0002
3813.0,-0.0002
3812.0,-0.0002
3811.0,-0.0002
3810.0,-0.0002
3809.0,-0.0002
3808.0,-0.0002
3807.0,-0.0002
3806.0,-0.0002
3805.0,-0.0001
3804.0,-0.0
3803.0,0.0001
3802.0,0.0001
3801.0,0.0001
3800.0,0.0001
3799.0,0.0
3798.0,-0.0
3797.0,-0.0001
3796.0,-0.0001
3795.0,-0.0002
3794.0,-0.0003
3793.0,-0.0003
3792.0,-0.0003
3791.0,-0.0003
3790.0,-0.0003
3789.0,-0.0003
3788.0,-0.0002
3787.0,-0.0001
3786.0,-0.0001
3785.0,-0.0
3784.0,-0.0
3783.0,-0.0001
3782.0,-0.0001
3781.0,-0.0001
3780.0,-0.0002
3779.0,-0.0002
3778.0,-0.0003
3777.0,-0.0003
3776.0,-0.0003
3775.0,-0.0003
3774.0,-0.0003
3773.0,-0.0002
3772.0,-0.0002
3771.0,-0.0001
3770.0,-0.0001
3769.0,-0.0001
3768.0,-0.0
3767.0,-0.0
3766.0,-0.0
3765.0,-0.0001
3764.0,-0.0002
3763.0,-0.0002
3762.0,-0.0002
3761.0,-0.0001
3760.0,-0.0
3759.0,0.0
3758.0,0.0001
3757.0,0.0001
3756.0,0.0001
3755.0,0.0001
3754.0,0.0001
3753.0,0.0
3752.0,-0.0001
3751.0,-0.0002
3750.0,-0.0002
3749.0,-0.0001
3748.0,-0.0001
3747.0,-0.0
3746.0,-0.0
3745.0,-0.0001
3744.0,-0.0002
3743.0,-0.0003
3742.0,-0.0003
3741.0,-0.0003
3740.0,-0.0004
3739.0,-0.0005
3738.0,-0.0005
3737.0,-0.0004
3736.0,-0.0002
3735.0,-0.0001
3734.0,-0.0001
3733.0,-0.0001
3732.0,-0.0001
3731.0,-0.0001
3730.0,-0.0001
3729.0,-0.0
3728.0,0.0
3727.0,0.0001
3726.0,0.0001
3725.0,0.0002
3724.0,0.0002
3723.0,0.0001
3722.0,-0.0001
3721.0,-0.0002
3720.0,-0.0002
3719.0,-0.0002
3718.0,-0.0002
3717.0,-0.0003
3716.0,-0.0004
3715.0,-0.0004
3714.0,-0.0003
3713.0,-0.0002
3712.0,-0.0
3711.0,0.0001
3710.0,0.0001
3709.0,-0.0001
3708.0,-0.0002
3707.0,-0.0003
3706.0,-0.0002
3705.0,-0.0002
3704.0,-0.0
3703.0,0.0001
3702.0,0.0001
3701.0,0.0001
3700.0,-0.0
3699.0,-0.0001
3698.0,-0.0001
3697.0,-0.0002
3696.0,-0.0002
3695.0,-0.0002
3694.0,-0.0001
3693.0,-0.0
3692.0,0.0001
3691.0,0.0002
3690.0,0.0002
3689.0,0.0
3688.0,-0.0001
3687.0,-0.0003
3686.0,-0.0004
3685.0,-0.0004
3684.0,-0.0004
3683.0,-0.0003
3682.0,-0.0002
3681.0,-0.0
3680.0,0.0
3679.0,0.0
3678.0,0.0
3677.0,0.0
3676.0,0.0
3675.0,-0.0
3674.0,-0.0001
3673.0,-0.0002
3672.0,-0.0003
3671.0,-0.0004
3670.0,-0.0004
3669.0,-0.0003
3668.0,-0.0003
3667.0,-0.0003
3666.0,-0.0003
3665.0,-0.0003
3664.0,-0.0003
3663.0,-0.0003
3662.0,-0.0003
3661.0,-0.0003
3660.0,-0.0002
3659.0,-0.0001
3658.0,-0.0
3657.0,0.0
3656.0,0.0001
3655.0,0.0001
3654.0,0.0001
3653.0,0.0002
3652.0,0.0002
3651.0,0.0002
3650.0,0.0001
3649.0,0.0002
3648.0,0.0003
3647.0,0.0003
3646.0,0.0002
3645.0,0.0
3644.0,-0.0001
3643.0,-0.0003
3642.0,-0.0004
3641.0,-0.0005
3640.0,-0.0005
3639.0,-0.0004
3638.0,-0.0003
3637.0,-0.0002
3636.0,-0.0001
3635.0,-0.0001
3634.0,-0.0001
3633.0,-0.0001
3632.0,-0.0001
3631.0,-0.0002
3630.0,-0.0002
3629.0,-0.0002
3628.0,-0.0001
3627.0,-0.0001
3626.0,-0.0
3625.0,-0.0
3624.0,-0.0
3623.0,0.0
3622.0,0.0001
3621.0,0.0001
3620.0,0.0001
3619.0,0.0001
3618.0,0.0001
3617.0,0.0001
3616.0,0.0
3615.0,-0.0
3614.0,-0.0001
3613.0,-0.0002
3612.0,-0.0003
3611.0,-0.0003
3610.0,-0.0003
3609.0,-0.0003
3608.0,-0.0003
3607.0,-0.0002
3606.0,-0.0002
3605.0,-0.0002
3604.0,-0.0002
3603.0,-0.0001
3602.0,0.0001
3601.0,0.0001
3600.0,0.0001
3599.0,0.0001
3598.0,-0.0001
3597.0,-0.0002
3596.0,-0.0003
3595.0,-0.0003
3594.0,-0.0003
3593.0,-0.0003
3592.0,-0.0002
3591.0,-0.0001
3590.0,-0.0001
3589.0,-0.0001
3588.0,-0.0002
3587.0,-0.0002
3586.0,-0.0001
3585.0,-0.0
3584.0,-0.0
3583.0,-0.0
3582.0,-0.0
3581.0,-0.0
3580.0,-0.0001
3579.0,-0.0001
3578.0,-0.0001
3577.0,-0.0002
3576.0,-0.0001
3575.0,-0.0001
3574.0,-0.0
3573.0,0.0
3572.0,0.0
3571.0,-0.0
3570.0,0.0
3569.0,0.0
3568.0,0.0001
3567.0,0.0001
3566.0,0.0001
3565.0,0.0001
3564.0,0.0001
3563.0,0.0
3562.0,0.0
3561.0,-0.0001
3560.0,-0.0001
3559.0,-0.0002
3558.0,-0.0003
3557.0,-0.0003
3556.0,-0.0003
3555.0,-0.0003
3554.0,-0.0002
3553.0,-0.0002
3552.0,-0.0001
3551.0,-0.0
3550.0,0.0
3549.0,0.0
3548.0,0.0
3547.0,-0.0
3546.0,-0.0001
3545.0,-0.0001
3544.0,-0.0001
3543.0,-0.0002
3542.0,-0.0002
3541.0,-0.0003
3540.0,-0.0003
3539.0,-0.0002
3538.0,-0.0002
3537.0,-0.0001
3536.0,-0.0001
3535.0,-0.0001
3534.0,-0.0001
3533.0,-0.0001
3532.0,-0.0001
3531.0,-0.0
3530.0,0.0
3529.0,0.0001
3528.0,0.0002
3527.0,0.0002
3526.0,0.0002
3525.0,0.0001
3524.0,0.0001
3523.0,0.0
3522.0,-0.0
3521.0,-0.0001
3520.0,-0.0001
3519.0,-0.0
3518.0,-0.0
3517.0,0.0
3516.0,0.0001
3515.0,0.0001
3514.0,0.0
3513.0,-0.0
3512.0,-0.0001
3511.0,-0.0001
3510.0,-0.0001
3509.0,-0.0
3508.0,0.0
3507.0,0.0001
3506.0,0.0001
3505.0,0.0001
3504.0,0.0001
3503.0,0.0001
3502.0,0.0001
3501.0,0.0001
3500.0,0.0001
3499.0,0.0001
3498.0,0.0002
3497.0,0.0002
3496.0,0.0003
3495.0,0.0003
3494.0,0.0002
3493.0,0.0002
3492.0,0.0002
3491.0,0.0002
3490.0,0.0002
3489.0,0.0002
3488.0,0.0002
3487.0,0.0002
3486.0,0.0003
3485.0,0.0003
3484.0,0.0003
3483.0,0.0003
3482.0,0.0002
3481.0,0.0002
3480.0,0.0001
3479.0,0.0002
3478.0,0.0002
3477.0,0.0003
3476.0,0.0004
3475.0,0.0004
3474.0,0.0004
3473.0,0.0003
3472.0,0.0003
3471.0,0.0004
3470.0,0.0004
3469.0,0.0005
3468.0,0.0005
3467.0,0.0005
3466.0,0.0004
3465.0,0.0004
3464.0,0.0004
3463.0,0.0004
3462.0,0.0004
3461.0,0.0004
3460.0,0.0004
3459.0,0.0005
3458.0,0.0005
3457.0,0.0005
3456.0,0.0005
3455.0,0.0004
3454.0,0.0004
3453.0,0.0003
3452.0,0.0003
3451.0,0.0003
3450.0,0.0003
3449.0,0.0003
3448.0,0.0004
3447.0,0.0004
3446.0,0.0005
3445.0,0.0005
3444.0,0.0005
3443.0,0.0005
3442.0,0.0005
3441.0,0.0005
3440.0,0.0005
3439.0,0.0004
3438.0,0.0004
3437.0,0.0003
3436.0,0.0003
3435.0,0.0003
3434.0,0.0003
3433.0,0.0004
3432.0,0.0004
3431.0,0.0005
3430.0,0.0005
3429.0,0.0006
3428.0,0.0006
3427.0,0.0007
3426.0,0.0007
3425.0,0.0007
3424.0,0.0007
3423.0,0.0008
3422.0,0.0008
3421.0,0.0009
3420.0,0.0009
3419.0,0.0009
3418.0,0.0009
3417.0,0.001
3416.0,0.0011
3415.0,0.0011
3414.0,0.001
3413.0,0.0009
3412.0,0.0008
3411.0,0.0008
3410.0,0.0008
3409.0,0.0008
3408.0,0.0007
3407.0,0.0006
3406.0,0.0006
3405.0,0.0007
3404.0,0.0008
3403.0,0.0008
3402.0,0.0008
3401.0,0.0008
3400.0,0.0008
3399.0,0.0009
3398.0,0.0009
3397.0,0.0009
3396.0,0.0009
3395.0,0.0009
3394.0,0.0009
3393.0,0.0008
3392.0,0.0008
3391.0,0.0007
3390.0,0.0006
3389.0,0.0005
3388.0,0.0004
3387.0,0.0004
3386.0,0.0005
3385.0,0.0007
3384.0,0.0008
3383.0,0.0009
3382.0,0.0009
3381.0,0.0008
3380.0,0.0007
3379.0,0.0007
3378.0,0.0007
3377.0,0.0007
3376.0,0.0007
3375.0,0.0007
3374.0,0.0007
3373.0,0.0006
3372.0,0.0006
3371.0,0.0006
3370.0,0.0005
3369.0,0.0005
3368.0,0.0006
3367.0,0.0007
3366.0,0.0007
3365.0,0.0006
3364.0,0.0005
3363.0,0.0004
3362.0,0.0004
3361.0,0.0003
3360.0,0.0003
3359.0,0.0003
3358.0,0.0003
3357.0,0.0003
3356.0,0.0004
3355.0,0.0004
3354.0,0.0004
3353.0,0.0004
3352.0,0.0003
3351.0,0.0003
3350.0,0.0003
3349.0,0.0003
3348.0,0.0003
3347.0,0.0003
3346.0,0.0003
3345.0,0.0004
3344.0,0.0004
3343.0,0.0004
3342.0,0.0004
3341.0,0.0005
3340.0,0.0005
3339.0,0.0005
3338.0,0.0004
3337.0,0.0003
3336.0,0.0002
3335.0,0.0003
3334.0,0.0004
3333.0,0.0004
3332.0,0.0004
3331.0,0.0003
3330.0,0.0003
3329.0,0.0003
3328.0,0.0004
3327.0,0.0004
3326.0,0.0004
3325.0,0.0004
3324.0,0.0003
3323.0,0.0002
3322.0,0.0001
3321.0,-0.0
3320.0,-0.0
3319.0,0.0001
3318.0,0.0002
3317.0,0.0002
3316.0,0.0003
3315.0,0.0002
3314.0,0.0002
3313.0,0.0001
3312.0,0.0001
3311.0,0.0001
3310.0,0.0001
3309.0,0.0001
3308.0,0.0001
3307.0,0.0001
3306.0,0.0
3305.0,0.0
3304.0,0.0
3303.0,0.0001
3302.0,0.0002
3301.0,0.0003
3300.0,0.0004
3299.0,0.0003
3298.0,0.0002
3297.0,0.0001
3296.0,0.0001
3295.0,0.0001
3294.0,0.0001
3293.0,0.0001
3292.0,0.0002
3291.0,0.0002
3290.0,0.0002
3289.0,0.0003
3288.0,0.0003
3287.0,0.0002
3286.0,0.0002
3285.0,0.0002
3284.0,0.0002
3283.0,0.0002
3282.0,0.0002
3281.0,0.0002
3280.0,0.0001
3279.0,0.0001
3278.0,0.0
3277.0,-0.0001
3276.0,-0.0001
3275.0,-0.0
3274.0,0.0002
3273.0,0.0003
3272.0,0.0004
3271.0,0.0004
3270.0,0.0003
3269.0,0.0002
3268.0,0.0003
3267.0,0.0003
3266.0,0.0003
3265.0,0.0003
3264.0,0.0003
3263.0,0.0002
3262.0,0.0002
3261.0,0.0001
3260.0,0.0
3259.0,-0.0001
3258.0,-0.0001
3257.0,-0.0
3256.0,0.0
3255.0,0.0001
3254.0,0.0001
3253.0,0.0001
3252.0,0.0001
3251.0,0.0001
3250.0,0.0
3249.0,0.0
3248.0,-0.0
3247.0,0.0
3246.0,0.0001
3245.0,0.0002
3244.0,0.0003
3243.0,0.0004
3242.0,0.0003
3241.0,0.0003
3240.0,0.0002
3239.0,0.0001
3238.0,0.0001
3237.0,0.0001
3236.0,0.0002
3235.0,0.0001
3234.0,0.0001
3233.0,0.0
3232.0,-0.0
3231.0,-0.0
3230.0,-0.0
3229.0,0.0
3228.0,0.0001
3227.0,0.0001
3226.0,0.0
3225.0,-0.0001
3224.0,-0.0001
3223.0,-0.0
3222.0,0.0
3221.0,0.0001
3220.0,0.0002
3219.0,0.0002
3218.0,0.0002
3217.0,0.0001
3216.0,0.0001
3215.0,0.0001
3214.0,0.0001
3213.0,0.0
3212.0,0.0
3211.0,-0.0
3210.0,-0.0001
3209.0,-0.0001
3208.0,-0.0001
3207.0,-0.0
3206.0,0.0001
3205.0,0.0001
3204.0,0.0001
3203.0,0.0001
3202.0,0.0001
3201.0,0.0001
3200.0,0.0002
3199.0,0.0002
3198.0,0.0002
3197.0,0.0001
3196.0,0.0
3195.0,-0.0
3194.0,-0.0001
3193.0,-0.0001
3192.0,-0.0
3191.0,0.0
3190.0,0.0001
3189.0,0.0001
3188.0,0.0001
3187.0,0.0001
3186.0,0.0001
3185.0,0.0
3184.0,0.0
3183.0,0.0
3182.0,-0.0
3181.0,-0.0001
3180.0,-0.0001
3179.0,-0.0001
3178.0,-0.0
3177.0,0.0
3176.0,0.0
3175.0,0.0001
3174.0,0.0001
3173.0,0.0002
3172.0,0.0001
3171.0,-0.0
3170.0,-0.0002
3169.0,-0.0003
3168.0,-0.0003
3167.0,-0.0002
3166.0,-0.0001
3165.0,-0.0
3164.0,0.0
3163.0,0.0
3162.0,-0.0
3161.0,-0.0001
3160.0,-0.0001
3159.0,-0.0001
3158.0,-0.0001
3157.0,-0.0001
3156.0,-0.0001
3155.0,-0.0001
3154.0,-0.0001
3153.0,-0.0
3152.0,0.0
3151.0,0.0
3150.0,0.0001
3149.0,0.0002
3148.0,0.0002
3147.0,0.0002
3146.0,0.0002
3145.0,0.0001
3144.0,0.0
3143.0,-0.0
3142.0,-0.0001
3141.0,-0.0002
3140.0,-0.0002
3139.0,-0.0002
3138.0,-0.0002
3137.0,-0.0002
3136.0,-0.0001
3135.0,-0.0001
3134.0,-0.0001
3133.0,-0.0001
3132.0,-0.0001
3131.0,-0.0001
3130.0,-0.0001
3129.0,-0.0001
3128.0,-0.0001
3127.0,-0.0001
3126.0,-0.0001
3125.0,-0.0001
3124.0,-0.0001
3123.0,-0.0001
3122.0,-0.0002
3121.0,-0.0002
3120.0,-0.0002
3119.0,-0.0002
3118.0,-0.0002
3117.0,-0.0001
3116.0,-0.0001
3115.0,-0.0001
3114.0,-0.0
3113.0,-0.0
3112.0,-0.0
3111.0,0.0
3110.0,0.0
3109.0,0.0
3108.0,0.0
3107.0,-0.0
3106.0,-0.0
3105.0,-0.0001
3104.0,-0.0002
3103.0,-0.0003
3102.0,-0.0003
3101.0,-0.0003
3100.0,-0.0002
3099.0,-0.0002
3098.0,-0.0002
3097.0,-0.0002
3096.0,-0.0001
3095.0,-0.0001
3094.0,-0.0001
3093.0,-0.0001
3092.0,-0.0002
3091.0,-0.0002
3090.0,-0.0002
3089.0,-0.0001
3088.0,-0.0001
3087.0,-0.0
3086.0,-0.0
3085.0,-0.0001
3084.0,-0.0001
3083.0,-0.0002
3082.0,-0.0002
3081.0,-0.0002
3080.0,-0.0002
3079.0,-0.0002
3078.0,-0.0001
3077.0,-0.0
3076.0,0.0001
3075.0,0.0001
3074.0,0.0
3073.0,-0.0001
3072.0,-0.0002
3071.0,-0.0002
3070.0,-0.0001
3069.0,-0.0001
3068.0,-0.0001
3067.0,-0.0001
3066.0,-0.0001
3065.0,-0.0001
3064.0,-0.0002
3063.0,-0.0002
3062.0,-0.0002
3061.0,-0.0001
3060.0,-0.0
3059.0,0.0
3058.0,0.0
3057.0,-0.0
3056.0,-0.0001
3055.0,-0.0001
3054.0,-0.0001
3053.0,-0.0001
3052.0,-0.0
3051.0,-0.0
3050.0,-0.0
3049.0,-0.0
3048.0,-0.0
3047.0,-0.0
3046.0,-0.0001
3045.0,-0.0001
3044.0,-0.0001
3043.0,-0.0001
3042.0,-0.0001
3041.0,-0.0002
3040.0,-0.0001
3039.0,-0.0001
3038.0,-0.0001
3037.0,-0.0001
3036.0,-0.0001
3035.0,0.0
3034.0,0.0001
3033.0,0.0001
3032.0,0.0
3031.0,-0.0
3030.0,-0.0001
3029.0,-0.0001
3028.0,-0.0001
3027.0,-0.0001
3026.0,-0.0
3025.0,0.0
3024.0,0.0
3023.0,0.0001
3022.0,0.0001
3021.0,0.0001
3020.0,0.0001
3019.0,0.0001
3018.0,0.0001
3017.0,0.0001
3016.0,0.0
3015.0,0.0
3014.0,0.0001
3013.0,0.0002
3012.0,0.0003
3011.0,0.0003
3010.0,0.0003
3009.0,0.0003
3008.0,0.0003
3007.0,0.0002
3006.0,0.0002
3005.0,0.0003
3004.0,0.0003
3003.0,0.0004
3002.0,0.0004
3001.0,0.0004
3000.0,0.0005
2999.0,0.0005
2998.0,0.0006
2997.0,0.0006
2996.0,0.0007
2995.0,0.0007
2994.0,0.0007
2993.0,0.0007
2992.0,0.0007
2991.0,0.0006
2990.0,0.0006
2989.0,0.0006
2988.0,0.0007
2987.0,0.0006
2986.0,0.0006
2985.0,0.0006
2984.0,0.0005
2983.0,0.0005
2982.0,0.0004
2981.0,0.0004
2980.0,0.0003
2979.0,0.0003
2978.0,0.0003
2977.0,0.0002
2976.0,0.0002
2975.0,0.0002
2974.0,0.0003
2973.0,0.0003
2972.0,0.0004
2971.0,0.0004
2970.0,0.0003
2969.0,0.0003
2968.0,0.0003
2967.0,0.0003
2966.0,0.0004
2965.0,0.0004
2964.0,0.0004
2963.0,0.0004
2962.0,0.0004
2961.0,0.0004
2960.0,0.0004
2959.0,0.0004
2958.0,0.0004
2957.0,0.0004
2956.0,0.0004
2955.0,0.0004
2954.0,0.0004
2953.0,0.0005
2952.0,0.0006
2951.0,0.0006
2950.0,0.0007
2949.0,0.0007
2948.0,0.0007
2947.0,0.0007
2946.0,0.0007
2945.0,0.0008
2944.0,0.0009
2943.0,0.0009
2942.0,0.0009
2941.0,0.0009
2940.0,0.0008
2939.0,0.0008
2938.0,0.0007
2937.0,0.0007
2936.0,0.0007
2935.0,0.0007
2934.0,0.0006
2933.0,0.0006
2932.0,0.0006
2931.0,0.0006
2930.0,0.0006
2929.0,0.0006
2928.0,0.0006
2927.0,0.0006
2926.0,0.0006
2925.0,0.0006
2924.0,0.0006
2923.0,0.0006
2922.0,0.0006
2921.0,0.0006
2920.0,0.0006
2919.0,0.0005
2918.0,0.0005
2917.0,0.0005
2916.0,0.0004
2915.0,0.0004
2914.0,0.0004
2913.0,0.0004
2912.0,0.0004
2911.0,0.0004
2910.0,0.0004
2909.0,0.0004
2908.0,0.0003
2907.0,0.0003
2906.0,0.0003
2905.0,0.0003
2904.0,0.0003
2903.0,0.0003
2902.0,0.0003
2901.0,0.0003
2900.0,0.0003
2899.0,0.0002
2898.0,0.0002
2897.0,0.0001
2896.0,0.0001
2895.0,0.0001
2894.0,0.0001
2893.0,0.0001
2892.0,0.0002
2891.0,0.0002
2890.0,0.0002
2889.0,0.0003
2888.0,0.0003
2887.0,0.0003
2886.0,0.0003
2885.0,0.0003
2884.0,0.0003
2883.0,0.0003
2882.0,0.0003
2881.0,0.0003
2880.0,0.0003
2879.0,0.0003
2878.0,0.0003
2877.0,0.0003
2876.0,0.0003
2875.0,0.0003
2874.0,0.0003
2873.0,0.0004
2872.0,0.0004
2871.0,0.0004
2870.0,0.0004
2869.0,0.0003
2868.0,0.0003
2867.0,0.0002
2866.0,0.0002
2865.0,0.0001
2864.0,0.0001
2863.0,0.0001
2862.0,0.0002
2861.0,0.0002
2860.0,0.0003
2859.0,0.0002
2858.0,0.0002
2857.0,0.0002
2856.0,0.0002
2855.0,0.0002
2854.0,0.0002
2853.0,0.0002
2852.0,0.0002
2851.0,0.0003
2850.0,0.0003
2849.0,0.0003
2848.0,0.0002
2847.0,0.0002
2846.0,0.0002
2845.0,0.0002
2844.0,0.0002
2843.0,0.0001
2842.0,0.0001
2841.0,0.0001
2840.0,0.0002
2839.0,0.0002
2838.0,0.0002
2837.0,0.0002
2836.0,0.0001
2835.0,0.0001
2834.0,0.0001
2833.0,0.0
2832.0,0.0
2831.0,0.0
2830.0,0.0
2829.0,0.0
2828.0,0.0
2827.0,0.0001
2826.0,0.0001
2825.0,0.0002
2824.0,0.0003
2823.0,0.0003
2822.0,0.0003
2821.0,0.0002
2820.0,0.0001
2819.0,0.0001
2818.0,0.0001
2817.0,0.0001
2816.0,0.0001
2815.0,0.0001
2814.0,0.0002
2813.0,0.0002
2812.0,0.0002
2811.0,0.0002
2810.0,0.0001
2809.0,0.0001
2808.0,0.0
2807.0,0.0
2806.0,0.0
2805.0,-0.0
2804.0,-0.0001
2803.0,-0.0
2802.0,0.0001
2801.0,0.0001
2800.0,0.0001
2799.0,0.0001
2798.0,0.0001
2797.0,0.0002
2796.0,0.0002
2795.0,0.0002
2794.0,0.0002
2793.0,0.0002
2792.0,0.0002
2791.0,0.0002
2790.0,0.0003
2789.0,0.0003
2788.0,0.0002
2787.0,0.0002
2786.0,0.0002
2785.0,0.0002
2784.0,0.0002
2783.0,0.0002
2782.0,0.0001
2781.0,0.0001
2780.0,0.0001
2779.0,0.0
2778.0,0.0
2777.0,0.0
2776.0,0.0001
2775.0,0.0001
2774.0,0.0001
2773.0,0.0002
2772.0,0.0002
2771.0,0.0002
2770.0,0.0002
2769.0,0.0003
2768.0,0.0003
2767.0,0.0003
2766.0,0.0003
2765.0,0.0003
2764.0,0.0003
2763.0,0.0003
2762.0,0.0003
2761.0,0.0003
2760.0,0.0003
2759.0,0.0003
2758.0,0.0003
2757.0,0.0003
2756.0,0.0003
2755.0,0.0003
2754.0,0.0003
2753.0,0.0003
2752.0,0.0002
2751.0,0.0002
2750.0,0.0002
2749.0,0.0002
2748.0,0.0001
2747.0,0.0001
2746.0,0.0
2745.0,0.0
2744.0,0.0
2743.0,0.0001
2742.0,0.0001
2741.0,0.0002
2740.0,0.0002
2739.0,0.0002
2738.0,0.0002
2737.0,0.0002
2736.0,0.0002
2735.0,0.0002
2734.0,0.0002
2733.0,0.0002
2732.0,0.0002
2731.0,0.0002
2730.0,0.0002
2729.0,0.0002
2728.0,0.0003
2727.0,0.0002
2726.0,0.0002
2725.0,0.0002
2724.0,0.0002
2723.0,0.0002
2722.0,0.0002
2721.0,0.0003
2720.0,0.0003
2719.0,0.0002
2718.0,0.0002
2717.0,0.0002
2716.0,0.0002
2715.0,0.0002
2714.0,0.0002
2713.0,0.0002
2712.0,0.0002
2711.0,0.0002
2710.0,0.0002
2709.0,0.0002
2708.0,0.0002
2707.0,0.0002
2706.0,0.0002
2705.0,0.0002
2704.0,0.0002
2703.0,0.0003
2702.0,0.0002
2701.0,0.0002
2700.0,0.0001
2699.0,0.0001
2698.0,0.0001
2697.0,0.0001
2696.0,0.0001
2695.0,0.0
2694.0,0.0
2693.0,0.0
2692.0,0.0001
2691.0,0.0001
2690.0,0.0002
2689.0,0.0002
2688.0,0.0002
2687.0,0.0001
2686.0,0.0001
2685.0,0.0001
2684.0,0.0001
2683.0,0.0001
2682.0,0.0002
2681.0,0.0002
2680.0,0.0002
2679.0,0.0002
2678.0,0.0002
2677.0,0.0002
2676.0,0.0002
2675.0,0.0002
2674.0,0.0002
2673.0,0.0002
2672.0,0.0002
2671.0,0.0001
2670.0,0.0001
2669.0,0.0001
2668.0,0.0002
2667.0,0.0002
2666.0,0.0002
2665.0,0.0002
2664.0,0.0002
2663.0,0.0001
2662.0,0.0002
2661.0,0.0002
2660.0,0.0002
2659.0,0.0002
2658.0,0.0002
2657.0,0.0002
2656.0,0.0002
2655.0,0.0002
2654.0,0.0002
2653.0,0.0002
2652.0,0.0001
2651.0,0.0001
2650.0,0.0001
2649.0,0.0
2648.0,0.0
2647.0,0.0
2646.0,0.0001
2645.0,0.0001
2644.0,0.0002
2643.0,0.0003
2642.0,0.0004
2641.0,0.0003
2640.0,0.0003
2639.0,0.0002
2638.0,0.0001
2637.0,0.0001
2636.0,0.0001
2635.0,0.0001
2634.0,0.0001
2633.0,0.0001
2632.0,0.0001
2631.0,0.0001
2630.0,0.0002
2629.0,0.0002
2628.0,0.0002
2627.0,0.0002
2626.0,0.0003
2625.0,0.0003
2624.0,0.0002
2623.0,0.0002
2622.0,0.0001
2621.0,0.0001
2620.0,0.0002
2619.0,0.0002
2618.0,0.0002
2617.0,0.0003
2616.0,0.0003
2615.0,0.0003
2614.0,0.0003
2613.0,0.0002
2612.0,0.0002
2611.0,0.0002
2610.0,0.0002
2609.0,0.0002
2608.0,0.0002
2607.0,0.0002
2606.0,0.0002
2605.0,0.0002
2604.0,0.0002
2603.0,0.0001
2602.0,0.0001
2601.0,0.0001
2600.0,0.0001
2599.0,0.0001
2598.0,0.0001
2597.0,0.0001
2596.0,0.0002
2595.0,0.0002
2594.0,0.0003
2593.0,0.0003
2592.0,0.0002
2591.0,0.0002
2590.0,0.0002
2589.0,0.0002
2588.0,0.0002
2587.0,0.0002
2586.0,0.0002
2585.0,0.0002
2584.0,0.0002
2583.0,0.0001
2582.0,0.0001
2581.0,0.0001
2580.0,0.0002
2579.0,0.0002
2578.0,0.0002
2577.0,0.0002
2576.0,0.0001
2575.0,0.0001
2574.0,0.0001
2573.0,0.0001
2572.0,0.0001
2571.0,0.0002
2570.0,0.0002
2569.0,0.0002
2568.0,0.0002
2567.0,0.0002
2566.0,0.0003
2565.0,0.0003
2564.0,0.0002
2563.0,0.0002
2562.0,0.0002
2561.0,0.0002
2560.0,0.0003
2559.0,0.0003
2558.0,0.0003
2557.0,0.0002
2556.0,0.0002
2555.0,0.0002
2554.0,0.0002
2553.0,0.0002
2552.0,0.0002
2551.0,0.0002
2550.0,0.0002
2549.0,0.0002
2548.0,0.0002
2547.0,0.0002
2546.0,0.0002
2545.0,0.0002
2544.0,0.0002
2543.0,0.0003
2542.0,0.0003
2541.0,0.0003
2540.0,0.0003
2539.0,0.0002
2538.0,0.0002
2537.0,0.0002
2536.0,0.0003
2535.0,0.0003
2534.0,0.0003
2533.0,0.0002
2532.0,0.0001
2531.0,0.0001
2530.0,0.0
2529.0,0.0
2528.0,0.0001
2527.0,0.0001
2526.0,0.0002
2525.0,0.0002
2524.0,0.0002
2523.0,0.0002
2522.0,0.0002
2521.0,0.0002
2520.0,0.0002
2519.0,0.0002
2518.0,0.0002
2517.0,0.0002
2516.0,0.0003
2515.0,0.0003
2514.0,0.0003
2513.0,0.0003
2512.0,0.0003
2511.0,0.0002
2510.0,0.0002
2509.0,0.0002
2508.0,0.0001
2507.0,0.0001
2506.0,0.0002
2505.0,0.0002
2504.0,0.0003
2503.0,0.0003
2502.0,0.0002
2501.0,0.0002
2500.0,0.0002
2499.0,0.0002
2498.0,0.0002
2497.0,0.0003
2496.0,0.0002
2495.0,0.0002
2494.0,0.0003
2493.0,0.0003
2492.0,0.0003
2491.0,0.0002
2490.0,0.0002
2489.0,0.0002
2488.0,0.0003
2487.0,0.0003
2486.0,0.0002
2485.0,0.0002
2484.0,0.0002
2483.0,0.0002
2482.0,0.0002
2481.0,0.0002
2480.0,0.0001
2479.0,0.0002
2478.0,0.0002
2477.0,0.0002
2476.0,0.0002
2475.0,0.0002
2474.0,0.0002
2473.0,0.0002
2472.0,0.0002
2471.0,0.0002
2470.0,0.0001
2469.0,0.0001
2468.0,0.0001
2467.0,0.0001
2466.0,0.0002
2465.0,0.0002
2464.0,0.0002
2463.0,0.0002
2462.0,0.0002
2461.0,0.0002
2460.0,0.0002
2459.0,0.0002
2458.0,0.0002
2457.0,0.0002
2456.0,0.0002
2455.0,0.0002
2454.0,0.0002
2453.0,0.0002
2452.0,0.0002
2451.0,0.0002
2450.0,0.0002
2449.0,0.0002
2448.0,0.0003
2447.0,0.0003
2446.0,0.0003
2445.0,0.0003
2444.0,0.0003
2443.0,0.0002
2442.0,0.0002
2441.0,0.0002
2440.0,0.0002
2439.0,0.0001
2438.0,0.0001
2437.0,0.0001
2436.0,0.0002
2435.0,0.0002
2434.0,0.0002
2433.0,0.0002
2432.0,0.0003
2431.0,0.0003
2430.0,0.0003
2429.0,0.0003
2428.0,0.0003
2427.0,0.0003
2426.0,0.0002
2425.0,0.0002
2424.0,0.0002
2423.0,0.0001
2422.0,0.0001
2421.0,0.0002
2420.0,0.0002
2419.0,0.0002
2418.0,0.0002
2417.0,0.0002
2416.0,0.0002
2415.0,0.0002
2414.0,0.0002
2413.0,0.0002
2412.0,0.0002
2411.0,0.0002
2410.0,0.0002
2409.0,0.0002
2408.0,0.0002
2407.0,0.0002
2406.0,0.0002
2405.0,0.0002
2404.0,0.0002
2403.0,0.0003
2402.0,0.0003
2401.0,0.0003
2400.0,0.0003
2399.0,0.0003
2398.0,0.0002
2397.0,0.0002
2396.0,0.0002
2395.0,0.0002
2394.0,0.0001
2393.0,0.0001
2392.0,0.0001
2391.0,0.0001
2390.0,0.0001
2389.0,0.0001
2388.0,0.0001
2387.0,0.0001
2386.0,0.0001
2385.0,0.0
2384.0,0.0
2383.0,0.0001
2382.0,0.0002
2381.0,0.0003
2380.0,0.0004
2379.0,0.0003
2378.0,0.0003
2377.0,0.0002
2376.0,-0.0
2375.0,-0.0004
2374.0,-0.0008
2373.0,-0.0011
2372.0,-0.0009
2371.0,-0.0002
2370.0,0.0009
2369.0,0.0019
2368.0,0.0024
2367.0,0.0019
2366.0,0.0009
2365.0,0.0004
2364.0,0.0004
2363.0,0.0001
2362.0,-0.0004
2361.0,-0.0006
2360.0,-0.0003
2359.0,-0.0003
2358.0,-0.0004
2357.0,0.0
2356.0,0.0005
2355.0,0.0006
2354.0,0.0007
2353.0,0.0013
2352.0,0.0019
2351.0,0.002
2350.0,0.0014
2349.0,0.0007
2348.0,0.0002
2347.0,-0.0001
2346.0,-0.0004
2345.0,-0.0004
2344.0,0.0001
2343.0,0.0009
2342.0,0.0017
2341.0,0.0022
2340.0,0.0026
2339.0,0.0027
2338.0,0.0024
2337.0,0.0016
2336.0,0.0007
2335.0,0.0002
2334.0,0.0002
2333.0,0.0007
2332.0,0.0012
2331.0,0.0014
2330.0,0.0014
2329.0,0.001
2328.0,0.0007
2327.0,0.0006
2326.0,0.0008
2325.0,0.0012
2324.0,0.0012
2323.0,0.001
2322.0,0.0007
2321.0,0.0003
2320.0,0.0001
2319.0,-0.0001
2318.0,-0.0002
2317.0,-0.0002
2316.0,-0.0001
2315.0,0.0
2314.0,0.0002
2313.0,0.0004
2312.0,0.0005
2311.0,0.0005
2310.0,0.0006
2309.0,0.0007
2308.0,0.0007
2307.0,0.0007
2306.0,0.0006
2305.0,0.0005
2304.0,0.0003
2303.0,0.0002
2302.0,0.0002
2301.0,0.0001
2300.0,0.0001
2299.0,0.0
2298.0,0.0
2297.0,-0.0
2296.0,-0.0
2295.0,0.0
2294.0,0.0
2293.0,0.0
2292.0,0.0
2291.0,0.0
2290.0,-0.0
2289.0,-0.0
2288.0,-0.0
2287.0,0.0
2286.0,0.0001
2285.0,0.0001
2284.0,0.0001
2283.0,0.0001
2282.0,0.0001
2281.0,0.0001
2280.0,0.0002
2279.0,0.0002
2278.0,0.0002
2277.0,0.0003
2276.0,0.0002
2275.0,0.0002
2274.0,0.0001
2273.0,0.0001
2272.0,0.0001
2271.0,0.0001
2270.0,0.0001
2269.0,0.0001
2268.0,0.0001
2267.0,0.0001
2266.0,0.0001
2265.0,0.0001
2264.0,0.0001
2263.0,0.0001
2262.0,0.0001
2261.0,0.0002
2260.0,0.0002
2259.0,0.0002
2258.0,0.0001
2257.0,0.0
2256.0,0.0
2255.0,0.0
2254.0,0.0001
2253.0,0.0001
2252.0,0.0001
2251.0,0.0002
2250.0,0.0002
2249.0,0.0002
2248.0,0.0002
2247.0,0.0001
2246.0,0.0001
2245.0,0.0001
2244.0,0.0001
2243.0,0.0001
2242.0,0.0001
2241.0,0.0001
2240.0,0.0001
2239.0,0.0001
2238.0,0.0001
2237.0,0.0001
2236.0,0.0001
2235.0,0.0001
2234.0,0.0001
2233.0,0.0001
2232.0,0.0001
2231.0,0.0001
2230.0,0.0001
2229.0,0.0001
2228.0,0.0
2227.0,0.0
2226.0,0.0001
2225.0,0.0001
2224.0,0.0001
2223.0,0.0002
2222.0,0.0001
2221.0,0.0001
2220.0,0.0001
2219.0,0.0
2218.0,-0.0
2217.0,-0.0
2216.0,-0.0
2215.0,-0.0
2214.0,-0.0
2213.0,0.0
2212.0,0.0
2211.0,0.0
2210.0,0.0
2209.0,0.0001
2208.0,0.0001
2207.0,0.0001
2206.0,0.0001
2205.0,0.0001
2204.0,0.0001
2203.0,0.0001
2202.0,0.0
2201.0,0.0001
2200.0,0.0001
2199.0,0.0001
2198.0,0.0001
2197.0,0.0001
2196.0,0.0001
2195.0,0.0
2194.0,0.0001
2193.0,0.0001
2192.0,0.0001
2191.0,0.0001
2190.0,0.0
2189.0,-0.0
2188.0,-0.0
2187.0,0.0
2186.0,0.0001
2185.0,0.0001
2184.0,0.0001
2183.0,0.0
2182.0,0.0001
2181.0,0.0001
2180.0,0.0001
2179.0,0.0001
2178.0,0.0001
2177.0,0.0001
2176.0,0.0001
2175.0,0.0001
2174.0,0.0
2173.0,-0.0
2172.0,-0.0001
2171.0,-0.0001
2170.0,-0.0001
2169.0,-0.0001
2168.0,-0.0001
2167.0,-0.0
2166.0,-0.0
2165.0,0.0
2164.0,0.0
2163.0,-0.0
2162.0,-0.0
2161.0,0.0
2160.0,0.0
2159.0,0.0
2158.0,0.0
2157.0,0.0
2156.0,0.0
2155.0,0.0001
2154.0,0.0001
2153.0,0.0001
2152.0,0.0001
2151.0,0.0
2150.0,0.0
2149.0,-0.0
2148.0,-0.0
2147.0,-0.0
2146.0,-0.0
2145.0,0.0
2144.0,0.0
2143.0,0.0
2142.0,0.0
2141.0,0.0
2140.0,-0.0
2139.0,-0.0001
2138.0,-0.0001
2137.0,-0.0
2136.0,-0.0
2135.0,0.0
2134.0,0.0
2133.0,0.0
2132.0,0.0
2131.0,0.0
2130.0,-0.0
2129.0,-0.0
2128.0,-0.0
2127.0,-0.0
2126.0,-0.0
2125.0,-0.0
2124.0,0.0
2123.0,-0.0
2122.0,-0.0
2121.0,-0.0
2120.0,-0.0
2119.0,-0.0
2118.0,-0.0
2117.0,-0.0001
2116.0,-0.0001
2115.0,-0.0001
2114.0,-0.0
2113.0,0.0
2112.0,0.0
2111.0,0.0
2110.0,0.0
2109.0,-0.0
2108.0,-0.0
2107.0,-0.0001
2106.0,-0.0
2105.0,-0.0
2104.0,0.0
2103.0,-0.0
2102.0,-0.0
2101.0,0.0
2100.0,0.0
2099.0,-0.0
2098.0,-0.0
2097.0,-0.0
2096.0,-0.0
2095.0,-0.0
2094.0,-0.0001
2093.0,-0.0001
2092.0,-0.0
2091.0,0.0
2090.0,0.0
2089.0,0.0
2088.0,-0.0
2087.0,-0.0
2086.0,-0.0
2085.0,-0.0
2084.0,0.0001
2083.0,0.0001
2082.0,0.0001
2081.0,0.0001
2080.0,0.0001
2079.0,0.0
2078.0,-0.0
2077.0,-0.0
2076.0,-0.0
2075.0,-0.0001
2074.0,-0.0001
2073.0,-0.0001
2072.0,-0.0001
2071.0,-0.0001
2070.0,-0.0001
2069.0,-0.0
2068.0,-0.0
2067.0,-0.0
2066.0,-0.0
2065.0,-0.0
2064.0,-0.0
2063.0,-0.0
2062.0,-0.0
2061.0,-0.0001
2060.0,-0.0001
2059.0,-0.0001
2058.0,-0.0001
2057.0,-0.0001
2056.0,-0.0001
2055.0,-0.0001
2054.0,-0.0001
2053.0,-0.0001
2052.0,-0.0001
2051.0,-0.0002
2050.0,-0.0002
2049.0,-0.0002
2048.0,-0.0002
2047.0,-0.0002
2046.0,-0.0002
2045.0,-0.0003
2044.0,-0.0003
2043.0,-0.0003
2042.0,-0.0003
2041.0,-0.0003
2040.0,-0.0003
2039.0,-0.0003
2038.0,-0.0003
2037.0,-0.0003
2036.0,-0.0003
2035.0,-0.0003
2034.0,-0.0004
2033.0,-0.0004
2032.0,-0.0004
2031.0,-0.0004
2030.0,-0.0003
2029.0,-0.0003
2028.0,-0.0003
2027.0,-0.0003
2026.0,-0.0003
2025.0,-0.0003
2024.0,-0.0003
2023.0,-0.0003
2022.0,-0.0003
2021.0,-0.0003
2020.0,-0.0004
2019.0,-0.0004
2018.0,-0.0004
2017.0,-0.0004
2016.0,-0.0003
2015.0,-0.0003
2014.0,-0.0002
2013.0,-0.0002
2012.0,-0.0002
2011.0,-0.0002
2010.0,-0.0002
2009.0,-0.0003
2008.0,-0.0003
2007.0,-0.0003
2006.0,-0.0003
2005.0,-0.0003
2004.0,-0.0004
2003.0,-0.0004
2002.0,-0.0004
2001.0,-0.0004
2000.0,-0.0004
1999.0,-0.0004
1998.0,-0.0004
1997.0,-0.0004
1996.0,-0.0004
1995.0,-0.0004
1994.0,-0.0004
1993.0,-0.0004
1992.0,-0.0004
1991.0,-0.0004
1990.0,-0.0004
1989.0,-0.0004
1988.0,-0.0004
1987.0,-0.0004
1986.0,-0.0005
1985.0,-0.0005
1984.0,-0.0005
1983.0,-0.0005
1982.0,-0.0005
1981.0,-0.0005
1980.0,-0.0005
1979.0,-0.0005
1978.0,-0.0005
1977.0,-0.0005
1976.0,-0.0005
1975.0,-0.0004
1974.0,-0.0004
1973.0,-0.0004
1972.0,-0.0004
1971.0,-0.0005
1970.0,-0.0005
1969.0,-0.0005
1968.0,-0.0005
1967.0,-0.0004
1966.0,-0.0004
1965.0,-0.0005
1964.0,-0.0005
1963.0,-0.0005
1962.0,-0.0006
1961.0,-0.0006
1960.0,-0.0006
1959.0,-0.0006
1958.0,-0.0006
1957.0,-0.0006
1956.0,-0.0006
1955.0,-0.0005
1954.0,-0.0005
1953.0,-0.0005
1952.0,-0.0005
1951.0,-0.0005
1950.0,-0.0005
1949.0,-0.0005
1948.0,-0.0006
1947.0,-0.0006
1946.0,-0.0006
1945.0,-0.0005
1944.0,-0.0006
1943.0,-0.0006
1942.0,-0.0006
1941.0,-0.0006
1940.0,-0.0006
1939.0,-0.0006
1938.0,-0.0006
1937.0,-0.0007
1936.0,-0.0007
1935.0,-0.0008
1934.0,-0.0008
1933.0,-0.0008
1932.0,-0.0007
1931.0,-0.0007
1930.0,-0.0007
1929.0,-0.0007
1928.0,-0.0007
1927.0,-0.0008
1926.0,-0.0008
1925.0,-0.0008
1924.0,-0.0007
1923.0,-0.0007
1922.0,-0.0007
1921.0,-0.0007
1920.0,-0.0007
1919.0,-0.0007
1918.0,-0.0008
1917.0,-0.0008
1916.0,-0.0008
1915.0,-0.0008
1914.0,-0.0008
1913.0,-0.0008
1912.0,-0.0008
1911.0,-0.0008
1910.0,-0.0009
1909.0,-0.0009
1908.0,-0.0008
1907.0,-0.0008
1906.0,-0.0008
1905.0,-0.0009
1904.0,-0.0008
1903.0,-0.0009
1902.0,-0.0009
1901.0,-0.0009
1900.0,-0.0009
1899.0,-0.001
1898.0,-0.001
1897.0,-0.001
1896.0,-0.001
1895.0,-0.001
1894.0,-0.0009
1893.0,-0.0009
1892.0,-0.0009
1891.0,-0.0009
1890.0,-0.0009
1889.0,-0.001
1888.0,-0.001
1887.0,-0.001
1886.0,-0.001
1885.0,-0.001
1884.0,-0.001
1883.0,-0.001
1882.0,-0.001
1881.0,-0.001
1880.0,-0.001
1879.0,-0.001
1878.0,-0.001
1877.0,-0.0011
1876.0,-0.0011
1875.0,-0.0011
1874.0,-0.001
1873.0,-0.001
1872.0,-0.001
1871.0,-0.001
1870.0,-0.001
1869.0,-0.0011
1868.0,-0.0012
1867.0,-0.0012
1866.0,-0.0012
1865.0,-0.0012
1864.0,-0.0012
1863.0,-0.0012
1862.0,-0.0012
1861.0,-0.0012
1860.0,-0.0012
1859.0,-0.0011
1858.0,-0.0011
1857.0,-0.0011
1856.0,-0.0012
1855.0,-0.0012
1854.0,-0.0012
1853.0,-0.0012
1852.0,-0.0012
1851.0,-0.0012
1850.0,-0.0012
1849.0,-0.0012
1848.0,-0.0011
1847.0,-0.0012
1846.0,-0.0012
1845.0,-0.0013
1844.0,-0.0013
1843.0,-0.0013
1842.0,-0.0013
1841.0,-0.0012
1840.0,-0.0012
1839.0,-0.0013
1838.0,-0.0013
1837.0,-0.0012
1836.0,-0.0012
1835.0,-0.0012
1834.0,-0.0011
1833.0,-0.0011
1832.0,-0.0011
1831.0,-0.0011
1830.0,-0.0011
1829.0,-0.001
1828.0,-0.001
1827.0,-0.001
1826.0,-0.001
1825.0,-0.001
1824.0,-0.001
1823.0,-0.001
1822.0,-0.001
1821.0,-0.001
1820.0,-0.001
1819.0,-0.001
1818.0,-0.001
1817.0,-0.001
1816.0,-0.001
1815.0,-0.001
1814.0,-0.001
1813.0,-0.001
1812.0,-0.0009
1811.0,-0.0009
1810.0,-0.0009
1809.0,-0.0008
1808.0,-0.0008
1807.0,-0.0008
1806.0,-0.0008
1805.0,-0.0008
1804.0,-0.0008
1803.0,-0.0007
1802.0,-0.0007
1801.0,-0.0006
1800.0,-0.0005
1799.0,-0.0004
1798.0,-0.0004
1797.0,-0.0003
1796.0,-0.0002
1795.0,-0.0001
1794.0,0.0
1793.0,0.0002
1792.0,0.0004
1791.0,0.0006
1790.0,0.0008
1789.0,0.0011
1788.0,0.0014
1787.0,0.0018
1786.0,0.0022
1785.0,0.0027
1784.0,0.0033
1783.0,0.0039
1782.0,0.0045
1781.0,0.0052
1780.0,0.006
1779.0,0.0066
1778.0,0.0072
1777.0,0.0078
1776.0,0.0084
1775.0,0.009
1774.0,0.0096
1773.0,0.0104
1772.0,0.0115
1771.0,0.0123
1770.0,0.013
1769.0,0.0138
1768.0,0.0149
1767.0,0.016
1766.0,0.017
1765.0,0.018
1764.0,0.019
1763.0,0.0202
1762.0,0.0216
1761.0,0.0228
1760.0,0.0237
1759.0,0.0244
1758.0,0.0249
1757.0,0.0255
1756.0,0.0261
1755.0,0.0263
1754.0,0.0264
1753.0,0.0265
1752.0,0.0265
1751.0,0.0264
1750.0,0.0263
1749.0,0.0262
1748.0,0.026
1747.0,0.0256
1746.0,0.0251
1745.0,0.0245
1744.0,0.0237
1743.0,0.0228
1742.0,0.0219
1741.0,0.0208
1740.0,0.0195
1739.0,0.0183
1738.0,0.0173
1737.0,0.0165
1736.0,0.0156
1735.0,0.0143
1734.0,0.0128
1733.0,0.0118
1732.0,0.0112
1731.0,0.0107
1730.0,0.0103
1729.0,0.0098
1728.0,0.0094
1727.0,0.0091
1726.0,0.0087
1725.0,0.0084
1724.0,0.008
1723.0,0.0077
1722.0,0.0076
1721.0,0.0074
1720.0,0.0072
1719.0,0.007
1718.0,0.0067
1717.0,0.0064
1716.0,0.0062
1715.0,0.006
1714.0,0.0058
1713.0,0.0057
1712.0,0.0055
1711.0,0.0053
1710.0,0.0052
1709.0,0.0051
1708.0,0.0051
1707.0,0.0049
1706.0,0.0048
1705.0,0.0046
1704.0,0.0044
1703.0,0.0043
1702.0,0.0041
1701.0,0.004
1700.0,0.0038
1699.0,0.0036
1698.0,0.0036
1697.0,0.0036
1696.0,0.0036
1695.0,0.0036
1694.0,0.0036
1693.0,0.0036
1692.0,0.0035
1691.0,0.0034
1690.0,0.0034
1689.0,0.0033
1688.0,0.0032
1687.0,0.0032
1686.0,0.0031
1685.0,0.0031
1684.0,0.0031
1683.0,0.0031
1682.0,0.003
1681.0,0.003
1680.0,0.003
1679.0,0.0029
1678.0,0.0029
1677.0,0.0029
1676.0,0.0029
1675.0,0.0029
1674.0,0.0029
1673.0,0.0029
1672.0,0.0029
1671.0,0.0029
1670.0,0.003
1669.0,0.003
1668.0,0.003
1667.0,0.003
1666.0,0.003
1665.0,0.003
1664.0,0.0031
1663.0,0.0031
1662.0,0.003
1661.0,0.003
1660.0,0.0029
1659.0,0.0029
1658.0,0.0029
1657.0,0.003
1656.0,0.003
1655.0,0.0029
1654.0,0.0029
1653.0,0.0029
1652.0,0.0031
1651.0,0.0032
1650.0,0.0033
1649.0,0.0033
1648.0,0.0033
1647.0,0.0032
1646.0,0.0033
1645.0,0.0033
1644.0,0.0033
1643.0,0.0033
1642.0,0.0033
1641.0,0.0033
1640.0,0.0033
1639.0,0.0032
1638.0,0.0032
1637.0,0.003
1636.0,0.0028
1635.0,0.0027
1634.0,0.0027
1633.0,0.0027
1632.0,0.0027
1631.0,0.0026
1630.0,0.0027
1629.0,0.0027
1628.0,0.0027
1627.0,0.0026
1626.0,0.0026
1625.0,0.0024
1624.0,0.0023
1623.0,0.0022
1622.0,0.0022
1621.0,0.0022
1620.0,0.0022
1619.0,0.0021
1618.0,0.0021
1617.0,0.0021
1616.0,0.002
1615.0,0.0019
1614.0,0.0019
1613.0,0.0019
1612.0,0.0018
1611.0,0.0018
1610.0,0.0017
1609.0,0.0017
1608.0,0.0016
1607.0,0.0016
1606.0,0.0016
1605.0,0.0016
1604.0,0.0016
1603.0,0.0015
1602.0,0.0015
1601.0,0.0014
1600.0,0.0014
1599.0,0.0013
1598.0,0.0013
1597.0,0.0012
1596.0,0.0012
1595.0,0.0011
1594.0,0.0011
1593.0,0.0011
1592.0,0.0011
1591.0,0.0011
1590.0,0.0011
1589.0,0.0011
1588.0,0.0011
1587.0,0.0011
1586.0,0.001
1585.0,0.001
1584.0,0.0009
1583.0,0.0009
1582.0,0.0008
1581.0,0.0008
1580.0,0.0008
1579.0,0.0008
1578.0,0.0008
1577.0,0.0008
1576.0,0.0007
1575.0,0.0006
1574.0,0.0006
1573.0,0.0006
1572.0,0.0006
1571.0,0.0006
1570.0,0.0006
1569.0,0.0006
1568.0,0.0005
1567.0,0.0005
1566.0,0.0004
1565.0,0.0004
1564.0,0.0004
1563.0,0.0004
1562.0,0.0004
1561.0,0.0004
1560.0,0.0002
1559.0,0.0001
1558.0,0.0001
1557.0,0.0
1556.0,-0.0
1555.0,-0.0
1554.0,-0.0
1553.0,0.0
1552.0,0.0
1551.0,-0.0
1550.0,0.0
1549.0,0.0001
1548.0,0.0001
1547.0,0.0001
1546.0,-0.0
1545.0,-0.0002
1544.0,-0.0003
1543.0,-0.0003
1542.0,-0.0003
1541.0,-0.0003
1540.0,-0.0002
1539.0,-0.0001
1538.0,-0.0001
1537.0,-0.0001
1536.0,-0.0001
1535.0,-0.0001
1534.0,-0.0001
1533.0,-0.0001
1532.0,-0.0001
1531.0,-0.0001
1530.0,-0.0001
1529.0,-0.0002
1528.0,-0.0002
1527.0,-0.0003
1526.0,-0.0003
1525.0,-0.0003
1524.0,-0.0003
1523.0,-0.0003
1522.0,-0.0003
1521.0,-0.0003
1520.0,-0.0002
1519.0,-0.0001
1518.0,-0.0001
1517.0,-0.0001
1516.0,-0.0001
1515.0,-0.0002
1514.0,-0.0002
1513.0,-0.0002
1512.0,-0.0002
1511.0,-0.0002
1510.0,-0.0003
1509.0,-0.0003
1508.0,-0.0003
1507.0,-0.0002
1506.0,-0.0001
1505.0,-0.0002
1504.0,-0.0002
1503.0,-0.0002
1502.0,-0.0002
1501.0,-0.0002
1500.0,-0.0002
1499.0,-0.0002
1498.0,-0.0001
1497.0,-0.0001
1496.0,-0.0002
1495.0,-0.0002
1494.0,-0.0002
1493.0,-0.0002
1492.0,-0.0002
1491.0,-0.0003
1490.0,-0.0003
1489.0,-0.0003
1488.0,-0.0003
1487.0,-0.0003
1486.0,-0.0003
1485.0,-0.0003
1484.0,-0.0002
1483.0,-0.0002
1482.0,-0.0001
1481.0,-0.0001
1480.0,-0.0001
1479.0,-0.0001
1478.0,-0.0
1477.0,0.0
1476.0,0.0001
1475.0,0.0001
1474.0,0.0002
1473.0,0.0004
1472.0,0.0007
1471.0,0.0011
1470.0,0.0014
1469.0,0.0017
1468.0,0.002
1467.0,0.0024
1466.0,0.003
1465.0,0.0038
1464.0,0.0046
1463.0,0.0053
1462.0,0.0058
1461.0,0.0064
1460.0,0.0069
1459.0,0.0073
1458.0,0.0079
1457.0,0.0088
1456.0,0.0095
1455.0,0.0099
1454.0,0.0101
1453.0,0.0103
1452.0,0.0103
1451.0,0.0103
1450.0,0.0103
1449.0,0.0102
1448.0,0.0099
1447.0,0.0095
1446.0,0.0091
1445.0,0.0086
1444.0,0.008
1443.0,0.0073
1442.0,0.0066
1441.0,0.006
1440.0,0.0054
1439.0,0.0048
1438.0,0.0043
1437.0,0.0037
1436.0,0.0032
1435.0,0.0028
1434.0,0.0026
1433.0,0.0024
1432.0,0.0022
1431.0,0.002
1430.0,0.0018
1429.0,0.0016
1428.0,0.0014
1427.0,0.0013
1426.0,0.0012
1425.0,0.0011
1424.0,0.0009
1423.0,0.0008
1422.0,0.0008
1421.0,0.0006
1420.0,0.0005
1419.0,0.0003
1418.0,0.0003
1417.0,0.0002
1416.0,0.0002
1415.0,0.0001
1414.0,0.0001
1413.0,0.0
1412.0,-0.0
1411.0,-0.0001
1410.0,-0.0001
1409.0,-0.0002
1408.0,-0.0002
1407.0,-0.0002
1406.0,-0.0002
1405.0,-0.0002
1404.0,-0.0001
1403.0,-0.0001
1402.0,-0.0
1401.0,0.0
1400.0,0.0001
1399.0,0.0003
1398.0,0.0005
1397.0,0.0008
1396.0,0.0012
1395.0,0.0017
1394.0,0.0024
1393.0,0.003
1392.0,0.0036
1391.0,0.0042
1390.0,0.0047
1389.0,0.0054
1388.0,0.0062
1387.0,0.007
1386.0,0.0077
1385.0,0.0082
1384.0,0.0085
1383.0,0.0088
1382.0,0.0089
1381.0,0.0088
1380.0,0.0086
1379.0,0.0083
1378.0,0.0078
1377.0,0.0074
1376.0,0.007
1375.0,0.0068
1374.0,0.0067
1373.0,0.0068
1372.0,0.0071
1371.0,0.0074
1370.0,0.0077
1369.0,0.008
1368.0,0.0083
1367.0,0.0085
1366.0,0.0087
1365.0,0.0088
1364.0,0.0089
1363.0,0.009
1362.0,0.0091
1361.0,0.0092
1360.0,0.0092
1359.0,0.0091
1358.0,0.0091
1357.0,0.009
1356.0,0.0089
1355.0,0.0087
1354.0,0.0085
1353.0,0.0083
1352.0,0.0081
1351.0,0.0078
1350.0,0.0076
1349.0,0.0073
1348.0,0.007
1347.0,0.0067
1346.0,0.0064
1345.0,0.0062
1344.0,0.0059
1343.0,0.0057
1342.0,0.0055
1341.0,0.0053
1340.0,0.005
1339.0,0.0048
1338.0,0.0047
1337.0,0.0046
1336.0,0.0045
1335.0,0.0044
1334.0,0.0043
1333.0,0.0042
1332.0,0.0041
1331.0,0.0041
1330.0,0.0041
1329.0,0.0041
1328.0,0.0041
1327.0,0.004
1326.0,0.0039
1325.0,0.0039
1324.0,0.0039
1323.0,0.0039
1322.0,0.0039
1321.0,0.0039
1320.0,0.0038
1319.0,0.0039
1318.0,0.0039
1317.0,0.0039
1316.0,0.0039
1315.0,0.0038
1314.0,0.0038
1313.0,0.0038
1312.0,0.0039
1311.0,0.0039
1310.0,0.0039
1309.0,0.004
1308.0,0.004
1307.0,0.004
1306.0,0.004
1305.0,0.004
1304.0,0.004
1303.0,0.004
1302.0,0.004
1301.0,0.0039
1300.0,0.0039
1299.0,0.0038
1298.0,0.0036
1297.0,0.0035
1296.0,0.0034
1295.0,0.0032
1294.0,0.0031
1293.0,0.003
1292.0,0.0029
1291.0,0.0028
1290.0,0.0028
1289.0,0.0029
1288.0,0.0031
1287.0,0.0034
1286.0,0.0037
1285.0,0.0041
1284.0,0.0046
1283.0,0.0051
1282.0,0.0056
1281.0,0.0062
1280.0,0.0067
1279.0,0.0073
1278.0,0.0078
1277.0,0.0083
1276.0,0.0088
1275.0,0.0092
1274.0,0.0096
1273.0,0.0099
1272.0,0.0102
1271.0,0.0104
1270.0,0.0107
1269.0,0.0108
1268.0,0.0109
1267.0,0.011
1266.0,0.0109
1265.0,0.0109
1264.0,0.0108
1263.0,0.0106
1262.0,0.0105
1261.0,0.0103
1260.0,0.0101
1259.0,0.01
1258.0,0.0098
1257.0,0.0096
1256.0,0.0095
1255.0,0.0093
1254.0,0.0091
1253.0,0.0089
1252.0,0.0088
1251.0,0.0087
1250.0,0.0086
1249.0,0.0086
1248.0,0.0085
1247.0,0.0085
1246.0,0.0086
1245.0,0.0086
1244.0,0.0087
1243.0,0.0088
1242.0,0.0089
1241.0,0.0091
1240.0,0.0092
1239.0,0.0094
1238.0,0.0096
1237.0,0.0098
1236.0,0.01
1235.0,0.0103
1234.0,0.0106
1233.0,0.011
1232.0,0.0114
1231.0,0.0119
1230.0,0.0124
1229.0,0.0129
1228.0,0.0135
1227.0,0.0142
1226.0,0.0149
1225.0,0.0156
1224.0,0.0163
1223.0,0.0171
1222.0,0.018
1221.0,0.0188
1220.0,0.0197
1219.0,0.0206
1218.0,0.0214
1217.0,0.0221
1216.0,0.0229
1215.0,0.0235
1214.0,0.0241
1213.0,0.0247
1212.0,0.0252
1211.0,0.0257
1210.0,0.026
1209.0,0.0263
1208.0,0.0266
1207.0,0.0267
1206.0,0.0268
1205.0,0.0269
1204.0,0.027
1203.0,0.0272
1202.0,0.0275
1201.0,0.0279
1200.0,0.0283
1199.0,0.0288
1198.0,0.0293
1197.0,0.03
1196.0,0.0308
1195.0,0.0317
1194.0,0.0327
1193.0,0.0338
1192.0,0.0351
1191.0,0.0365
1190.0,0.0379
1189.0,0.0394
1188.0,0.041
1187.0,0.0426
1186.0,0.0442
1185.0,0.0457
1184.0,0.047
1183.0,0.048
1182.0,0.0486
1181.0,0.0487
1180.0,0.0481
1179.0,0.0469
1178.0,0.0451
1177.0,0.0428
1176.0,0.0402
1175.0,0.0374
1174.0,0.0345
1173.0,0.0317
1172.0,0.0291
1171.0,0.0267
1170.0,0.0245
1169.0,0.0226
1168.0,0.0209
1167.0,0.0193
1166.0,0.0179
1165.0,0.0167
1164.0,0.0156
1163.0,0.0147
1162.0,0.0138
1161.0,0.013
1160.0,0.0123
1159.0,0.0117
1158.0,0.0112
1157.0,0.0108
1156.0,0.0105
1155.0,0.0103
1154.0,0.0102
1153.0,0.0101
1152.0,0.0102
1151.0,0.0104
1150.0,0.0107
1149.0,0.0112
1148.0,0.0119
1147.0,0.0128
1146.0,0.014
1145.0,0.0154
1144.0,0.017
1143.0,0.0188
1142.0,0.0208
1141.0,0.0228
1140.0,0.0248
1139.0,0.0269
1138.0,0.0288
1137.0,0.0307
1136.0,0.0323
1135.0,0.0338
1134.0,0.035
1133.0,0.0361
1132.0,0.037
1131.0,0.0377
1130.0,0.0382
1129.0,0.0386
1128.0,0.0388
1127.0,0.0387
1126.0,0.0382
1125.0,0.0376
1124.0,0.0367
1123.0,0.0359
1122.0,0.035
1121.0,0.0343
1120.0,0.0336
1119.0,0.033
1118.0,0.0326
1117.0,0.0323
1116.0,0.0322
1115.0,0.0323
1114.0,0.0325
1113.0,0.033
1112.0,0.0337
1111.0,0.0346
1110.0,0.0358
1109.0,0.0372
1108.0,0.0388
1107.0,0.0405
1106.0,0.0424
1105.0,0.0443
1104.0,0.0463
1103.0,0.0482
1102.0,0.0501
1101.0,0.052
1100.0,0.0538
1099.0,0.0555
1098.0,0.0571
1097.0,0.0587
1096.0,0.0602
1095.0,0.0617
1094.0,0.0632
1093.0,0.0647
1092.0,0.0661
1091.0,0.0674
1090.0,0.0687
1089.0,0.0699
1088.0,0.0711
1087.0,0.0722
1086.0,0.0731
1085.0,0.0739
1084.0,0.0745
1083.0,0.0749
1082.0,0.0749
1081.0,0.0747
1080.0,0.0743
1079.0,0.0735
1078.0,0.0725
1077.0,0.0713
1076.0,0.07
1075.0,0.0685
1074.0,0.0668
1073.0,0.065
1072.0,0.0631
1071.0,0.061
1070.0,0.0588
1069.0,0.0566
1068.0,0.0544
1067.0,0.0523
1066.0,0.0501
1065.0,0.0482
1064.0,0.0465
1063.0,0.0451
1062.0,0.0439
1061.0,0.043
1060.0,0.0424
1059.0,0.042
1058.0,0.0419
1057.0,0.042
1056.0,0.0422
1055.0,0.0424
1054.0,0.0428
1053.0,0.0432
1052.0,0.0436
1051.0,0.0441
1050.0,0.0446
1049.0,0.0452
1048.0,0.0458
1047.0,0.0463
1046.0,0.0468
1045.0,0.0472
1044.0,0.0475
1043.0,0.0476
1042.0,0.0475
1041.0,0.0473
1040.0,0.047
1039.0,0.0465
1038.0,0.0459
1037.0,0.0452
1036.0,0.0444
1035.0,0.0434
1034.0,0.0425
1033.0,0.0416
1032.0,0.0409
1031.0,0.0402
1030.0,0.0396
1029.0,0.0391
1028.0,0.0385
1027.0,0.0379
1026.0,0.0374
1025.0,0.037
1024.0,0.0366
1023.0,0.0362
1022.0,0.0357
1021.0,0.0351
1020.0,0.0345
1019.0,0.0338
1018.0,0.0331
1017.0,0.0323
1016.0,0.0316
1015.0,0.0309
1014.0,0.0303
1013.0,0.0296
1012.0,0.029
1011.0,0.0284
1010.0,0.0278
1009.0,0.0272
1008.0,0.0267
1007.0,0.0262
1006.0,0.0258
1005.0,0.0254
1004.0,0.0251
1003.0,0.0248
1002.0,0.0244
1001.0,0.0241
1000.0,0.0238
999.0,0.0235
998.0,0.0231
997.0,0.0229
996.0,0.0227
995.0,0.0225
994.0,0.0224
993.0,0.0222
992.0,0.022
991.0,0.0218
990.0,0.0216
989.0,0.0214
988.0,0.0212
987.0,0.0211
986.0,0.0208
985.0,0.0206
984.0,0.0204
983.0,0.0203
982.0,0.02
981.0,0.0198
980.0,0.0196
979.0,0.0195
978.0,0.0193
977.0,0.0192
976.0,0.0191
975.0,0.019
974.0,0.0189
973.0,0.0188
972.0,0.0187
971.0,0.0186
970.0,0.0184
969.0,0.0183
968.0,0.0181
967.0,0.018
966.0,0.0179
965.0,0.0179
964.0,0.018
963.0,0.0181
962.0,0.0183
961.0,0.0185
960.0,0.0187
959.0,0.0188
958.0,0.019
957.0,0.0192
956.0,0.0194
955.0,0.0194
954.0,0.0194
953.0,0.0193
952.0,0.0192
951.0,0.0191
950.0,0.0189
949.0,0.0188
948.0,0.0187
947.0,0.0186
946.0,0.0184
945.0,0.0183
944.0,0.0181
943.0,0.018
942.0,0.0179
941.0,0.0178
940.0,0.0177
939.0,0.0177
938.0,0.0176
937.0,0.0176
936.0,0.0175
935.0,0.0174
934.0,0.0174
933.0,0.0173
932.0,0.0173
931.0,0.0173
930.0,0.0174
929.0,0.0174
928.0,0.0174
927.0,0.0173
926.0,0.0172
925.0,0.0171
924.0,0.0172
923.0,0.0172
922.0,0.0173
921.0,0.0173
920.0,0.0172
919.0,0.0171
918.0,0.0171
917.0,0.0171
916.0,0.0171
915.0,0.0171
914.0,0.0171
913.0,0.017
912.0,0.0169
911.0,0.0169
910.0,0.0169
909.0,0.0169
908.0,0.0169
907.0,0.0169
906.0,0.0168
905.0,0.0168
904.0,0.0168
903.0,0.0168
902.0,0.0168
901.0,0.0168
900.0,0.0169
899.0,0.0169
898.0,0.0169
897.0,0.0169
896.0,0.0169
895.0,0.017
894.0,0.017
893.0,0.0169
892.0,0.0168
891.0,0.0166
890.0,0.0165
889.0,0.0163
888.0,0.0161
887.0,0.016
886.0,0.0158
885.0,0.0158
884.0,0.0158
883.0,0.016
882.0,0.0163
881.0,0.0167
880.0,0.0171
879.0,0.0177
878.0,0.0184
877.0,0.0192
876.0,0.02
875.0,0.0208
874.0,0.0216
873.0,0.0223
872.0,0.0231
871.0,0.0238
870.0,0.0243
869.0,0.0248
868.0,0.025
867.0,0.0251
866.0,0.0252
865.0,0.0253
864.0,0.0253
863.0,0.0252
862.0,0.025
861.0,0.0245
860.0,0.0239
859.0,0.0233
858.0,0.0226
857.0,0.0221
856.0,0.0216
855.0,0.0211
854.0,0.0206
853.0,0.0201
852.0,0.0198
851.0,0.0196
850.0,0.0195
849.0,0.0195
848.0,0.0194
847.0,0.0193
846.0,0.0191
845.0,0.0188
844.0,0.0186
843.0,0.0183
842.0,0.018
841.0,0.0177
840.0,0.0174
839.0,0.0171
838.0,0.0168
837.0,0.0166
836.0,0.0164
835.0,0.0162
834.0,0.0161
833.0,0.0159
832.0,0.0157
831.0,0.0156
830.0,0.0155
829.0,0.0155
828.0,0.0154
827.0,0.0154
826.0,0.0153
825.0,0.0152
824.0,0.0151
823.0,0.0149
822.0,0.0148
821.0,0.0147
820.0,0.0146
819.0,0.0146
818.0,0.0146
817.0,0.0146
816.0,0.0146
815.0,0.0146
814.0,0.0145
813.0,0.0144
812.0,0.0144
811.0,0.0144
810.0,0.0145
809.0,0.0146
808.0,0.0145
807.0,0.0144
806.0,0.0142
805.0,0.0141
804.0,0.014
803.0,0.0138
802.0,0.0137
801.0,0.0136
800.0,0.0137
799.0,0.0138
798.0,0.0139
797.0,0.0138
796.0,0.0137
795.0,0.0137
794.0,0.0136
793.0,0.0137
792.0,0.0138
791.0,0.014
790.0,0.0142
789.0,0.0143
788.0,0.0143
787.0,0.0143
786.0,0.0144
785.0,0.0147
784.0,0.015
783.0,0.0152
782.0,0.0153
781.0,0.0154
780.0,0.0156
779.0,0.0158
778.0,0.0161
777.0,0.0165
776.0,0.0169
775.0,0.0173
774.0,0.0176
773.0,0.0179
772.0,0.0183
771.0,0.0187
770.0,0.0192
769.0,0.0197
768.0,0.0202
767.0,0.0208
766.0,0.0215
765.0,0.0222
764.0,0.0228
763.0,0.0234
762.0,0.0241
761.0,0.0249
760.0,0.0258
759.0,0.0268
758.0,0.0275
757.0,0.0279
756.0,0.0281
755.0,0.0283
754.0,0.0286
753.0,0.0288
752.0,0.029
751.0,0.029
750.0,0.029
749.0,0.0289
748.0,0.0288
747.0,0.0287
746.0,0.0286
745.0,0.0284
744.0,0.0282
743.0,0.028
742.0,0.0278
741.0,0.0278
740.0,0.0278
739.0,0.0278
738.0,0.0275
737.0,0.027
736.0,0.0263
735.0,0.0254
734.0,0.0244
733.0,0.0235
732.0,0.0228
731.0,0.0223
730.0,0.022
729.0,0.0217
728.0,0.0216
727.0,0.0215
726.0,0.0216
725.0,0.0218
724.0,0.0219
723.0,0.022
722.0,0.0222
721.0,0.0226
720.0,0.023
719.0,0.0234
718.0,0.0237
717.0,0.0241
716.0,0.0246
715.0,0.0252
714.0,0.0256
713.0,0.0259
712.0,0.0259
711.0,0.0259
710.0,0.0261
709.0,0.0265
708.0,0.027
707.0,0.0274
706.0,0.0275
705.0,0.0275
704.0,0.0276
703.0,0.0279
702.0,0.0283
701.0,0.0286
700.0,0.0287
699.0,0.0284
698.0,0.0279
697.0,0.0276
696.0,0.0277
695.0,0.0282
694.0,0.0288
693.0,0.0294
692.0,0.0298
691.0,0.03
690.0,0.0301
689.0,0.0299
688.0,0.0297
687.0,0.0294
686.0,0.0293
685.0,0.0296
684.0,0.03
683.0,0.0301
682.0,0.0299
681.0,0.0296
680.0,0.0294
679.0,0.0294
678.0,0.0294
677.0,0.0295
676.0,0.0294
675.0,0.0294
674.0,0.0293
673.0,0.0293
672.0,0.0295
671.0,0.0298
670.0,0.0306
669.0,0.0319
668.0,0.0317
667.0,0.0295
666.0,0.0279
665.0,0.0276
664.0,0.0276
663.0,0.0276
662.0,0.0277
661.0,0.0278
660.0,0.0278
659.0,0.0279
658.0,0.0282
657.0,0.0283
656.0,0.0279
655.0,0.0268
654.0,0.0259
653.0,0.0255
652.0,0.0256
651.0,0.0258
650.0,0.0259
649.0,0.0262
648.0,0.0265
647.0,0.0267
646.0,0.0267
645.0,0.0268
644.0,0.0271
643.0,0.0273
642.0,0.0272
641.0,0.0266
640.0,0.0258
639.0,0.0255
638.0,0.0259
637.0,0.0269
636.0,0.0281
635.0,0.0288
634.0,0.0285
633.0,0.0274
632.0,0.0259
631.0,0.025
630.0,0.0249
629.0,0.0255
628.0,0.0261
627.0,0.0265
626.0,0.0269
625.0,0.0275
624.0,0.0282
623.0,0.0286
622.0,0.0285
621.0,0.0281
620.0,0.0273
619.0,0.0262
618.0,0.025
617.0,0.0243
616.0,0.0244
615.0,0.0247
614.0,0.0248
613.0,0.0244
612.0,0.0238
611.0,0.0236
610.0,0.0241
609.0,0.0251
608.0,0.0259
607.0,0.0259
606.0,0.0248
605.0,0.0232
604.0,0.022
603.0,0.0217
602.0,0.0222
601.0,0.0225
600.0,0.022
