cm-1,A
4000.0,0.014169510141607944
3999.0,0.014169510141607944
3998.0,0.014214382227394795
3997.0,0.014259258949925524
3996.0,0.014304140310157809
3995.0,0.014349026309051105
3994.0,0.014393916947563534
3993.0,0.014438812226654996
3992.0,0.0144837121472845
3991.0,0.0144837121472845
3990.0,0.014438812226654996
3989.0,0.014349026309051105
3988.0,0.014304140310157809
3987.0,0.014259258949925524
3986.0,0.014259258949925524
3985.0,0.014214382227394795
3984.0,0.014214382227394795
3983.0,0.014214382227394795
3982.0,0.014259258949925524
3981.0,0.014304140310157809
3980.0,0.014349026309051105
3979.0,0.014393916947563534
3978.0,0.014438812226654996
3977.0,0.0144837121472845
3976.0,0.01452861671041239
3975.0,0.01452861671041239
3974.0,0.01452861671041239
3973.0,0.014573525916998342
3972.0,0.014573525916998342
3971.0,0.01452861671041239
3970.0,0.014438812226654996
3969.0,0.014393916947563534
3968.0,0.014349026309051105
3967.0,0.014393916947563534
3966.0,0.0144837121472845
3965.0,0.01452861671041239
3964.0,0.01452861671041239
3963.0,0.01452861671041239
3962.0,0.01452861671041239
3961.0,0.014573525916998342
3960.0,0.014618439768003144
3959.0,0.014618439768003144
3958.0,0.014618439768003144
3957.0,0.014618439768003144
3956.0,0.014618439768003144
3955.0,0.014618439768003144
3954.0,0.014663358264387139
3953.0,0.014753209197138295
3952.0,0.014843078722943437
3951.0,0.014932966849499074
3950.0,0.015022873584506602
3949.0,0.014977917890464765
3948.0,0.014977917890464765
3947.0,0.014932966849499074
3946.0,0.014977917890464765
3945.0,0.014932966849499074
3944.0,0.014888020460646079
3943.0,0.014843078722943437
3942.0,0.014798141635428141
3941.0,0.014798141635428141
3940.0,0.014798141635428141
3939.0,0.014753209197138295
3938.0,0.014798141635428141
3937.0,0.014932966849499074
3936.0,0.015067833932588037
3935.0,0.015112798935672522
3934.0,0.015112798935672522
3933.0,0.014977917890464765
3932.0,0.014888020460646079
3931.0,0.014888020460646079
3930.0,0.014888020460646079
3929.0,0.014977917890464765
3928.0,0.015022873584506602
3927.0,0.015067833932588037
3926.0,0.015112798935672522
3925.0,0.015157768594724175
3924.0,0.015202742910707112
3923.0,0.015247721884586563
3922.0,0.015247721884586563
3921.0,0.015202742910707112
3920.0,0.015157768594724175
3919.0,0.015112798935672522
3918.0,0.015067833932588037
3917.0,0.014977917890464765
3916.0,0.014932966849499074
3915.0,0.014932966849499074
3914.0,0.014932966849499074
3913.0,0.014843078722943437
3912.0,0.014798141635428141
3911.0,0.014798141635428141
3910.0,0.014843078722943437
3909.0,0.015022873584506602
3908.0,0.015202742910707112
3907.0,0.01538268676325183
3906.0,0.01538268676325183
3905.0,0.015427684378367834
3904.0,0.015517693597737248
3903.0,0.015697768020096703
3902.0,0.01578783323856614
3901.0,0.015697768020096703
3900.0,0.015517693597737248
3899.0,0.01538268676325183
3898.0,0.015337693809893471
3897.0,0.015292705517326866
3896.0,0.015247721884586563
3895.0,0.015292705517326866
3894.0,0.015337693809893471
3893.0,0.015292705517326866
3892.0,0.015292705517326866
3891.0,0.015292705517326866
3890.0,0.015427684378367834
3889.0,0.015607721475734415
3888.0,0.015562705203923999
3887.0,0.015292705517326866
3886.0,0.015157768594724175
3885.0,0.015292705517326866
3884.0,0.015607721475734415
3883.0,0.015742798294583915
3882.0,0.015607721475734415
3881.0,0.01547268665620738
3880.0,0.015427684378367834
3879.0,0.015517693597737248
3878.0,0.015652742414136167
3877.0,0.015697768020096703
3876.0,0.015562705203923999
3875.0,0.01547268665620738
3874.0,0.015607721475734415
3873.0,0.01578783323856614
3872.0,0.01578783323856614
3871.0,0.015517693597737248
3870.0,0.015427684378367834
3869.0,0.015652742414136167
3868.0,0.015877917138889863
3867.0,0.01596801972881945
3866.0,0.015742798294583915
3865.0,0.015607721475734415
3864.0,0.015607721475734415
3863.0,0.015697768020096703
3862.0,0.015697768020096703
3861.0,0.015652742414136167
3860.0,0.015562705203923999
3859.0,0.015607721475734415
3858.0,0.01578783323856614
3857.0,0.016058141016111804
3856.0,0.016193358021584725
3855.0,0.01596801972881945
3854.0,0.01596801972881945
3853.0,0.016103208673694303
3852.0,0.016148281008528276
3851.0,0.016103208673694303
3850.0,0.01596801972881945
3849.0,0.015877917138889863
3848.0,0.015832872853011715
3847.0,0.01578783323856614
3846.0,0.01578783323856614
3845.0,0.015742798294583915
3844.0,0.015742798294583915
3843.0,0.015832872853011715
3842.0,0.01596801972881945
3841.0,0.016013078034810446
3840.0,0.016013078034810446
3839.0,0.016103208673694303
3838.0,0.016193358021584725
3837.0,0.016238439713835096
3836.0,0.016193358021584725
3835.0,0.016148281008528276
3834.0,0.016013078034810446
3833.0,0.015832872853011715
3832.0,0.015742798294583915
3831.0,0.015742798294583915
3830.0,0.015832872853011715
3829.0,0.015832872853011715
3828.0,0.015742798294583915
3827.0,0.015607721475734415
3826.0,0.015652742414136167
3825.0,0.015877917138889863
3824.0,0.016058141016111804
3823.0,0.01596801972881945
3822.0,0.01578783323856614
3821.0,0.015877917138889863
3820.0,0.016058141016111804
3819.0,0.016238439713835096
3818.0,0.016103208673694303
3817.0,0.01578783323856614
3816.0,0.015697768020096703
3815.0,0.015832872853011715
3814.0,0.015877917138889863
3813.0,0.015832872853011715
3812.0,0.01578783323856614
3811.0,0.015877917138889863
3810.0,0.01596801972881945
3809.0,0.015877917138889863
3808.0,0.015652742414136167
3807.0,0.015607721475734415
3806.0,0.015877917138889863
3805.0,0.016238439713835096
3804.0,0.016373712875465518
3803.0,0.016148281008528276
3802.0,0.016013078034810446
3801.0,0.016193358021584725
3800.0,0.01646391839700767
3799.0,0.016599261819461697
3798.0,0.01646391839700767
3797.0,0.016238439713835096
3796.0,0.016103208673694303
3795.0,0.016058141016111804
3794.0,0.016058141016111804
3793.0,0.016058141016111804
3792.0,0.016013078034810446
3791.0,0.016013078034810446
3790.0,0.016058141016111804
3789.0,0.016058141016111804
3788.0,0.016058141016111804
3787.0,0.016103208673694303
3786.0,0.016148281008528276
3785.0,0.016238439713835096
3784.0,0.01632861713980338
3783.0,0.016418813294209356
3782.0,0.016418813294209356
3781.0,0.01628352608625061
3780.0,0.016193358021584725
3779.0,0.016193358021584725
3778.0,0.016238439713835096
3777.0,0.016193358021584725
3776.0,0.016103208673694303
3775.0,0.016013078034810446
3774.0,0.016103208673694303
3773.0,0.016193358021584725
3772.0,0.016238439713835096
3771.0,0.016238439713835096
3770.0,0.01632861713980338
3769.0,0.016554142658660398
3768.0,0.016689514205884493
3767.0,0.016644385668211692
3766.0,0.016509028184833463
3765.0,0.01646391839700767
3764.0,0.016554142658660398
3763.0,0.016644385668211692
3762.0,0.016644385668211692
3761.0,0.016554142658660398
3760.0,0.016554142658660398
3759.0,0.016599261819461697
3758.0,0.016554142658660398
3757.0,0.016509028184833463
3756.0,0.016554142658660398
3755.0,0.016599261819461697
3754.0,0.016599261819461697
3753.0,0.016644385668211692
3752.0,0.016870075265299933
3751.0,0.017050711425501408
3750.0,0.017095882207371904
3749.0,0.017141057687924732
3748.0,0.017412209298337533
3747.0,0.017638298366853045
3746.0,0.017412209298337533
3745.0,0.017095882207371904
3744.0,0.017050711425501408
3743.0,0.017186237868137555
3742.0,0.017186237868137555
3741.0,0.017095882207371904
3740.0,0.017050711425501408
3739.0,0.017141057687924732
3738.0,0.017186237868137555
3737.0,0.017231422748988034
3736.0,0.017412209298337533
3735.0,0.017638298366853045
3734.0,0.01759307113620534
3733.0,0.01727661233145472
3732.0,0.017005545341335804
3731.0,0.016960383953898095
3730.0,0.017095882207371904
3729.0,0.017231422748988034
3728.0,0.017231422748988034
3727.0,0.017186237868137555
3726.0,0.017186237868137555
3725.0,0.017186237868137555
3724.0,0.017186237868137555
3723.0,0.017141057687924732
3722.0,0.017141057687924732
3721.0,0.017095882207371904
3720.0,0.017050711425501408
3719.0,0.016960383953898095
3718.0,0.016915227262211507
3717.0,0.017005545341335804
3716.0,0.017141057687924732
3715.0,0.017231422748988034
3714.0,0.017186237868137555
3713.0,0.017186237868137555
3712.0,0.017412209298337533
3711.0,0.01768353030793479
3710.0,0.017774008325325275
3709.0,0.01768353030793479
3708.0,0.017547848615010242
3707.0,0.017457417697056554
3706.0,0.017502630802287644
3705.0,0.017547848615010242
3704.0,0.017547848615010242
3703.0,0.017502630802287644
3702.0,0.017502630802287644
3701.0,0.017638298366853045
3700.0,0.017774008325325275
3699.0,0.01781925440359733
3698.0,0.017864505196230507
3697.0,0.017864505196230507
3696.0,0.017955020928509757
3695.0,0.01809082990920774
3694.0,0.018226681372252695
3693.0,0.01840788278591865
3692.0,0.018634490921455527
3691.0,0.018906576854070378
3690.0,0.019178833355664393
3689.0,0.019315025636685412
3688.0,0.019269623464054586
3687.0,0.0192242260373785
3686.0,0.019178833355664393
3685.0,0.019178833355664393
3684.0,0.019178833355664393
3683.0,0.0192242260373785
3682.0,0.019360432556262852
3681.0,0.01954210772389997
3680.0,0.019860222254245663
3679.0,0.020315076172974234
3678.0,0.020497151212598652
3677.0,0.02036058777709271
3676.0,0.02022406727031445
3675.0,0.020406104151069693
3674.0,0.020770406977844713
3673.0,0.021089422824428272
3672.0,0.021089422824428272
3671.0,0.021043834782408455
3670.0,0.02122621566987748
3669.0,0.021363051615525652
3668.0,0.02140867317992523
3667.0,0.021317434843055594
3666.0,0.021317434843055594
3665.0,0.021317434843055594
3664.0,0.02140867317992523
3663.0,0.021545566634771474
3662.0,0.021636852916117055
3661.0,0.021773818325474092
3660.0,0.02204787879853809
3659.0,0.022367834754000393
3658.0,0.02255077261765881
3657.0,0.022688026603074007
3656.0,0.02291687968414724
3655.0,0.023237476732539397
3654.0,0.023604163388120325
3653.0,0.023879381700184332
3652.0,0.024017056287453542
3651.0,0.024246610963712723
3650.0,0.024798037742147727
3649.0,0.02539620791296726
3648.0,0.02558042614771394
3647.0,0.02553436426275746
3646.0,0.025488307262671706
3645.0,0.02544225514642018
3644.0,0.02544225514642018
3643.0,0.025488307262671706
3642.0,0.025672564576383117
3641.0,0.025949097207122573
3640.0,0.02617967564731627
3639.0,0.02636422658259252
3638.0,0.02654885597506529
3637.0,0.026733563891471412
3636.0,0.026872146400301444
3635.0,0.02691835039863255
3634.0,0.02710321556345563
3633.0,0.02747318213414429
3632.0,0.027889771597169544
3631.0,0.028075050815808744
3630.0,0.02826040911222183
3629.0,0.02872415126189476
3628.0,0.029188389127482228
3627.0,0.02942069428514915
3626.0,0.029467170231675777
3625.0,0.02942069428514915
3624.0,0.029560137048236124
3623.0,0.029792641193145286
3622.0,0.030118356253500123
3621.0,0.030444315779156517
3620.0,0.030863766403287585
3619.0,0.03128362253321426
3618.0,0.031657169041054534
3617.0,0.03189079887180224
3616.0,0.03207779326948268
3615.0,0.032218091924200776
3614.0,0.03235843591698884
3613.0,0.03263926003405038
3612.0,0.032873418923587305
3611.0,0.03301397488206215
3610.0,0.033060836978886954
3609.0,0.033154576345083564
3608.0,0.03338901331806565
3607.0,0.03362357691107709
3606.0,0.0338113190438627
3605.0,0.03399914237121604
3604.0,0.034187046963396917
3603.0,0.034469056377139484
3602.0,0.03470420418834386
3601.0,0.03498654972775217
3600.0,0.03531618502395939
3599.0,0.03559892883726867
3598.0,0.03578752703018084
3597.0,0.03592902944204468
3596.0,0.03602339000339416
3595.0,0.03621217265444465
3594.0,0.03649550058570927
3593.0,0.036873558918095295
3592.0,0.037251946641359446
3591.0,0.037583306554248797
3590.0,0.03777276864991497
3589.0,0.03791491948264003
3588.0,0.038199360808321536
3587.0,0.03862637240519895
3586.0,0.03886378261277468
3585.0,0.039006291057664066
3584.0,0.03905380426616856
3583.0,0.03914884628031379
3582.0,0.039338992729018196
3581.0,0.03952922246570112
3580.0,0.03981472339538916
3579.0,0.0400527842915015
3578.0,0.0402909757535701
3577.0,0.040529297924893015
3576.0,0.04081545726880842
3575.0,0.04105406750606355
3574.0,0.04129280891271536
3573.0,0.041627267521392675
3572.0,0.04200982159316968
3571.0,0.04244059810252043
3570.0,0.04291974034210022
3569.0,0.04325545471730896
3568.0,0.04363944632667782
3567.0,0.044071843103049346
3566.0,0.044456557540257124
3565.0,0.04469717723830824
3564.0,0.04484161307420642
3563.0,0.044937930324967956
3562.0,0.04503426894157925
3561.0,0.04513062893352182
3560.0,0.04527520902093718
3559.0,0.045516282844447975
3558.0,0.04580574818413763
3557.0,0.046143701775014145
3556.0,0.04643358574299339
3555.0,0.04662694927330402
3554.0,0.04682039893436585
3553.0,0.04701393480294458
3552.0,0.047352830241056854
3551.0,0.04778894189133087
3550.0,0.04827402457540786
3549.0,0.04866248120408234
3548.0,0.04905128560059957
3547.0,0.04939177521576932
3546.0,0.04968383607539972
3545.0,0.049927370249842395
3544.0,0.05002482217034632
3543.0,0.050073556332087765
3542.0,0.050073556332087765
3541.0,0.050171041064686284
3540.0,0.050317309204795935
3539.0,0.05056119896349576
3538.0,0.050805225762017736
3537.0,0.051049389754451946
3536.0,0.051244819831730126
3535.0,0.05144033789103841
3534.0,0.05163594401163074
3533.0,0.05192951848105887
3532.0,0.05222329153526162
3531.0,0.05256627811294923
3530.0,0.05290953578037816
3529.0,0.053203972728539606
3528.0,0.0534986094304124
3527.0,0.05379344615721715
3526.0,0.05399011523423525
3525.0,0.054186873412661596
3524.0,0.05443294655761144
3523.0,0.054679159207724926
3522.0,0.0549255115212699
3521.0,0.055172003656783764
3520.0,0.05536929814372171
3519.0,0.05551732784983132
3518.0,0.05571477931124735
3517.0,0.05601112492622806
3516.0,0.05630767289398331
3515.0,0.05655495097496965
3514.0,0.05680236993107379
3513.0,0.057049929922901255
3512.0,0.057198533682059516
3511.0,0.057396751157843484
3510.0,0.0575950591438934
3509.0,0.05789269101064454
3508.0,0.05824018618530458
3507.0,0.05848856736559682
3506.0,0.058786812414678646
3505.0,0.059035506507200575
3504.0,0.05938391766259232
3503.0,0.05978244440026481
3502.0,0.060081579630943294
3501.0,0.06038092104330195
3500.0,0.06058059667068294
3499.0,0.060730413661268745
3498.0,0.06098022355133348
3497.0,0.06123017721688262
3496.0,0.06153031163235467
3495.0,0.061780582187257016
3494.0,0.06198090252378963
3493.0,0.06218131530164395
3492.0,0.062381820606176586
3491.0,0.06268275223750575
3490.0,0.06298389253518577
3489.0,0.06323500239005853
3488.0,0.06353652599525317
3487.0,0.06378795567975115
3486.0,0.06408986356949264
3485.0,0.06439198148213077
3484.0,0.06464390705442691
3483.0,0.06489597884855036
3482.0,0.06514819703433927
3481.0,0.0653500770992892
3480.0,0.06560255921901192
3479.0,0.06580465065211571
3478.0,0.06610796423578891
3477.0,0.06646209802829528
3476.0,0.06681652082538614
3475.0,0.0671712330991534
3474.0,0.06747550294945781
3473.0,0.06767846801070698
3472.0,0.06788152797087754
3471.0,0.0680846829187538
3470.0,0.06833876031551878
3469.0,0.06859298644342648
3468.0,0.0688982543673613
3467.0,0.0692037370166998
3466.0,0.06950943469373039
3465.0,0.06981534770138009
3464.0,0.07007043991541217
3463.0,0.07037674848475972
3462.0,0.07068327324650436
3461.0,0.0709900145060387
3460.0,0.07124579782334672
3459.0,0.07155293679081787
3458.0,0.0718090519612431
3457.0,0.07206531825882068
3456.0,0.07237303755504598
3455.0,0.07268097504034388
3454.0,0.0729891310243489
3453.0,0.0732460948102629
3452.0,0.07350321072677968
3451.0,0.07381195089279391
3450.0,0.07412091069849924
3449.0,0.07448164182257
3448.0,0.07489427319033615
3447.0,0.07535895258283709
3446.0,0.07577241873988227
3445.0,0.07608277688689435
3444.0,0.0763933569825408
3443.0,0.07670415934449615
3442.0,0.07701518429111709
3441.0,0.07732643214144574
3440.0,0.07763790321520991
3439.0,0.07789763319239285
3438.0,0.0781575185941421
3437.0,0.07836553894629472
3436.0,0.07862570458152551
3435.0,0.0788860261633193
3434.0,0.07919861817434581
3433.0,0.07951143534170213
3432.0,0.07982447798997727
3431.0,0.08008551934056851
3430.0,0.08029446545087904
3429.0,0.08055578953476306
3428.0,0.08076496207674921
3427.0,0.0809742354126397
3426.0,0.08118360963962057
3425.0,0.08139308485501817
3424.0,0.08160266115629988
3423.0,0.08170748724464438
3422.0,0.08186477383364066
3421.0,0.08196966321511989
3420.0,0.08212704480115218
3419.0,0.08223199755224364
3418.0,0.0823369756726251
3417.0,0.08238947425013277
3416.0,0.08249449044745338
3415.0,0.08254700807033655
3414.0,0.08265206237222844
3413.0,0.08275714209253371
3412.0,0.08291480935943274
3411.0,0.0830725338870073
3410.0,0.08328292240118751
3409.0,0.08344078069888616
3408.0,0.08359869639612438
3407.0,0.08365134772453975
3406.0,0.08370400543686918
3405.0,0.08375666953466032
3404.0,0.08380934001946239
3403.0,0.0839147001562972
3402.0,0.08402008585977572
3401.0,0.08412549714230844
3400.0,0.08428366205400617
3399.0,0.08444188458847957
3398.0,0.08454739831152125
3397.0,0.08470571697731355
3396.0,0.08475850269380558
3395.0,0.08481129482684358
3394.0,0.08481129482684358
3393.0,0.08491689834879956
3392.0,0.08502252755566908
3391.0,0.08512818245994969
3390.0,0.08518101955252688
3389.0,0.08528671302637614
3388.0,0.08539243222891946
3387.0,0.08549817717268593
3386.0,0.08555105930144569
3385.0,0.0856568428805593
3384.0,0.08576265223225898
3383.0,0.08576265223225898
3382.0,0.08570974433405087
3381.0,0.0856568428805593
3380.0,0.0856568428805593
3379.0,0.0856568428805593
3378.0,0.08576265223225898
3377.0,0.08581556657675371
3376.0,0.08592141461088798
3375.0,0.08592141461088798
3374.0,0.08586848736910624
3373.0,0.08570974433405087
3372.0,0.08549817717268593
3371.0,0.08539243222891946
3370.0,0.08539243222891946
3369.0,0.08533956941077814
3368.0,0.08533956941077814
3367.0,0.08523386307414738
3366.0,0.08507535179485148
3365.0,0.08502252755566908
3364.0,0.08491689834879956
3363.0,0.08481129482684358
3362.0,0.08460016478773014
3361.0,0.08444188458847957
3360.0,0.08433639649422697
3359.0,0.08433639649422697
3358.0,0.08438913733853282
3357.0,0.08433639649422697
3356.0,0.08423093401631587
3355.0,0.08407278830288423
3354.0,0.0838620168928248
3353.0,0.08370400543686918
3352.0,0.08354605145007499
3351.0,0.08344078069888616
3350.0,0.08328292240118751
3349.0,0.08312512146131668
3348.0,0.08291480935943274
3347.0,0.08270459905431071
3346.0,0.08254700807033655
3345.0,0.08238947425013277
3344.0,0.08228448344050654
3343.0,0.08217951800630297
3342.0,0.08212704480115218
3341.0,0.08202211740709164
3340.0,0.08191721535781271
3339.0,0.08170748724464438
3338.0,0.08139308485501817
3337.0,0.08113125661901543
3336.0,0.08092190762392604
3335.0,0.08081727095749947
3334.0,0.08066036321258663
3333.0,0.08045124103115198
3332.0,0.08024221949810584
3331.0,0.07998108397108505
3330.0,0.07977228854307139
3329.0,0.07956359344924135
3328.0,0.07935499859321249
3327.0,0.07914650387874067
3326.0,0.07893810920972144
3325.0,0.07872981449018734
3324.0,0.07857365898473456
3323.0,0.07841755960658348
3322.0,0.07826151631540124
3321.0,0.07805354577058976
3320.0,0.07784567476894111
3319.0,0.07763790321520991
3318.0,0.07743023101428781
3317.0,0.0772226580712021
3316.0,0.07706704344478843
3315.0,0.07685964397479927
3314.0,0.07665234350217442
3313.0,0.07644514193245056
3312.0,0.07623803917129979
3311.0,0.0759792995259323
3310.0,0.07572071393811841
3309.0,0.07556563645676939
3308.0,0.07541061433058172
3307.0,0.07525564752005143
3306.0,0.07515236702446293
3305.0,0.07499749231902242
3304.0,0.0748426728241014
3303.0,0.07473949048056472
3302.0,0.07458476291575367
3301.0,0.07443009045662374
3300.0,0.07427547306393745
3299.0,0.07412091069849924
3298.0,0.07391491307485598
3297.0,0.07370901311513656
3296.0,0.07350321072677968
3295.0,0.07334892291111106
3294.0,0.07314329105030759
3293.0,0.07293775650699996
3292.0,0.07273231918911849
3291.0,0.0725783049495814
3290.0,0.07242434530888953
3289.0,0.07232173586200852
3288.0,0.07221915065262552
3287.0,0.07211658966929302
3286.0,0.07196279359311708
3285.0,0.0718090519612431
3284.0,0.0716553647351379
3283.0,0.07155293679081787
3282.0,0.0713481533463054
3281.0,0.07119462910671581
3280.0,0.0710411591191702
3279.0,0.07088774334533943
3278.0,0.07073438174693436
3277.0,0.07058107428570715
3276.0,0.07042782092345012
3275.0,0.07032568205141221
3274.0,0.07022356719509815
3273.0,0.07007043991541217
3272.0,0.06986635415888243
3271.0,0.06966236426227002
3270.0,0.06945847013556561
3269.0,0.06930561233546473
3268.0,0.06915280831750303
3267.0,0.06905096883247697
3266.0,0.0688982543673613
3265.0,0.06874559358358656
3264.0,0.06859298644342648
3263.0,0.0684912781333824
3262.0,0.06833876031551878
3261.0,0.0681862960408608
3260.0,0.06798309356579857
3259.0,0.06777998612288094
3258.0,0.0675769736232612
3257.0,0.06742477650170953
3256.0,0.06727263269847072
3255.0,0.06712054217620067
3254.0,0.06691783763020887
3253.0,0.06671522765130522
3252.0,0.06656333217371957
3251.0,0.06636088747507496
3250.0,0.06620911585658007
3249.0,0.06605739725873905
3248.0,0.06590573164451952
3247.0,0.06570359318059427
3246.0,0.0654005617819271
3245.0,0.06514819703433927
3244.0,0.06489597884855036
3243.0,0.06474471821595262
3242.0,0.06459351024765114
3241.0,0.06444235490698613
3240.0,0.06429125215733666
3239.0,0.06414020196211956
3238.0,0.06398920428479049
3237.0,0.06373765809652254
3236.0,0.06353652599525317
3235.0,0.06333548699992453
3234.0,0.06313454102437754
3233.0,0.06298389253518577
3232.0,0.06278310913729457
3231.0,0.06263258248271053
3230.0,0.06243196139961715
3229.0,0.06218131530164395
3228.0,0.06198090252378963
3227.0,0.06173051653708872
3226.0,0.06143024377893891
3225.0,0.06118017497378969
3224.0,0.06093025007657582
3223.0,0.060730413661268745
3222.0,0.060530669156469985
3221.0,0.06028111764589528
3220.0,0.06003170944866376
3219.0,0.05978244440026481
3218.0,0.05953332233647113
3217.0,0.05928434309333741
3216.0,0.059035506507200575
3215.0,0.058737090681050264
3214.0,0.05843887976392925
3213.0,0.05824018618530458
3212.0,0.05804158346918653
3211.0,0.05784307153250956
3210.0,0.05764465029232335
3209.0,0.057396751157843484
3208.0,0.0571489934456626
3207.0,0.05685187064143715
3206.0,0.05650548409389744
3205.0,0.05620880107069848
3204.0,0.055961719945581745
3203.0,0.055764156206519866
3202.0,0.05561604235915585
3201.0,0.05536929814372171
3200.0,0.055122694036304765
3199.0,0.05482695382609992
3198.0,0.05458065739693696
3197.0,0.05433450056786593
3196.0,0.05413767551038262
3195.0,0.05394093961487645
3194.0,0.05369514500652506
3193.0,0.053449489430144714
3192.0,0.053203972728539606
3191.0,0.05300765925162776
3190.0,0.052762392129333646
3189.0,0.052468254304406825
3188.0,0.05217431555754937
3187.0,0.05188057561946402
3186.0,0.0515870342213991
3185.0,0.05129369109514803
3184.0,0.05100054597304693
3183.0,0.050805225762017736
3182.0,0.05056119896349576
3181.0,0.05036607620073763
3180.0,0.050171041064686284
3179.0,0.04997609347667353
3178.0,0.04978123335813667
3177.0,0.04953778109440221
3176.0,0.049245818406496555
3175.0,0.048954051864180226
3174.0,0.04866248120408234
3173.0,0.04841965509660828
3172.0,0.04817696468408794
3171.0,0.047934409814949674
3170.0,0.04774046340917959
3169.0,0.04754660357696672
3168.0,0.047352830241056854
3167.0,0.04715914332429838
3166.0,0.0469171560879138
3165.0,0.04657860031896477
3164.0,0.04628861957244457
3163.0,0.04599883231842972
3162.0,0.04580574818413763
3161.0,0.045660991397539874
3160.0,0.045516282844447975
3159.0,0.045323413081356456
3158.0,0.04508244626504121
3157.0,0.04484161307420642
3156.0,0.04455278942230456
3155.0,0.044312249686494276
3154.0,0.04411991377462465
3153.0,0.04387961360698034
3152.0,0.04368746915880539
3151.0,0.043495409683302455
3150.0,0.043303435105349175
3149.0,0.0431115453499229
3148.0,0.04291974034210022
3147.0,0.04272802000705722
3146.0,0.04263219156847242
3145.0,0.04248848854552012
3144.0,0.042344833056508824
3143.0,0.042201225070002124
3142.0,0.04200982159316968
3141.0,0.0417706858116178
3140.0,0.041579471947481794
3139.0,0.041436116778032606
3138.0,0.041340572947066834
3137.0,0.04124505013091051
3136.0,0.041149548320321694
3135.0,0.04105406750606355
3134.0,0.04091088563260792
3133.0,0.04076775094900409
3132.0,0.040672354027829094
3131.0,0.04057697805689475
3130.0,0.040481623027001756
3129.0,0.040338629726504704
3128.0,0.04014804520039483
3127.0,0.03995754427315856
3126.0,0.039767126871487646
3125.0,0.03957679292217042
3124.0,0.03938654235209116
3123.0,0.03919637508823026
3122.0,0.038958783046687984
3121.0,0.03876880295533702
3120.0,0.03862637240519895
3119.0,0.03848398855105106
3118.0,0.03838909190871931
3117.0,0.03829421599749461
3116.0,0.038199360808321536
3115.0,0.03810452633214956
3114.0,0.03800971255993524
3113.0,0.03796231343498735
3112.0,0.03796231343498735
3111.0,0.03796231343498735
3110.0,0.03796231343498735
3109.0,0.03800971255993524
3108.0,0.03800971255993524
3107.0,0.03800971255993524
3106.0,0.03796231343498735
3105.0,0.03791491948264003
3104.0,0.03782014709123227
3103.0,0.03763066432997886
3102.0,0.037488606492403154
3101.0,0.037299268295658994
3100.0,0.0371573187987575
3099.0,0.03692083935817303
3098.0,0.03668448861388862
3097.0,0.03644826642590382
3096.0,0.03621217265444465
3095.0,0.03602339000339416
3094.0,0.03583468937826462
3093.0,0.035693217696063595
3092.0,0.03559892883726867
3091.0,0.03550466044490741
3090.0,0.03550466044490741
3089.0,0.03555179208333925
3088.0,0.03555179208333925
3087.0,0.03559892883726867
3086.0,0.035646070707806565
3085.0,0.035646070707806565
3084.0,0.03559892883726867
3083.0,0.03555179208333925
3082.0,0.03545753392086315
3081.0,0.035363296211498474
3080.0,0.03526907894637077
3079.0,0.03517488211661135
3078.0,0.03508070571335731
3077.0,0.03498654972775217
3076.0,0.03489241415094413
3075.0,0.03479829897408804
3074.0,0.03475124903287918
3073.0,0.03470420418834386
3072.0,0.03465716443937783
3071.0,0.03456310022373987
3070.0,0.034469056377139484
3069.0,0.03437503289075727
3068.0,0.03432802877989327
3067.0,0.03423403581731388
3066.0,0.03414006319292828
3065.0,0.033952178923546183
3064.0,0.03376437590141812
3063.0,0.03362357691107709
3062.0,0.033482823553208085
3061.0,0.03338901331806565
3060.0,0.03334211579824231
3059.0,0.033295223342125535
3058.0,0.0332483359486222
3057.0,0.033201453616638954
3056.0,0.0332483359486222
3055.0,0.033295223342125535
3054.0,0.033295223342125535
3053.0,0.03310770413286357
3052.0,0.03282657704446046
3051.0,0.03249882527715853
3050.0,0.032031037121307726
3049.0,0.031563752288295444
3048.0,0.031143625385307683
3047.0,0.0307239045110681
3046.0,0.030397735151460825
3045.0,0.030118356253500123
3044.0,0.029885677714903025
3043.0,0.029653123769906697
3042.0,0.029467170231675777
3041.0,0.029281296279810798
3040.0,0.029141943003497595
3039.0,0.029002634427514717
3038.0,0.028863370523193765
3037.0,0.02872415126189476
3036.0,0.02863136320857662
3035.0,0.02858497661500481
3034.0,0.028538594975413334
3033.0,0.028538594975413334
3032.0,0.02849221828874393
3031.0,0.02849221828874393
3030.0,0.02849221828874393
3029.0,0.02839947976994095
3028.0,0.028353117935693284
3027.0,0.028353117935693284
3026.0,0.02839947976994095
3025.0,0.028445846553939003
3024.0,0.028445846553939003
3023.0,0.028445846553939003
3022.0,0.028445846553939003
3021.0,0.02849221828874393
3020.0,0.028538594975413334
3019.0,0.02863136320857662
3018.0,0.02872415126189476
3017.0,0.028863370523193765
3016.0,0.028956208163971375
3015.0,0.029095501846216454
3014.0,0.029188389127482228
3013.0,0.029281296279810798
3012.0,0.02942069428514915
3011.0,0.029560137048236124
3010.0,0.02969962459782227
3009.0,0.029792641193145286
3008.0,0.029932203450862893
3007.0,0.030071810571884017
3006.0,0.030211462585061133
3005.0,0.030351159519274695
3004.0,0.030490901403433135
3003.0,0.03063068826647264
3002.0,0.0307239045110681
3001.0,0.030863766403287585
3000.0,0.030957032694186815
2999.0,0.03105031901865729
2998.0,0.031096969696171817
2997.0,0.031190286087141805
2996.0,0.03128362253321426
2995.0,0.03137697904301118
2994.0,0.03151705144606498
2993.0,0.031657169041054534
2992.0,0.03189079887180224
2991.0,0.03217132066984485
2990.0,0.03245202378113787
2989.0,0.03273290844021437
2988.0,0.0329671178412978
2987.0,0.033201453616638954
2986.0,0.03343591590268957
2985.0,0.03362357691107709
2984.0,0.03376437590141812
2983.0,0.033952178923546183
2982.0,0.03414006319292828
2981.0,0.03442204208947208
2980.0,0.03470420418834386
2979.0,0.03508070571335731
2978.0,0.03545753392086315
2977.0,0.03583468937826462
2976.0,0.03621217265444465
2975.0,0.03658998431977123
2974.0,0.03701541568300293
2973.0,0.03744126420403626
2972.0,0.03791491948264003
2971.0,0.03829421599749461
2970.0,0.038721320914956836
2969.0,0.03910132267333921
2968.0,0.03952922246570112
2967.0,0.040005161671583744
2966.0,0.040481623027001756
2965.0,0.04091088563260792
2964.0,0.04124505013091051
2963.0,0.04153168163305643
2962.0,0.04172287445230238
2961.0,0.041914151478914974
2960.0,0.04200982159316968
2959.0,0.04200982159316968
2958.0,0.04196198390166317
2957.0,0.04181850243505214
2956.0,0.041579471947481794
2955.0,0.04129280891271536
2954.0,0.04086316882962593
2953.0,0.04043395336207234
2952.0,0.039909932095080425
2951.0,0.03929144831144349
2950.0,0.038673844065289176
2949.0,0.03800971255993524
2948.0,0.037346595106788616
2947.0,0.03663723389626394
2946.0,0.03592902944204468
2945.0,0.03526907894637077
2944.0,0.03461012978487776
2943.0,0.03399914237121604
2942.0,0.03338901331806565
2941.0,0.03282657704446046
2940.0,0.03235843591698884
2939.0,0.03193753992355086
2938.0,0.03151705144606498
2937.0,0.03105031901865729
2936.0,0.03063068826647264
2935.0,0.03025802323714588
2934.0,0.029932203450862893
2933.0,0.02969962459782227
2932.0,0.029467170231675777
2931.0,0.02932775731028059
2930.0,0.029188389127482228
2929.0,0.029002634427514717
2928.0,0.028816959143838528
2927.0,0.028677754757187035
2926.0,0.02849221828874393
2925.0,0.02839947976994095
2924.0,0.028353117935693284
2923.0,0.02839947976994095
2922.0,0.028445846553939003
2921.0,0.028445846553939003
2920.0,0.028353117935693284
2919.0,0.02826040911222183
2918.0,0.028214062120885508
2917.0,0.028167720075074953
2916.0,0.028167720075074953
2915.0,0.02812138297373412
2914.0,0.028075050815808744
2913.0,0.02798240132598462
2912.0,0.027889771597169544
2911.0,0.027843464140506313
2910.0,0.027889771597169544
2909.0,0.027936083991977778
2908.0,0.028028723600243666
2907.0,0.028075050815808744
2906.0,0.02812138297373412
2905.0,0.02812138297373412
2904.0,0.02812138297373412
2903.0,0.028167720075074953
2902.0,0.028167720075074953
2901.0,0.028167720075074953
2900.0,0.028167720075074953
2899.0,0.028167720075074953
2898.0,0.028214062120885508
2897.0,0.02826040911222183
2896.0,0.028353117935693284
2895.0,0.02839947976994095
2894.0,0.02839947976994095
2893.0,0.02839947976994095
2892.0,0.02839947976994095
2891.0,0.02839947976994095
2890.0,0.02839947976994095
2889.0,0.02839947976994095
2888.0,0.02839947976994095
2887.0,0.028353117935693284
2886.0,0.02826040911222183
2885.0,0.02812138297373412
2884.0,0.027936083991977778
2883.0,0.027750864037404455
2882.0,0.027565723042634938
2881.0,0.02738066094037661
2880.0,0.027149444152769986
2879.0,0.02696455931306696
2878.0,0.02677975314776626
2877.0,0.02664120011360227
2876.0,0.02654885597506529
2875.0,0.026502691267936695
2874.0,0.026410376572743033
2873.0,0.026271941311972746
2872.0,0.026087429580295085
2871.0,0.025902996205869
2870.0,0.025764722556973707
2869.0,0.025672564576383117
2868.0,0.02562649291857677
2867.0,0.02558042614771394
2866.0,0.02553436426275746
2865.0,0.02544225514642018
2864.0,0.025350165561278004
2863.0,0.025258095499050004
2862.0,0.02521206778644225
2861.0,0.02516604495145991
2860.0,0.025074013910237447
2859.0,0.02498200236711723
2858.0,0.02484402159331056
2857.0,0.02475205875931885
2856.0,0.024660115394541604
2855.0,0.02461415101053266
2854.0,0.024476287039668643
2853.0,0.024338466818941473
2852.0,0.024154774532432866
2851.0,0.024017056287453542
2850.0,0.023879381700184332
2849.0,0.023695883447997224
2848.0,0.023466619608062178
2847.0,0.023237476732539397
2846.0,0.02300845469384938
2845.0,0.02282532397981263
2844.0,0.02259651912656535
2843.0,0.022413561996148967
2842.0,0.02227639471115217
2841.0,0.022139270735302752
2840.0,0.02204787879853809
2839.0,0.021956506090037076
2838.0,0.021865152601710403
2837.0,0.02168250325324883
2836.0,0.021545566634771474
2835.0,0.0214542995372613
2834.0,0.021363051615525652
2833.0,0.021271822861508305
2832.0,0.0211806132671577
2831.0,0.021043834782408455
2830.0,0.020952673052035298
2829.0,0.020861530453190058
2828.0,0.02081596632558158
2827.0,0.02081596632558158
2826.0,0.020770406977844713
2825.0,0.020770406977844713
2824.0,0.020770406977844713
2823.0,0.020724852408976924
2822.0,0.02067930261797568
2821.0,0.02058821736556471
2820.0,0.020497151212598652
2819.0,0.020406104151069693
2818.0,0.020315076172974234
2817.0,0.02026956933771462
2816.0,0.020178569969774962
2815.0,0.020178569969774962
2814.0,0.020178569969774962
2813.0,0.020178569969774962
2812.0,0.02013307743509718
2811.0,0.02013307743509718
2810.0,0.020087589665283012
2809.0,0.020087589665283012
2808.0,0.02004210665933459
2807.0,0.019996628416253603
2806.0,0.01995115493504329
2805.0,0.01990568621470623
2804.0,0.019860222254245663
2803.0,0.019814763052665052
2802.0,0.019723858922159776
2801.0,0.019678413991243593
2800.0,0.019632973815224997
2799.0,0.01958753839310856
2798.0,0.01958753839310856
2797.0,0.01958753839310856
2796.0,0.01958753839310856
2795.0,0.01954210772389997
2794.0,0.01954210772389997
2793.0,0.019451260640229506
2792.0,0.01940584422377989
2791.0,0.019315025636685412
2790.0,0.019269623464054586
2789.0,0.019178833355664393
2788.0,0.019178833355664393
2787.0,0.019133445417920836
2786.0,0.019133445417920836
2785.0,0.019133445417920836
2784.0,0.019133445417920836
2783.0,0.0190880622231564
2782.0,0.01899731005860028
2781.0,0.018906576854070378
2780.0,0.018815862601645694
2779.0,0.018815862601645694
2778.0,0.018815862601645694
2777.0,0.018861217359339655
2776.0,0.018861217359339655
2775.0,0.018861217359339655
2774.0,0.018815862601645694
2773.0,0.018770512579999288
2772.0,0.018725167293411005
2771.0,0.018679826740892747
2770.0,0.018634490921455527
2769.0,0.01858915983411169
2768.0,0.018543833477873584
2767.0,0.018543833477873584
2766.0,0.018543833477873584
2765.0,0.018543833477873584
2764.0,0.018543833477873584
2763.0,0.018543833477873584
2762.0,0.018543833477873584
2761.0,0.018498511851753108
2760.0,0.01845319495476394
2759.0,0.01840788278591865
2758.0,0.018362575344230914
2757.0,0.018362575344230914
2756.0,0.01831727262871463
2755.0,0.01831727262871463
2754.0,0.01831727262871463
2753.0,0.018271974638383703
2752.0,0.018271974638383703
2751.0,0.018226681372252695
2750.0,0.018226681372252695
2749.0,0.018181392829336396
2748.0,0.01809082990920774
2747.0,0.018045555530026514
2746.0,0.01800028587012159
2745.0,0.017955020928509757
2744.0,0.017955020928509757
2743.0,0.017955020928509757
2742.0,0.017955020928509757
2741.0,0.017955020928509757
2740.0,0.017955020928509757
2739.0,0.017909760704207134
2738.0,0.017909760704207134
2737.0,0.017909760704207134
2736.0,0.017864505196230507
2735.0,0.01781925440359733
2734.0,0.017774008325325275
2733.0,0.01768353030793479
2732.0,0.017638298366853045
2731.0,0.017638298366853045
2730.0,0.01768353030793479
2729.0,0.01768353030793479
2728.0,0.017638298366853045
2727.0,0.01759307113620534
2726.0,0.017547848615010242
2725.0,0.017502630802287644
2724.0,0.017412209298337533
2723.0,0.017321806616515723
2722.0,0.01727661233145472
2721.0,0.017231422748988034
2720.0,0.017231422748988034
2719.0,0.017231422748988034
2718.0,0.017231422748988034
2717.0,0.017186237868137555
2716.0,0.017141057687924732
2715.0,0.017141057687924732
2714.0,0.017141057687924732
2713.0,0.017141057687924732
2712.0,0.017095882207371904
2711.0,0.017050711425501408
2710.0,0.017050711425501408
2709.0,0.017050711425501408
2708.0,0.017050711425501408
2707.0,0.017005545341335804
2706.0,0.016960383953898095
2705.0,0.016870075265299933
2704.0,0.016824927962187042
2703.0,0.01677978535189717
2702.0,0.016734647433454652
2701.0,0.016734647433454652
2700.0,0.016689514205884493
2699.0,0.016689514205884493
2698.0,0.016689514205884493
2697.0,0.016689514205884493
2696.0,0.016644385668211692
2695.0,0.016644385668211692
2694.0,0.016689514205884493
2693.0,0.016689514205884493
2692.0,0.016644385668211692
2691.0,0.016554142658660398
2690.0,0.01646391839700767
2689.0,0.016418813294209356
2688.0,0.016418813294209356
2687.0,0.01646391839700767
2686.0,0.016509028184833463
2685.0,0.01646391839700767
2684.0,0.016418813294209356
2683.0,0.016373712875465518
2682.0,0.01628352608625061
2681.0,0.016238439713835096
2680.0,0.016238439713835096
2679.0,0.01628352608625061
2678.0,0.01628352608625061
2677.0,0.01628352608625061
2676.0,0.01628352608625061
2675.0,0.01628352608625061
2674.0,0.01628352608625061
2673.0,0.01628352608625061
2672.0,0.016238439713835096
2671.0,0.016193358021584725
2670.0,0.016193358021584725
2669.0,0.016193358021584725
2668.0,0.016193358021584725
2667.0,0.016238439713835096
2666.0,0.016238439713835096
2665.0,0.016238439713835096
2664.0,0.016193358021584725
2663.0,0.016103208673694303
2662.0,0.016058141016111804
2661.0,0.016058141016111804
2660.0,0.016058141016111804
2659.0,0.016058141016111804
2658.0,0.016058141016111804
2657.0,0.016013078034810446
2656.0,0.015922966097169144
2655.0,0.015877917138889863
2654.0,0.015832872853011715
2653.0,0.01578783323856614
2652.0,0.01578783323856614
2651.0,0.01578783323856614
2650.0,0.015832872853011715
2649.0,0.015922966097169144
2648.0,0.015922966097169144
2647.0,0.01596801972881945
2646.0,0.01596801972881945
2645.0,0.015922966097169144
2644.0,0.015877917138889863
2643.0,0.015877917138889863
2642.0,0.015877917138889863
2641.0,0.015877917138889863
2640.0,0.015877917138889863
2639.0,0.015922966097169144
2638.0,0.015922966097169144
2637.0,0.01596801972881945
2636.0,0.016013078034810446
2635.0,0.016013078034810446
2634.0,0.01596801972881945
2633.0,0.015922966097169144
2632.0,0.015922966097169144
2631.0,0.01596801972881945
2630.0,0.016013078034810446
2629.0,0.016058141016111804
2628.0,0.016103208673694303
2627.0,0.016193358021584725
2626.0,0.016193358021584725
2625.0,0.016193358021584725
2624.0,0.016193358021584725
2623.0,0.016148281008528276
2622.0,0.016103208673694303
2621.0,0.016103208673694303
2620.0,0.016058141016111804
2619.0,0.016058141016111804
2618.0,0.016058141016111804
2617.0,0.016013078034810446
2616.0,0.016013078034810446
2615.0,0.016013078034810446
2614.0,0.016013078034810446
2613.0,0.01596801972881945
2612.0,0.015922966097169144
2611.0,0.015877917138889863
2610.0,0.015877917138889863
2609.0,0.015877917138889863
2608.0,0.015832872853011715
2607.0,0.015832872853011715
2606.0,0.015832872853011715
2605.0,0.015832872853011715
2604.0,0.015877917138889863
2603.0,0.015877917138889863
2602.0,0.015832872853011715
2601.0,0.01578783323856614
2600.0,0.015742798294583915
2599.0,0.015742798294583915
2598.0,0.015742798294583915
2597.0,0.01578783323856614
2596.0,0.01578783323856614
2595.0,0.015832872853011715
2594.0,0.015877917138889863
2593.0,0.015922966097169144
2592.0,0.015922966097169144
2591.0,0.015877917138889863
2590.0,0.015832872853011715
2589.0,0.01578783323856614
2588.0,0.01578783323856614
2587.0,0.015742798294583915
2586.0,0.01578783323856614
2585.0,0.015832872853011715
2584.0,0.015922966097169144
2583.0,0.01596801972881945
2582.0,0.016013078034810446
2581.0,0.016013078034810446
2580.0,0.01596801972881945
2579.0,0.015922966097169144
2578.0,0.015922966097169144
2577.0,0.015877917138889863
2576.0,0.015877917138889863
2575.0,0.015922966097169144
2574.0,0.01596801972881945
2573.0,0.01596801972881945
2572.0,0.01596801972881945
2571.0,0.015922966097169144
2570.0,0.015922966097169144
2569.0,0.015922966097169144
2568.0,0.015877917138889863
2567.0,0.015832872853011715
2566.0,0.01578783323856614
2565.0,0.015742798294583915
2564.0,0.015697768020096703
2563.0,0.015742798294583915
2562.0,0.01578783323856614
2561.0,0.01578783323856614
2560.0,0.01578783323856614
2559.0,0.015742798294583915
2558.0,0.015742798294583915
2557.0,0.015697768020096703
2556.0,0.015742798294583915
2555.0,0.01578783323856614
2554.0,0.015742798294583915
2553.0,0.015742798294583915
2552.0,0.015697768020096703
2551.0,0.015697768020096703
2550.0,0.015742798294583915
2549.0,0.01578783323856614
2548.0,0.015832872853011715
2547.0,0.015832872853011715
2546.0,0.015832872853011715
2545.0,0.015832872853011715
2544.0,0.01578783323856614
2543.0,0.01578783323856614
2542.0,0.015742798294583915
2541.0,0.015697768020096703
2540.0,0.015652742414136167
2539.0,0.015652742414136167
2538.0,0.015697768020096703
2537.0,0.015742798294583915
2536.0,0.015742798294583915
2535.0,0.015742798294583915
2534.0,0.015697768020096703
2533.0,0.015697768020096703
2532.0,0.015652742414136167
2531.0,0.015697768020096703
2530.0,0.015697768020096703
2529.0,0.015697768020096703
2528.0,0.015697768020096703
2527.0,0.015697768020096703
2526.0,0.015742798294583915
2525.0,0.015742798294583915
2524.0,0.015697768020096703
2523.0,0.015652742414136167
2522.0,0.015607721475734415
2521.0,0.015562705203923999
2520.0,0.015562705203923999
2519.0,0.015562705203923999
2518.0,0.015562705203923999
2517.0,0.015517693597737248
2516.0,0.01547268665620738
2515.0,0.01547268665620738
2514.0,0.015427684378367834
2513.0,0.01547268665620738
2512.0,0.015517693597737248
2511.0,0.015562705203923999
2510.0,0.015562705203923999
2509.0,0.015517693597737248
2508.0,0.01547268665620738
2507.0,0.015427684378367834
2506.0,0.01547268665620738
2505.0,0.01547268665620738
2504.0,0.01547268665620738
2503.0,0.015427684378367834
2502.0,0.01538268676325183
2501.0,0.015337693809893471
2500.0,0.015292705517326866
2499.0,0.015292705517326866
2498.0,0.015247721884586563
2497.0,0.015247721884586563
2496.0,0.015247721884586563
2495.0,0.015202742910707112
2494.0,0.015202742910707112
2493.0,0.015157768594724175
2492.0,0.015112798935672522
2491.0,0.015067833932588037
2490.0,0.014977917890464765
2489.0,0.014932966849499074
2488.0,0.014888020460646079
2487.0,0.014932966849499074
2486.0,0.014977917890464765
2485.0,0.014977917890464765
2484.0,0.014977917890464765
2483.0,0.014932966849499074
2482.0,0.014888020460646079
2481.0,0.014843078722943437
2480.0,0.014798141635428141
2479.0,0.014708281407112
2478.0,0.014663358264387139
2477.0,0.014618439768003144
2476.0,0.014573525916998342
2475.0,0.014573525916998342
2474.0,0.014573525916998342
2473.0,0.014573525916998342
2472.0,0.014573525916998342
2471.0,0.01452861671041239
2470.0,0.01452861671041239
2469.0,0.01452861671041239
2468.0,0.01452861671041239
2467.0,0.014573525916998342
2466.0,0.01452861671041239
2465.0,0.0144837121472845
2464.0,0.014438812226654996
2463.0,0.014438812226654996
2462.0,0.0144837121472845
2461.0,0.0144837121472845
2460.0,0.014438812226654996
2459.0,0.014438812226654996
2458.0,0.014393916947563534
2457.0,0.014393916947563534
2456.0,0.014349026309051105
2455.0,0.014349026309051105
2454.0,0.014393916947563534
2453.0,0.014393916947563534
2452.0,0.014393916947563534
2451.0,0.014349026309051105
2450.0,0.014259258949925524
2449.0,0.014214382227394795
2448.0,0.014169510141607944
2447.0,0.014124642691606404
2446.0,0.014124642691606404
2445.0,0.014124642691606404
2444.0,0.014169510141607944
2443.0,0.014214382227394795
2442.0,0.014304140310157809
2441.0,0.014349026309051105
2440.0,0.014349026309051105
2439.0,0.014304140310157809
2438.0,0.014304140310157809
2437.0,0.014304140310157809
2436.0,0.014349026309051105
2435.0,0.014393916947563534
2434.0,0.014438812226654996
2433.0,0.014438812226654996
2432.0,0.014393916947563534
2431.0,0.014393916947563534
2430.0,0.014393916947563534
2429.0,0.014438812226654996
2428.0,0.014438812226654996
2427.0,0.0144837121472845
2426.0,0.0144837121472845
2425.0,0.01452861671041239
2424.0,0.014573525916998342
2423.0,0.014618439768003144
2422.0,0.014663358264387139
2421.0,0.014708281407112
2420.0,0.014753209197138295
2419.0,0.014798141635428141
2418.0,0.014798141635428141
2417.0,0.014798141635428141
2416.0,0.014798141635428141
2415.0,0.014753209197138295
2414.0,0.014753209197138295
2413.0,0.014753209197138295
2412.0,0.014798141635428141
2411.0,0.014843078722943437
2410.0,0.014888020460646079
2409.0,0.014932966849499074
2408.0,0.015022873584506602
2407.0,0.015067833932588037
2406.0,0.015067833932588037
2405.0,0.015022873584506602
2404.0,0.014977917890464765
2403.0,0.014977917890464765
2402.0,0.015022873584506602
2401.0,0.015022873584506602
2400.0,0.015022873584506602
2399.0,0.015022873584506602
2398.0,0.014977917890464765
2397.0,0.014977917890464765
2396.0,0.015022873584506602
2395.0,0.015067833932588037
2394.0,0.015157768594724175
2393.0,0.015157768594724175
2392.0,0.015202742910707112
2391.0,0.015202742910707112
2390.0,0.015247721884586563
2389.0,0.015292705517326866
2388.0,0.01538268676325183
2387.0,0.01547268665620738
2386.0,0.015517693597737248
2385.0,0.015562705203923999
2384.0,0.015562705203923999
2383.0,0.015607721475734415
2382.0,0.015607721475734415
2381.0,0.015607721475734415
2380.0,0.015517693597737248
2379.0,0.01538268676325183
2378.0,0.015202742910707112
2377.0,0.015112798935672522
2376.0,0.015067833932588037
2375.0,0.015067833932588037
2374.0,0.014932966849499074
2373.0,0.014573525916998342
2372.0,0.014214382227394795
2371.0,0.014169510141607944
2370.0,0.01452861671041239
2369.0,0.015247721884586563
2368.0,0.016148281008528276
2367.0,0.017005545341335804
2366.0,0.017186237868137555
2365.0,0.016644385668211692
2364.0,0.016148281008528276
2363.0,0.016644385668211692
2362.0,0.017864505196230507
2361.0,0.019178833355664393
2360.0,0.01990568621470623
2359.0,0.019723858922159776
2358.0,0.01858915983411169
2357.0,0.017095882207371904
2356.0,0.016103208673694303
2355.0,0.01547268665620738
2354.0,0.01452861671041239
2353.0,0.013541787262693505
2352.0,0.01318349541446362
2351.0,0.013676222949234651
2350.0,0.014393916947563534
2349.0,0.0144837121472845
2348.0,0.01381070026317599
2347.0,0.012914970375878188
2346.0,0.012557195064198723
2345.0,0.012780770091995297
2344.0,0.013004460275618523
2343.0,0.012914970375878188
2342.0,0.01264661126420652
2341.0,0.012333735073725371
2340.0,0.012021084124518078
2339.0,0.011931796607364653
2338.0,0.012021084124518078
2337.0,0.012289056869694281
2336.0,0.01260190086298274
2335.0,0.012825498912458322
2334.0,0.012870232340102872
2333.0,0.012959713020733288
2332.0,0.01318349541446362
2331.0,0.013541787262693505
2330.0,0.013631406429727155
2329.0,0.013452186585275916
2328.0,0.01322826573375524
2327.0,0.01322826573375524
2326.0,0.013317820220494436
2325.0,0.013317820220494436
2324.0,0.013317820220494436
2323.0,0.013362604389846044
2322.0,0.013586594534531482
2321.0,0.013900374944870508
2320.0,0.014214382227394795
2319.0,0.0144837121472845
2318.0,0.01452861671041239
2317.0,0.01452861671041239
2316.0,0.01452861671041239
2315.0,0.01452861671041239
2314.0,0.01452861671041239
2313.0,0.01452861671041239
2312.0,0.0144837121472845
2311.0,0.014438812226654996
2310.0,0.014393916947563534
2309.0,0.014349026309051105
2308.0,0.014259258949925524
2307.0,0.014214382227394795
2306.0,0.014124642691606404
2305.0,0.01403492169512921
2304.0,0.013945219230304673
2303.0,0.013945219230304673
2302.0,0.013945219230304673
2301.0,0.013945219230304673
2300.0,0.013900374944870508
2299.0,0.013945219230304673
2298.0,0.013945219230304673
2297.0,0.013990068146738865
2296.0,0.01403492169512921
2295.0,0.014079779876432497
2294.0,0.014079779876432497
2293.0,0.014079779876432497
2292.0,0.014079779876432497
2291.0,0.014124642691606404
2290.0,0.014169510141607944
2289.0,0.014169510141607944
2288.0,0.014169510141607944
2287.0,0.014169510141607944
2286.0,0.014124642691606404
2285.0,0.014079779876432497
2284.0,0.014079779876432497
2283.0,0.014079779876432497
2282.0,0.01403492169512921
2281.0,0.013945219230304673
2280.0,0.01385553528947936
2279.0,0.013765869865004277
2278.0,0.01372104409400876
2277.0,0.013676222949234651
2276.0,0.013631406429727155
2275.0,0.013541787262693505
2274.0,0.013452186585275916
2273.0,0.013362604389846044
2272.0,0.01322826573375524
2271.0,0.01318349541446362
2270.0,0.01322826573375524
2269.0,0.01322826573375524
2268.0,0.013273040668781544
2267.0,0.013273040668781544
2266.0,0.01322826573375524
2265.0,0.01318349541446362
2264.0,0.01318349541446362
2263.0,0.01322826573375524
2262.0,0.013273040668781544
2261.0,0.013273040668781544
2260.0,0.01322826573375524
2259.0,0.01322826573375524
2258.0,0.01322826573375524
2257.0,0.013273040668781544
2256.0,0.013273040668781544
2255.0,0.013273040668781544
2254.0,0.013273040668781544
2253.0,0.01322826573375524
2252.0,0.01318349541446362
2251.0,0.01318349541446362
2250.0,0.01318349541446362
2249.0,0.01318349541446362
2248.0,0.01318349541446362
2247.0,0.01318349541446362
2246.0,0.013138729709955221
2245.0,0.013049212141483357
2244.0,0.012959713020733288
2243.0,0.012870232340102872
2242.0,0.012825498912458322
2241.0,0.012825498912458322
2240.0,0.012870232340102872
2239.0,0.012914970375878188
2238.0,0.012870232340102872
2237.0,0.012870232340102872
2236.0,0.012825498912458322
2235.0,0.012825498912458322
2234.0,0.012780770091995297
2233.0,0.012736045877764557
2232.0,0.012691326268817527
2231.0,0.012691326268817527
2230.0,0.012691326268817527
2229.0,0.01264661126420652
2228.0,0.01260190086298274
2227.0,0.012557195064198723
2226.0,0.012467797270160563
2225.0,0.012378417874516323
2224.0,0.012378417874516323
2223.0,0.012378417874516323
2222.0,0.012378417874516323
2221.0,0.012333735073725371
2220.0,0.012289056869694281
2219.0,0.012289056869694281
2218.0,0.012289056869694281
2217.0,0.012289056869694281
2216.0,0.012333735073725371
2215.0,0.012333735073725371
2214.0,0.012289056869694281
2213.0,0.012289056869694281
2212.0,0.012244383261476699
2211.0,0.012244383261476699
2210.0,0.012199714248127602
2209.0,0.01215504982870197
2208.0,0.012110390002254778
2207.0,0.012065734767841452
2206.0,0.012021084124518078
2205.0,0.0119764380713403
2204.0,0.011887159731648111
2203.0,0.011887159731648111
2202.0,0.011842527443247208
2201.0,0.011842527443247208
2200.0,0.011842527443247208
2199.0,0.011797899741219142
2198.0,0.011753276624621556
2197.0,0.011708658092512314
2196.0,0.011708658092512314
2195.0,0.011708658092512314
2194.0,0.011664044143949504
2193.0,0.011619434777991433
2192.0,0.011574829993696856
2191.0,0.011574829993696856
2190.0,0.011574829993696856
2189.0,0.011574829993696856
2188.0,0.011530229790124524
2187.0,0.011530229790124524
2186.0,0.011485634166333858
2185.0,0.011441043121384498
2184.0,0.011441043121384498
2183.0,0.011485634166333858
2182.0,0.011530229790124524
2181.0,0.011530229790124524
2180.0,0.011485634166333858
2179.0,0.011441043121384498
2178.0,0.011396456654336085
2177.0,0.011351874764248926
2176.0,0.011351874764248926
2175.0,0.011396456654336085
2174.0,0.011396456654336085
2173.0,0.011441043121384498
2172.0,0.011441043121384498
2171.0,0.011396456654336085
2170.0,0.011396456654336085
2169.0,0.011396456654336085
2168.0,0.011396456654336085
2167.0,0.011441043121384498
2166.0,0.011441043121384498
2165.0,0.011485634166333858
2164.0,0.011530229790124524
2163.0,0.011530229790124524
2162.0,0.011485634166333858
2161.0,0.011485634166333858
2160.0,0.011441043121384498
2159.0,0.011485634166333858
2158.0,0.011485634166333858
2157.0,0.011485634166333858
2156.0,0.011530229790124524
2155.0,0.011574829993696856
2154.0,0.011619434777991433
2153.0,0.011619434777991433
2152.0,0.011619434777991433
2151.0,0.011664044143949504
2150.0,0.011664044143949504
2149.0,0.011664044143949504
2148.0,0.011619434777991433
2147.0,0.011574829993696856
2146.0,0.011530229790124524
2145.0,0.011485634166333858
2144.0,0.011441043121384498
2143.0,0.011485634166333858
2142.0,0.011530229790124524
2141.0,0.011530229790124524
2140.0,0.011574829993696856
2139.0,0.011619434777991433
2138.0,0.011619434777991433
2137.0,0.011619434777991433
2136.0,0.011574829993696856
2135.0,0.011574829993696856
2134.0,0.011574829993696856
2133.0,0.011574829993696856
2132.0,0.011574829993696856
2131.0,0.011574829993696856
2130.0,0.011574829993696856
2129.0,0.011530229790124524
2128.0,0.011530229790124524
2127.0,0.011485634166333858
2126.0,0.011441043121384498
2125.0,0.011396456654336085
2124.0,0.011351874764248926
2123.0,0.011351874764248926
2122.0,0.011351874764248926
2121.0,0.011396456654336085
2120.0,0.011396456654336085
2119.0,0.011396456654336085
2118.0,0.011351874764248926
2117.0,0.011307297450183107
2116.0,0.011262724711199823
2115.0,0.011307297450183107
2114.0,0.011351874764248926
2113.0,0.011396456654336085
2112.0,0.011441043121384498
2111.0,0.011441043121384498
2110.0,0.011396456654336085
2109.0,0.011307297450183107
2108.0,0.011262724711199823
2107.0,0.011218156546359825
2106.0,0.01117359295472431
2105.0,0.01117359295472431
2104.0,0.01117359295472431
2103.0,0.01117359295472431
2102.0,0.01117359295472431
2101.0,0.011084479487313281
2100.0,0.011039929609661936
2099.0,0.011039929609661936
2098.0,0.011084479487313281
2097.0,0.011084479487313281
2096.0,0.011039929609661936
2095.0,0.010995384301463185
2094.0,0.010950843561779777
2093.0,0.01086177578421088
2092.0,0.01077272626946324
2091.0,0.010728208358306901
2090.0,0.010683695010048622
2089.0,0.010594681998483901
2088.0,0.010550182333308289
2087.0,0.010550182333308289
2086.0,0.010550182333308289
2085.0,0.010505687227290839
2084.0,0.01046119667949763
2083.0,0.010416710688994968
2082.0,0.01037222925484893
2081.0,0.010327752376126709
2080.0,0.010327752376126709
2079.0,0.010283280051895272
2078.0,0.01023881228122181
2077.0,0.010149890396819572
2076.0,0.010060986715464404
2075.0,0.01001654169860089
2074.0,0.009927665307847056
2073.0,0.009883233932095559
2072.0,0.009794384815193347
2071.0,0.00974996707218323
2070.0,0.00966114521239847
2069.0,0.009527946474380489
2068.0,0.009483555971770974
2067.0,0.009439170005980158
2066.0,0.00939478857608056
2065.0,0.009350411681145587
2064.0,0.009261671492462709
2063.0,0.009172949432521227
2062.0,0.00908424549391551
2061.0,0.008995559669244813
2060.0,0.008951223547323472
2059.0,0.008906891951112605
2058.0,0.008906891951112605
2057.0,0.008862564879688284
2056.0,0.008818242332126802
2055.0,0.008773924307505121
2054.0,0.008685301823389224
2053.0,0.008596697419959609
2052.0,0.008463824699968647
2051.0,0.008419542825660153
2050.0,0.008375265465994541
2049.0,0.008330992620051436
2048.0,0.008330992620051436
2047.0,0.008330992620051436
2046.0,0.008242460465651913
2045.0,0.008198201155356077
2044.0,0.008153946355103248
2043.0,0.008153946355103248
2042.0,0.008153946355103248
2041.0,0.008153946355103248
2040.0,0.008109696063975047
2039.0,0.008109696063975047
2038.0,0.008065450281052211
2037.0,0.007976972236149349
2036.0,0.007888512213050314
2035.0,0.007800070204414977
2034.0,0.007800070204414977
2033.0,0.007800070204414977
2032.0,0.007755855953228474
2031.0,0.007755855953228474
2030.0,0.007711646202907652
2029.0,0.007667440952535687
2028.0,0.00762324020119709
2027.0,0.00762324020119709
2026.0,0.0075790439479759275
2025.0,0.007490664932224611
2024.0,0.0074464821678643656
2023.0,0.0074464821678643656
2022.0,0.007402303897961815
2021.0,0.007402303897961815
2020.0,0.007402303897961815
2019.0,0.0074464821678643656
2018.0,0.007490664932224611
2017.0,0.007490664932224611
2016.0,0.0074464821678643656
2015.0,0.007490664932224611
2014.0,0.007490664932224611
2013.0,0.007490664932224611
2012.0,0.0074464821678643656
2011.0,0.0074464821678643656
2010.0,0.007402303897961815
2009.0,0.007402303897961815
2008.0,0.007402303897961815
2007.0,0.007402303897961815
2006.0,0.0074464821678643656
2005.0,0.0074464821678643656
2004.0,0.007490664932224611
2003.0,0.007490664932224611
2002.0,0.007534852191956709
2001.0,0.007490664932224611
2000.0,0.007490664932224611
1999.0,0.007534852191956709
1998.0,0.007534852191956709
1997.0,0.0075790439479759275
1996.0,0.00762324020119709
1995.0,0.007755855953228474
1994.0,0.007888512213050314
1993.0,0.007976972236149349
1992.0,0.008021209005416363
1991.0,0.008021209005416363
1990.0,0.008021209005416363
1989.0,0.008021209005416363
1988.0,0.007976972236149349
1987.0,0.007976972236149349
1986.0,0.007976972236149349
1985.0,0.007932739972333236
1984.0,0.007932739972333236
1983.0,0.007932739972333236
1982.0,0.007932739972333236
1981.0,0.007932739972333236
1980.0,0.007888512213050314
1979.0,0.007888512213050314
1978.0,0.007888512213050314
1977.0,0.007888512213050314
1976.0,0.007888512213050314
1975.0,0.007932739972333236
1974.0,0.008021209005416363
1973.0,0.008065450281052211
1972.0,0.008153946355103248
1971.0,0.008242460465651913
1970.0,0.008330992620051436
1969.0,0.008419542825660153
1968.0,0.00850811108984062
1967.0,0.008640997362049818
1966.0,0.008685301823389224
1965.0,0.008685301823389224
1964.0,0.008685301823389224
1963.0,0.008773924307505121
1962.0,0.008862564879688284
1961.0,0.008951223547323472
1960.0,0.00908424549391551
1959.0,0.009261671492462709
1958.0,0.00939478857608056
1957.0,0.009483555971770974
1956.0,0.009527946474380489
1955.0,0.009572341514736404
1954.0,0.009616741093766423
1953.0,0.009616741093766423
1952.0,0.00966114521239847
1951.0,0.00966114521239847
1950.0,0.00966114521239847
1949.0,0.009616741093766423
1948.0,0.009572341514736404
1947.0,0.009572341514736404
1946.0,0.009527946474380489
1945.0,0.009483555971770974
1944.0,0.009350411681145587
1943.0,0.009217308196862062
1942.0,0.008951223547323472
1941.0,0.008640997362049818
1940.0,0.008419542825660153
1939.0,0.008242460465651913
1938.0,0.008065450281052211
1937.0,0.007844288957383316
1936.0,0.007667440952535687
1935.0,0.007490664932224611
1934.0,0.007313960837872058
1933.0,0.007137328610972382
1932.0,0.006916639301937977
1931.0,0.006784279525863024
1930.0,0.006651960076740071
1929.0,0.006519680930003435
1928.0,0.006387442061109638
1927.0,0.006299305179649828
1926.0,0.00625524344553785
1925.0,0.00621118618129457
1924.0,0.006079041198713275
1923.0,0.005946936412324799
1922.0,0.005814871797682919
1921.0,0.005682847330363394
1920.0,0.005550862985963967
1919.0,0.00541891874010525
1918.0,0.005199100705396198
1917.0,0.004979393875242044
1916.0,0.004803708402820517
1915.0,0.004715892310740433
1914.0,0.004671990922590297
1913.0,0.004540313378935901
1912.0,0.004452550524862486
1911.0,0.0043648054024501
1910.0,0.004277078004534696
1909.0,0.004101676353562844
1908.0,0.003970171588923321
1907.0,0.0038387066319929275
1906.0,0.003707281458678491
1905.0,0.0035758960449088217
1904.0,0.003488327845821315
1903.0,0.0034007772998332353
1902.0,0.0033570086445275926
1901.0,0.0032257291386954545
1900.0,0.003050751504618754
1899.0,0.0029195645282691363
1898.0,0.0028321285541661467
1897.0,0.0027447101798967477
1896.0,0.002613615602686581
1895.0,0.0025262411970197185
1894.0,0.0024388843664115978
1893.0,0.002351545103793873
1892.0,0.002351545103793873
1891.0,0.0023078820582733695
1890.0,0.0021332737608552588
1889.0,0.0018714928717336043
1888.0,0.0016534626036355249
1887.0,0.0015226969634936083
1886.0,0.0014791171649619628
1885.0,0.0013919706849057079
1884.0,0.0012612837441823288
1883.0,0.0011741809597138886
1882.0,0.0010870956412141197
1881.0,0.0010000277816797354
1880.0,0.0009129773741116676
1879.0,0.000869458712629001
1878.0,0.0007824344698965646
1877.0,0.0006519307932786322
1876.0,0.0005649501236701937
1875.0,0.0004779868710962365
1874.0,0.00043451177401765406
1873.0,0.00043451177401765406
1872.0,0.0004779868710962365
1871.0,0.0005649501236701937
1870.0,0.0005649501236701937
1869.0,0.0003475746339209884
1868.0,0.0001303078917322953
1867.0,0.0
1866.0,-0.00013026880522692963
1865.0,-0.00021709297223004853
1864.0,-0.00030389978481260016
1863.0,-0.0003472966853634851
1862.0,-0.0003472966853634851
1861.0,-0.0003906892499099257
1860.0,-0.00043407747931878404
1859.0,-0.00043407747931878404
1858.0,-0.0005208409361854294
1857.0,-0.0005642161653756084
1856.0,-0.0006075870628903246
1855.0,-0.0006075870628903246
1854.0,-0.0006075870628903246
1853.0,-0.0006075870628903246
1852.0,-0.0006075870628903246
1851.0,-0.0005208409361854294
1850.0,-0.0003906892499099257
1849.0,-0.0003472966853634851
1848.0,-0.0002604985473904087
1847.0,-8.685021164911433e-05
1846.0,8.686758342868472e-05
1845.0,4.343161980746579e-05
1844.0,-0.00013026880522692963
1843.0,-0.0002604985473904087
1842.0,-0.00030389978481260016
1841.0,-0.00030389978481260016
1840.0,-0.0002604985473904087
1839.0,-0.00017368305846510168
1838.0,-0.00013026880522692963
1837.0,-8.685021164911433e-05
1836.0,-8.685021164911433e-05
1835.0,-4.3427276862573194e-05
1834.0,4.343161980746579e-05
1833.0,0.00017375254558760211
1832.0,0.0003475746339209884
1831.0,0.00043451177401765406
1830.0,0.0003910410285830057
1829.0,0.00021720154586435392
1828.0,0.00017375254558760211
1827.0,0.00030411258916074324
1826.0,0.00030411258916074324
1825.0,8.686758342868472e-05
1824.0,-0.00013026880522692963
1823.0,-0.0002604985473904087
1822.0,-0.00030389978481260016
1821.0,-0.0003906892499099257
1820.0,-0.0004774613744551459
1819.0,-0.0005208409361854294
1818.0,-0.0006509536295951079
1817.0,-0.0008243766056055257
1816.0,-0.0010843812922201046
1815.0,-0.0011710149414008164
1814.0,-0.001257631312230778
1813.0,-0.0013875234866409514
1812.0,-0.0015606526425728795
1811.0,-0.001733712809000476
1810.0,-0.0019067040408846658
1809.0,-0.0022092729880145434
1808.0,-0.0024252646779014952
1807.0,-0.0025548081484823015
1806.0,-0.0026411490000399773
1805.0,-0.0027274726898296464
1804.0,-0.0027706281011936618
1803.0,-0.0028137792246734072
1802.0,-0.0029432068763250996
1801.0,-0.003201946521692367
1800.0,-0.003503614742536687
1799.0,-0.003675902548784027
1798.0,-0.003805073565025019
1797.0,-0.003934206173708432
1796.0,-0.004020273253241502
1795.0,-0.003934206173708432
1794.0,-0.003934206173708432
1793.0,-0.004192356259714369
1792.0,-0.004708196544336296
1791.0,-0.005051749993995713
1790.0,-0.005309236848516363
1789.0,-0.005480809979401258
1788.0,-0.00552369267327979
1787.0,-0.0054379230508221355
1786.0,-0.005480809979401258
1785.0,-0.005738042651424635
1784.0,-0.005995123054691298
1783.0,-0.006037954997317296
1782.0,-0.006123606211854593
1781.0,-0.0063376603745508575
1780.0,-0.00659438618413688
1779.0,-0.0067226922016847546
1778.0,-0.0067226922016847546
1777.0,-0.006808208492578682
1776.0,-0.0068937079479005625
1775.0,-0.0067226922016847546
1774.0,-0.00659438618413688
1773.0,-0.006765452451992449
1772.0,-0.007064656378331868
1771.0,-0.007064656378331868
1770.0,-0.006850960324272126
1769.0,-0.006850960324272126
1768.0,-0.0068937079479005625
1767.0,-0.006808208492578682
1766.0,-0.006551609086648202
1765.0,-0.006252051369364686
1764.0,-0.005780899954652252
1763.0,-0.005180512503780488
1762.0,-0.004665233247877154
1761.0,-0.004321373782642635
1760.0,-0.003762020828246282
1759.0,-0.0028137792246734072
1758.0,-0.0016471913460383014
1757.0,-0.0005642161653756084
1756.0,0.0005649501236701937
1755.0,0.0020023635919956817
1754.0,0.0037510854308679953
1753.0,0.005682847330363394
1752.0,0.008153946355103248
1751.0,0.011485634166333858
1750.0,0.015517693597737248
1749.0,0.019860222254245663
1748.0,0.024706084643793647
1747.0,0.030211462585061133
1746.0,0.03635381351515665
1745.0,0.0433514207947967
1744.0,0.05163594401163074
1743.0,0.06083032037482261
1742.0,0.07058107428570715
1741.0,0.08165507103772507
1740.0,0.09512223303659528
1739.0,0.10902040301031102
1738.0,0.12015894401343741
1737.0,0.12895273869450063
1736.0,0.13894375542312654
1735.0,0.15614457737683884
1734.0,0.17999569319168218
1733.0,0.19990181982522426
1732.0,0.21381665443236653
1731.0,0.22782503917538577
1730.0,0.24412514432750854
1729.0,0.26129869956529017
1728.0,0.27777753603026967
1727.0,0.29362364416030995
1726.0,0.31006989598178203
1725.0,0.3279945549770482
1724.0,0.34736693191688994
1723.0,0.3667335888445755
1722.0,0.3833144791044878
1721.0,0.3957739469155299
1720.0,0.40627100129208915
1719.0,0.4198736745884175
1718.0,0.4392566989452882
1717.0,0.4563043676907552
1716.0,0.46382046786277464
1715.0,0.46508589557013313
1714.0,0.4620550407085131
1713.0,0.4535807331648083
1712.0,0.43997375108710757
1711.0,0.4227380464141852
1710.0,0.4032929703185537
1709.0,0.38247546511370767
1708.0,0.3600157519584115
1707.0,0.3352640314812949
1706.0,0.3086532358651781
1705.0,0.28516748756666743
1704.0,0.2677671197795022
1703.0,0.2543787786930616
1702.0,0.24055880286630238
1701.0,0.22264568691579112
1700.0,0.20481541031757589
1699.0,0.1928710444075783
1698.0,0.1850203162392432
1697.0,0.17717835469689547
1696.0,0.16825816635436186
1695.0,0.1603334431175667
1694.0,0.15490195998574308
1693.0,0.15082636690117335
1692.0,0.14697138528701026
1691.0,0.1427881576831076
1690.0,0.13864483980673992
1689.0,0.1352516643703412
1688.0,0.13259144347720886
1687.0,0.13000599987825812
1686.0,0.12731939284807026
1685.0,0.1249387366082999
1684.0,0.12326270285933538
1683.0,0.12153565465853111
1682.0,0.11952940719622163
1681.0,0.1175323851046286
1680.0,0.11548784080960606
1679.0,0.11345287660889425
1678.0,0.11142740314240007
1677.0,0.10963487855187593
1676.0,0.10779405402422748
1675.0,0.10573933555301185
1674.0,0.10397008760377302
1673.0,0.10253786198693682
1672.0,0.10127481841050656
1671.0,0.09979678698310646
1670.0,0.09821485469640057
1669.0,0.09685572959046151
1668.0,0.09560907998763835
1667.0,0.09425807260839858
1666.0,0.09296504751658308
1665.0,0.0917831469106074
1664.0,0.09065796163869155
1663.0,0.08953568400438638
1662.0,0.0885227828938977
1661.0,0.08761850108119962
1660.0,0.08687520961044104
1659.0,0.08602728844902896
1658.0,0.08523386307414738
1657.0,0.08449463824562353
1656.0,0.0838620168928248
1655.0,0.0830725338870073
1654.0,0.08249449044745338
1653.0,0.08286224724355584
1652.0,0.08286224724355584
1651.0,0.08238947425013277
1650.0,0.08191721535781271
1649.0,0.08144546944972642
1648.0,0.08086958613938555
1647.0,0.08018997982980403
1646.0,0.07935499859321249
1645.0,0.07841755960658348
1644.0,0.07743023101428781
1643.0,0.07623803917129979
1642.0,0.07499749231902242
1641.0,0.07376047895413773
1640.0,0.0725783049495814
1639.0,0.07139934015547578
1638.0,0.0702746216219956
1637.0,0.06925467168888666
1636.0,0.06828793294324442
1635.0,0.06712054217620067
1634.0,0.06600683616875758
1633.0,0.06514819703433927
1632.0,0.06439198148213077
1631.0,0.06358680028852026
1630.0,0.06278310913729457
1629.0,0.06198090252378963
1628.0,0.06123017721688262
1627.0,0.06048074738138154
1626.0,0.05978244440026481
1625.0,0.05918479134919874
1624.0,0.05863766428823891
1623.0,0.05809122563440061
1622.0,0.0575950591438934
1621.0,0.05729763111133224
1620.0,0.05709945885970602
1619.0,0.057049929922901255
1618.0,0.05749589383191922
1617.0,0.05863766428823891
1616.0,0.05973260855398799
1615.0,0.060081579630943294
1614.0,0.05978244440026481
1613.0,0.05923456436878238
1612.0,0.0583891978463662
1611.0,0.05729763111133224
1610.0,0.05601112492622806
1609.0,0.054679159207724926
1608.0,0.05330216275425803
1607.0,0.05192951848105887
1606.0,0.0506099933550872
1605.0,0.04934311749548925
1604.0,0.048128442871635535
1603.0,0.04696554274964315
1602.0,0.04580574818413763
1601.0,0.04469717723830824
1600.0,0.043735497301724546
1599.0,0.04272802000705722
1598.0,0.04181850243505214
1597.0,0.04105406750606355
1596.0,0.04038628892895613
1595.0,0.039767126871487646
1594.0,0.03924390909822728
1593.0,0.03886378261277468
1592.0,0.038531444649213764
1591.0,0.03824678581321739
1590.0,0.03810452633214956
1589.0,0.03810452633214956
1588.0,0.03829421599749461
1587.0,0.03876880295533702
1586.0,0.039719535563357944
1585.0,0.04129280891271536
1584.0,0.0435434165901003
1583.0,0.04633693625290869
1582.0,0.04939177521576932
1581.0,0.05217431555754937
1580.0,0.05433450056786593
1579.0,0.05551732784983132
1578.0,0.05551732784983132
1577.0,0.05389176956309405
1576.0,0.05114709380028648
1575.0,0.04841965509660828
1574.0,0.04628861957244457
1573.0,0.04460091336073302
1572.0,0.04301563225723992
1571.0,0.041197296600497646
1570.0,0.03914884628031379
1569.0,0.037251946641359446
1568.0,0.03597620715996652
1567.0,0.03503362516890207
1566.0,0.034187046963396917
1565.0,0.03334211579824231
1564.0,0.03249882527715853
1563.0,0.03184406285002961
1562.0,0.03151705144606498
1561.0,0.03133029827960798
1560.0,0.03081714076773867
1559.0,0.03025802323714588
1558.0,0.02969962459782227
1557.0,0.029095501846216454
1556.0,0.02872415126189476
1555.0,0.028306761050139073
1554.0,0.027843464140506313
1553.0,0.02747318213414429
1552.0,0.027195677663422346
1551.0,0.02691835039863255
1550.0,0.026456531467510258
1549.0,0.025995203102585407
1548.0,0.02562649291857677
1547.0,0.02544225514642018
1546.0,0.025258095499050004
1545.0,0.025074013910237447
1544.0,0.024798037742147727
1543.0,0.024476287039668643
1542.0,0.024154774532432866
1541.0,0.023971159908874107
1540.0,0.023787622882622816
1539.0,0.023374947949272418
1538.0,0.023100049017062307
1537.0,0.02314585342378117
1536.0,0.023374947949272418
1535.0,0.02365002099672653
1534.0,0.023925268380126097
1533.0,0.02406295751688936
1532.0,0.024017056287453542
1531.0,0.023925268380126097
1530.0,0.023925268380126097
1529.0,0.024017056287453542
1528.0,0.02406295751688936
1527.0,0.023971159908874107
1526.0,0.023695883447997224
1525.0,0.02342078135989012
1524.0,0.023191662661933732
1523.0,0.02291687968414724
1522.0,0.02259651912656535
1521.0,0.022367834754000393
1520.0,0.022139270735302752
1519.0,0.02200219004126036
1518.0,0.02200219004126036
1517.0,0.021956506090037076
1516.0,0.021865152601710403
1515.0,0.021819483062586187
1514.0,0.022093572362881675
1513.0,0.02282532397981263
1512.0,0.024017056287453542
1511.0,0.02558042614771394
1510.0,0.027612000892527133
1509.0,0.03063068826647264
1508.0,0.036731748473764814
1507.0,0.046481918555007384
1506.0,0.05261529831525902
1505.0,0.05295859474477971
1504.0,0.05065879322950262
1503.0,0.04696554274964315
1502.0,0.04253638427006878
1501.0,0.03786753070176463
1500.0,0.03343591590268957
1499.0,0.029513651152349718
1498.0,0.02613355016462182
1497.0,0.02342078135989012
1496.0,0.02140867317992523
1495.0,0.01995115493504329
1494.0,0.0190880622231564
1493.0,0.018725167293411005
1492.0,0.01858915983411169
1491.0,0.018271974638383703
1490.0,0.017909760704207134
1489.0,0.017774008325325275
1488.0,0.01781925440359733
1487.0,0.01781925440359733
1486.0,0.017909760704207134
1485.0,0.018226681372252695
1484.0,0.018725167293411005
1483.0,0.019360432556262852
1482.0,0.020087589665283012
1481.0,0.020907099361673565
1480.0,0.021728158389364705
1479.0,0.02245929405346514
1478.0,0.023054249440757957
1477.0,0.02355831062115543
1476.0,0.023925268380126097
1475.0,0.02406295751688936
1474.0,0.024246610963712723
1473.0,0.024706084643793647
1472.0,0.02521206778644225
1471.0,0.02544225514642018
1470.0,0.025810808881832736
1469.0,0.026502691267936695
1468.0,0.027565723042634938
1467.0,0.02904906565457588
1466.0,0.03105031901865729
1465.0,0.03385826726096752
1464.0,0.03668448861388862
1463.0,0.03905380426616856
1462.0,0.041149548320321694
1461.0,0.04339941178682327
1460.0,0.04585401117045196
1459.0,0.0486139051197072
1458.0,0.05232126006306337
1457.0,0.05650548409389744
1456.0,0.0588862729628985
1455.0,0.05973260855398799
1454.0,0.060131455540490375
1453.0,0.06048074738138154
1452.0,0.06063052992534024
1451.0,0.06048074738138154
1450.0,0.060231224546650086
1449.0,0.06003170944866376
1448.0,0.05963295401433477
1447.0,0.05918479134919874
1446.0,0.058737090681050264
1445.0,0.058538260652670315
1444.0,0.0583395216116076
1443.0,0.05804158346918653
1442.0,0.05764465029232335
1441.0,0.05724807957018618
1440.0,0.05680236993107379
1439.0,0.05606053552778367
1438.0,0.054728418492290265
1437.0,0.052419250695677544
1436.0,0.04939177521576932
1435.0,0.04643358574299339
1434.0,0.04383156952463674
1433.0,0.041197296600497646
1432.0,0.038341651362284734
1431.0,0.03526907894637077
1430.0,0.03226486821611996
1429.0,0.02960662792039992
1428.0,0.02747318213414429
1427.0,0.025995203102585407
1426.0,0.02484402159331056
1425.0,0.023879381700184332
1424.0,0.023237476732539397
1423.0,0.023054249440757957
1422.0,0.023374947949272418
1421.0,0.024522236834125355
1420.0,0.027010773144651168
1419.0,0.03142366482450232
1418.0,0.037251946641359446
1417.0,0.044071843103049346
1416.0,0.05256627811294923
1415.0,0.06328524178879635
1414.0,0.0763933569825408
1413.0,0.0919441259012328
1412.0,0.10868560061785693
1411.0,0.12372441132212098
1410.0,0.13436311230037123
1409.0,0.13954220457652888
1408.0,0.13924287691845794
1407.0,0.13388996015562338
1406.0,0.12464930342071079
1405.0,0.1137349409702435
1404.0,0.10363915453068362
1403.0,0.09544673702322726
1402.0,0.08900228368935714
1401.0,0.08354605145007499
1400.0,0.07820951434181311
1399.0,0.0729891310243489
1398.0,0.06869471857832687
1397.0,0.0653500770992892
1396.0,0.06218131530164395
1395.0,0.058836539841526925
1394.0,0.05561604235915585
1393.0,0.05286048235717078
1392.0,0.0506099933550872
1391.0,0.0486139051197072
1390.0,0.04682039893436585
1389.0,0.04513062893352182
1388.0,0.04359142880416744
1387.0,0.04224908912272074
1386.0,0.041436116778032606
1385.0,0.041101805289228244
1384.0,0.04129280891271536
1383.0,0.04196198390166317
1382.0,0.0431115453499229
1381.0,0.044793462458058375
1380.0,0.0469171560879138
1379.0,0.049294465226138895
1378.0,0.05178270644002936
1377.0,0.05433450056786593
1376.0,0.05709945885970602
1375.0,0.060081579630943294
1374.0,0.06298389253518577
1373.0,0.06519865825346338
1372.0,0.0666645899223488
1371.0,0.06732334137759932
1370.0,0.0671712330991534
1369.0,0.06590573164451952
1368.0,0.06343599486473406
1367.0,0.05993198626064755
1366.0,0.055764156206519866
1365.0,0.051049389754451946
1364.0,0.045564513671517703
1363.0,0.03967194946985697
1362.0,0.03423403581731388
1361.0,0.030071810571884017
1360.0,0.02696455931306696
1359.0,0.024522236834125355
1358.0,0.02255077261765881
1357.0,0.021043834782408455
1356.0,0.01990568621470623
1355.0,0.019133445417920836
1354.0,0.018770512579999288
1353.0,0.018770512579999288
1352.0,0.019178833355664393
1351.0,0.02004210665933459
1350.0,0.021317434843055594
1349.0,0.02314585342378117
1348.0,0.02539620791296726
1347.0,0.028028723600243666
1346.0,0.031003673351687855
1345.0,0.03428102975577918
1344.0,0.03763066432997886
1343.0,0.040672354027829094
1342.0,0.04325545471730896
1341.0,0.0451788169482068
1340.0,0.045902279520810385
1339.0,0.044986096961949995
1338.0,0.04253638427006878
1337.0,0.03905380426616856
1336.0,0.0349394793888016
1335.0,0.03067729388779794
1334.0,0.02677975314776626
1333.0,0.023466619608062178
1332.0,0.0209982515252789
1331.0,0.019360432556262852
1330.0,0.018543833477873584
1329.0,0.01845319495476394
1328.0,0.01899731005860028
1327.0,0.019996628416253603
1326.0,0.021363051615525652
1325.0,0.023100049017062307
1324.0,0.025028005701930978
1323.0,0.02710321556345563
1322.0,0.029281296279810798
1321.0,0.031563752288295444
1320.0,0.033905220553829274
1319.0,0.03625938114211591
1318.0,0.03862637240519895
1317.0,0.04091088563260792
1316.0,0.043303435105349175
1315.0,0.04580574818413763
1314.0,0.048468209457651845
1313.0,0.05139145012356372
1312.0,0.05443294655761144
1311.0,0.05754547365752294
1310.0,0.06083032037482261
1309.0,0.06424089625468832
1308.0,0.06777998612288094
1307.0,0.07129697256940304
1306.0,0.07463633264589853
1305.0,0.07810552907089763
1304.0,0.08186477383364066
1303.0,0.08608023504853413
1302.0,0.09092559859909577
1301.0,0.09674718310604158
1300.0,0.10352889952072264
1299.0,0.11109074073646874
1298.0,0.11918640771920863
1297.0,0.12778543660241448
1296.0,0.13661765155921235
1295.0,0.14545106418704923
1294.0,0.1542200328881107
1293.0,0.16291684917681404
1292.0,0.17159792150840691
1291.0,0.17992996568767428
1290.0,0.1879561020697733
1289.0,0.19572423287090612
1288.0,0.2032175882986922
1287.0,0.2101373699536182
1286.0,0.21638223480925123
1285.0,0.22213837582375806
1284.0,0.2274582673590566
1283.0,0.2321023839819094
1282.0,0.23604817396667577
1281.0,0.23965292147009354
1280.0,0.2429077798810675
1279.0,0.24580461181016156
1278.0,0.24841299491768987
1277.0,0.2512694439015055
1276.0,0.2548471049230996
1275.0,0.25916379294268843
1274.0,0.2645607967485186
1273.0,0.2715650490257453
1272.0,0.28058584029740663
1271.0,0.2911543619518211
1270.0,0.3031196283172377
1269.0,0.31650268232018863
1268.0,0.3311483519174814
1267.0,0.3463052046849182
1266.0,0.36151074304536257
1265.0,0.37664731846200805
1264.0,0.39158094868271465
1263.0,0.405165644416682
1262.0,0.41714153777550056
1261.0,0.4275931324419442
1260.0,0.43628166003432245
1259.0,0.442853857681637
1258.0,0.44721014980721807
1257.0,0.45075144314594406
1256.0,0.45419824284072385
1255.0,0.4575480526240234
1254.0,0.4613006204575931
1253.0,0.4663550212012373
1252.0,0.47288588836019496
1251.0,0.4804344991194909
1250.0,0.4886514845097869
1249.0,0.49798278517285266
1248.0,0.5082182244158342
1247.0,0.518557371497695
1246.0,0.5284149458148102
1245.0,0.5380515047962382
1244.0,0.5472937734889711
1243.0,0.5547072305740282
1242.0,0.5594057381601691
1241.0,0.5616158929652859
1240.0,0.5608252601565316
1239.0,0.5559552040819238
1238.0,0.5468346074741428
1237.0,0.5340226317141772
1236.0,0.5181275896893365
1235.0,0.4988037579729112
1234.0,0.4767739580342989
1233.0,0.4538276316830574
1232.0,0.4308602745275405
1231.0,0.4079343295677529
1230.0,0.3856301604517114
1229.0,0.3646167959525015
1228.0,0.3451499094386059
1227.0,0.32670256024036415
1226.0,0.3091839420190845
1225.0,0.2929410593724038
1224.0,0.27777753603026967
1223.0,0.2636831920958911
1222.0,0.25041826513444065
1221.0,0.23822246249182188
1220.0,0.22701854965503632
1219.0,0.21659671887743648
1218.0,0.20697834015401684
1217.0,0.1981848314185628
1216.0,0.19017103893211385
1215.0,0.1827652695745019
1214.0,0.17587416608345108
1213.0,0.16953964996903292
1212.0,0.1637391971415132
1211.0,0.15826522102525642
1210.0,0.1531682471767426
1209.0,0.14843591773651155
1208.0,0.143996546002779
1207.0,0.13984173868172167
1206.0,0.13584504399797437
1205.0,0.13212021654162043
1204.0,0.1284854412916181
1203.0,0.124996646399959
1202.0,0.12159311241900439
1201.0,0.11827306462358211
1200.0,0.11514801725400226
1199.0,0.1120452961911984
1198.0,0.10896458468468917
1197.0,0.10601643278815298
1196.0,0.10319830233507843
1195.0,0.10045306890913297
1194.0,0.09777947172068524
1193.0,0.09523037409340485
1192.0,0.09296504751658308
1191.0,0.0908185240221473
1190.0,0.08889568219596411
1189.0,0.0872466963286771
1188.0,0.08597434830367123
1187.0,0.08496970974083906
1186.0,0.08444188458847957
1185.0,0.08438913733853282
1184.0,0.08486409337798806
1183.0,0.08576265223225898
1182.0,0.08714052483764512
1181.0,0.08889568219596411
1180.0,0.09097914578884403
1179.0,0.09318028453345462
1178.0,0.09517630019905599
1177.0,0.09691001300805646
1176.0,0.09816040794877057
1175.0,0.09875969792669093
1174.0,0.09854167860388774
1173.0,0.09750757884139638
1172.0,0.09550084460218011
1171.0,0.09264239186882706
1170.0,0.08910891135547172
1169.0,0.08523386307414738
1168.0,0.08134070657817682
1167.0,0.0777417765670334
1166.0,0.07453319930846214
1165.0,0.07196279359311708
1164.0,0.06986635415888243
1163.0,0.0681862960408608
1162.0,0.06686717627326577
1161.0,0.0659562809644747
1160.0,0.0653500770992892
1159.0,0.06509774167768612
1158.0,0.06519865825346338
1157.0,0.06575411897692884
1156.0,0.06676587128519196
1155.0,0.06833876031551878
1154.0,0.07042782092345012
1153.0,0.07309189829456408
1152.0,0.07628980560343712
1151.0,0.08008551934056851
1150.0,0.08444188458847957
1149.0,0.08937559511079884
1148.0,0.09490603167212863
1147.0,0.10083635852278117
1146.0,0.10718217569042365
1145.0,0.1138478180292033
1144.0,0.1207893947082408
1143.0,0.1277271537757949
1142.0,0.134659094375416
1141.0,0.14140265500530758
1140.0,0.14782509557969692
1139.0,0.15391041964201602
1138.0,0.15958022226351387
1137.0,0.16500739626697003
1136.0,0.17024608107502504
1135.0,0.1751585282462993
1134.0,0.17992996568767428
1133.0,0.18482086986058133
1132.0,0.18996921359416064
1131.0,0.19551981089400727
1130.0,0.2016256233184388
1129.0,0.2085198839799991
1128.0,0.21645371772965016
1127.0,0.2251911696892941
1126.0,0.2347040703019434
1125.0,0.24511677174783242
1124.0,0.2560984495148211
1123.0,0.2672043017106709
1122.0,0.27785987454258443
1121.0,0.28777133038046476
1120.0,0.2963647624161041
1119.0,0.30294510772742567
1118.0,0.3070649974688622
1117.0,0.3087416418668889
1116.0,0.30812317744066875
1115.0,0.30521936398793836
1114.0,0.30085631260551615
1113.0,0.29645070176176946
1112.0,0.29328221766324125
1111.0,0.2923446764688131
1110.0,0.2943073034622965
1109.0,0.2998156703778023
1108.0,0.30891850787703157
1107.0,0.32075385458614103
1106.0,0.33488826292494855
1105.0,0.35105481783432757
1104.0,0.3687592197644909
1103.0,0.38732208168349813
1102.0,0.40604970473601254
1101.0,0.42481215507233894
1100.0,0.4432152176929747
1099.0,0.46029676105217443
1098.0,0.4750848524601332
1097.0,0.4877159367181465
1096.0,0.49798278517285266
1095.0,0.5050110263168319
1094.0,0.5086383061657274
1093.0,0.5096200799968211
1092.0,0.5080782874138492
1091.0,0.5036239459875991
1090.0,0.49648168727592523
1089.0,0.4874490070957893
1088.0,0.47729500726525
1087.0,0.46584692581493736
1086.0,0.45308735681875745
1085.0,0.43997375108710757
1084.0,0.42631630690620215
1083.0,0.4115041989927899
1082.0,0.39555793373927695
1081.0,0.3790315643557103
1080.0,0.36201021921531473
1079.0,0.34457341225408133
1078.0,0.3269790928711038
1077.0,0.3098925605436693
1076.0,0.29370904274123655
1075.0,0.2783542337102538
1074.0,0.2639223629960543
1073.0,0.2508049577803275
1072.0,0.23889946104185777
1071.0,0.2280452510360509
1070.0,0.2181010806488508
1069.0,0.2093630380682967
1068.0,0.2016256233184388
1067.0,0.19456711186786002
1066.0,0.18809001957990112
1065.0,0.18230244523697592
1064.0,0.17711305216584927
1063.0,0.1725014918665413
1062.0,0.16845014800424418
1061.0,0.16519794595130088
1060.0,0.1627904721987936
1059.0,0.16108797259400132
1058.0,0.16020781555467067
1057.0,0.160145015398115
1056.0,0.16096212661169407
1055.0,0.16253782851400533
1054.0,0.1646899991309374
1053.0,0.1675549588258891
1052.0,0.17095366314681737
1051.0,0.17470373556903995
1050.0,0.1785519809824696
1049.0,0.18256685588861554
1048.0,0.1866191932661443
1047.0,0.19037295810595034
1046.0,0.19368433019188647
1045.0,0.19661117501638659
1044.0,0.19887081242029603
1043.0,0.20038379551850105
1042.0,0.2009352806489919
1041.0,0.20072839165012724
1040.0,0.19983300979863605
1039.0,0.19825338078053978
1038.0,0.1962698290254561
1037.0,0.1941594511853273
1036.0,0.19192413190869306
1035.0,0.18956584407732735
1034.0,0.18708664335714453
1033.0,0.1847544080834369
1032.0,0.18263298371240588
1031.0,0.18065351591954726
1030.0,0.17868302940890257
1029.0,0.1769172034671962
1028.0,0.17561379768122598
1027.0,0.17483362774345035
1026.0,0.1754186237665174
1025.0,0.17829000270162365
1024.0,0.1847544080834369
1023.0,0.19565608152013425
1022.0,0.21176090261783198
1021.0,0.23299263605019593
1020.0,0.258060922270801
1019.0,0.2835792661534451
1018.0,0.304781081094849
1017.0,0.3166827380781174
1016.0,0.31578320486111955
1015.0,0.3018124301338776
1014.0,0.27901425584626094
1013.0,0.25328797748333964
1012.0,0.22922160383085233
1011.0,0.2089412564081745
1010.0,0.19266796070880954
1009.0,0.17973284283903546
1008.0,0.16941133131485575
1007.0,0.16096212661169407
1006.0,0.15403423845451636
1005.0,0.14837479684669086
1004.0,0.14375459920994582
1003.0,0.13978181533124334
1002.0,0.13632033212410222
1001.0,0.13324021650489182
1000.0,0.13053358991913355
999.0,0.1280769681176266
998.0,0.12592425477696523
997.0,0.12395544975390482
996.0,0.12222565000860186
995.0,0.12061736282565727
994.0,0.11907213473291511
993.0,0.11776015198117662
992.0,0.116736140415026
991.0,0.11588463798833115
990.0,0.11509140583739286
989.0,0.11446916681190777
988.0,0.11396072443355765
987.0,0.11356568037106163
986.0,0.11328372588352176
985.0,0.11317099532301778
984.0,0.11322735694556196
983.0,0.11328372588352176
982.0,0.11328372588352176
981.0,0.11339648571328764
980.0,0.11356568037106163
979.0,0.1137349409702435
978.0,0.1138478180292033
977.0,0.11396072443355765
976.0,0.11401718864502697
975.0,0.11390426756225258
974.0,0.1136220932414278
973.0,0.11328372588352176
972.0,0.11277666863747693
971.0,0.11210151190312767
970.0,0.11114683301706374
969.0,0.10997041383658313
968.0,0.10862982530385179
967.0,0.10707101764479421
966.0,0.10535169620648288
965.0,0.10369429253391926
964.0,0.10204318999304807
963.0,0.10045306890913297
962.0,0.09892328427374508
961.0,0.09745322068600859
960.0,0.0960964733098364
959.0,0.09485199814398393
958.0,0.09371884422784693
957.0,0.09264239186882706
956.0,0.09167586072382083
955.0,0.09071147583774919
954.0,0.08980263003399913
953.0,0.08900228368935714
952.0,0.08825662214406838
951.0,0.08761850108119962
950.0,0.08708744882390307
949.0,0.08655704514060414
948.0,0.0861331881037608
947.0,0.0856568428805593
946.0,0.08518101955252688
945.0,0.08475850269380558
944.0,0.08438913733853282
943.0,0.08396738981143059
942.0,0.08359869639612438
941.0,0.08328292240118751
940.0,0.08296737783760655
939.0,0.08265206237222844
938.0,0.08228448344050654
937.0,0.08191721535781271
936.0,0.08160266115629988
935.0,0.08134070657817682
934.0,0.08107890990866418
933.0,0.08081727095749947
932.0,0.08045124103115198
931.0,0.07998108397108505
930.0,0.0794592834975203
929.0,0.07904229404455076
928.0,0.07862570458152551
927.0,0.07820951434181311
926.0,0.07779372256098371
925.0,0.07737832847680104
924.0,0.07701518429111709
923.0,0.07665234350217442
922.0,0.07628980560343712
921.0,0.0760310351245288
920.0,0.07587584681417514
919.0,0.07582412969807906
918.0,0.07577241873988227
917.0,0.07582412969807906
916.0,0.07608277688689435
915.0,0.07660053384128362
914.0,0.07737832847680104
913.0,0.07846958649875768
912.0,0.07992887570247587
911.0,0.08165507103772507
910.0,0.08370400543686918
909.0,0.08608023504853413
908.0,0.08889568219596411
907.0,0.0919441259012328
906.0,0.09523037409340485
905.0,0.09859617317474823
904.0,0.10193333935836524
903.0,0.10501970907203151
902.0,0.10790539730951965
901.0,0.11047420332880886
900.0,0.11266406960083297
899.0,0.11441264381034388
898.0,0.11565785235294102
897.0,0.11645212073195621
896.0,0.1169634899723202
895.0,0.11713408027837091
894.0,0.11719095860756013
893.0,0.11730473761840288
892.0,0.1175323851046286
891.0,0.11793105556385153
890.0,0.11850122038501709
889.0,0.11935787359571504
888.0,0.12067469921519258
887.0,0.12234075588839133
886.0,0.1244757360506914
885.0,0.1270865583796048
884.0,0.13024040521758962
883.0,0.1340081998737246
882.0,0.13858508136400327
881.0,0.14417809459397013
880.0,0.15082636690117335
879.0,0.1582027011256446
878.0,0.16589734428720626
877.0,0.17379557650074728
876.0,0.1815101777957866
875.0,0.18815699382352258
874.0,0.192938760082761
873.0,0.19524739784953948
872.0,0.19456711186786002
871.0,0.19084446825281964
870.0,0.18442225167573278
869.0,0.17633018673186363
868.0,0.16768273007773837
867.0,0.15901616267962204
866.0,0.15101079374883275
865.0,0.14405705376768396
864.0,0.13816700234205515
863.0,0.13335827943396006
862.0,0.12953756841108
861.0,0.12667939818460128
860.0,0.12453358413361437
859.0,0.12285911021517903
858.0,0.12153565465853111
857.0,0.1207320431753871
856.0,0.12033079436794658
855.0,0.12004441487725082
854.0,0.11987267778337518
853.0,0.11970100857424737
852.0,0.11964380058076385
851.0,0.11964380058076385
850.0,0.11958660012208333
849.0,0.11958660012208333
848.0,0.11958660012208333
847.0,0.11964380058076385
846.0,0.11970100857424737
845.0,0.11981544717356662
844.0,0.1201016756699902
843.0,0.1202162199095842
842.0,0.1201016756699902
841.0,0.11987267778337518
840.0,0.11952940719622163
839.0,0.11895789180659433
838.0,0.11827306462358211
837.0,0.1174754620451195
836.0,0.1165089098110701
835.0,0.11531789579397489
834.0,0.11390426756225258
833.0,0.1125514997500463
832.0,0.11142740314240007
831.0,0.11030620855581463
830.0,0.10918790104487552
829.0,0.10823959854332843
828.0,0.10740457717110186
827.0,0.10668218838388821
826.0,0.10601643278815298
825.0,0.10540705207704448
824.0,0.10496440254767725
823.0,0.10446696051592963
822.0,0.10391491457671487
821.0,0.10358402352687701
820.0,0.10341867249426717
819.0,0.1033635694704158
818.0,0.1033635694704158
817.0,0.10347378251044459
816.0,0.10363915453068362
815.0,0.10374943753836186
814.0,0.10385974855798041
813.0,0.10397008760377302
812.0,0.10413564875270076
811.0,0.10419084983086901
810.0,0.10408045468998406
809.0,0.10397008760377302
808.0,0.10385974855798041
807.0,0.10363915453068362
806.0,0.1033635694704158
805.0,0.10308815917397474
804.0,0.10270287794050348
803.0,0.10215306842042837
802.0,0.10149421446564144
801.0,0.10100072911021085
800.0,0.10100072911021085
799.0,0.10193333935836524
798.0,0.10435649517592083
797.0,0.10840679565103484
796.0,0.11356568037106163
795.0,0.11861534322942724
794.0,0.12234075588839133
793.0,0.12407101507707297
792.0,0.1236666709136196
791.0,0.12119106764079435
790.0,0.1174754620451195
789.0,0.11339648571328764
788.0,0.10935546370475246
787.0,0.10551778498990938
786.0,0.10193333935836524
785.0,0.09875969792669093
784.0,0.09598811640261173
783.0,0.09361107884716913
782.0,0.0916222275676053
781.0,0.0900163050601559
780.0,0.08868255767596933
779.0,0.08735289378168276
778.0,0.08602728844902896
777.0,0.08486409337798806
776.0,0.0839147001562972
775.0,0.08291480935943274
774.0,0.08186477383364066
773.0,0.08071265949561734
772.0,0.0794592834975203
771.0,0.07805354577058976
770.0,0.07654873036034848
769.0,0.07525564752005143
768.0,0.07417242537525759
767.0,0.07309189829456408
766.0,0.0718090519612431
765.0,0.07058107428570715
764.0,0.06935655895783555
763.0,0.06813548650796819
762.0,0.06691783763020887
761.0,0.06580465065211571
760.0,0.06474471821595262
759.0,0.06358680028852026
758.0,0.062331685600995
757.0,0.06108018775522828
756.0,0.05983228596592505
755.0,0.058538260652670315
754.0,0.05709945885970602
753.0,0.05571477931124735
752.0,0.05448217792216048
751.0,0.05330216275425803
750.0,0.05227227303668425
749.0,0.05144033789103841
748.0,0.05085404758005607
747.0,0.05056119896349576
746.0,0.05095170768433621
745.0,0.05271335532220167
744.0,0.05635711724787096
743.0,0.062131203436140536
742.0,0.07058107428570715
741.0,0.08223199755224364
740.0,0.09739886933346864
739.0,0.1157145376603248
738.0,0.1366771398795441
737.0,0.15989390554324223
736.0,0.18468795647564096
735.0,0.21034879120659045
734.0,0.23672178898102136
733.0,0.26464066699828925
732.0,0.2948207551263238
731.0,0.32762502125392046
730.0,0.3638131048012756
729.0,0.4047242881979005
728.0,0.45075144314594406
727.0,0.4988037579729112
726.0,0.5431786519784014
725.0,0.5762627500176707
724.0,0.5898979233571393
723.0,0.5785606097799503
722.0,0.5442417968958633
721.0,0.49566508819753574
720.0,0.4440595621814889
719.0,0.3976144098948948
718.0,0.35931984672233486
717.0,0.32854944578750533
716.0,0.30381841283147626
715.0,0.28408018256642054
714.0,0.2687336509245084
713.0,0.2573534100612638
712.0,0.248951965179812
711.0,0.2420728168866706
710.0,0.23582386760966934
709.0,0.22981097726400668
708.0,0.22395292881822026
707.0,0.2181010806488508
706.0,0.2126103786478899
705.0,0.20795868928791772
704.0,0.20398103065285067
703.0,0.19997064075586568
702.0,0.19524739784953948
701.0,0.18983471545685027
700.0,0.18422307970163732
699.0,0.1785519809824696
698.0,0.17327747983100794
697.0,0.1686422145579325
696.0,0.16462654752999129
695.0,0.16102504504453208
694.0,0.15776531365276036
693.0,0.15515019919336104
692.0,0.1531682471767426
691.0,0.1515645446685292
690.0,0.15002808767114995
689.0,0.14855818532794496
688.0,0.14697138528701026
687.0,0.14496568332411575
686.0,0.14302956651750764
685.0,0.14206473528057106
684.0,0.14218522202899342
683.0,0.14284849731250704
682.0,0.14345235514325205
681.0,0.14369413356670102
680.0,0.14345235514325205
679.0,0.14242629585250421
678.0,0.1409818561111058
677.0,0.13978181533124334
676.0,0.1387643813659596
675.0,0.1375704438939911
674.0,0.1360232160956132
673.0,0.13448148092522594
672.0,0.13300418688935212
671.0,0.13135556160517425
670.0,0.12936203678919433
669.0,0.12790202572577325
668.0,0.12743585690934855
667.0,0.12691201440971422
666.0,0.12586622117202761
665.0,0.12476505354983503
664.0,0.12401322857151209
663.0,0.12355121312165873
662.0,0.12291674334934943
661.0,0.12211057462851604
660.0,0.1213058996038916
659.0,0.12056003400478299
658.0,0.11975822410451964
657.0,0.11884367892443626
656.0,0.11770319906234805
655.0,0.11622503864474187
654.0,0.11509140583739286
653.0,0.11492161585077598
652.0,0.11554450392951199
651.0,0.11599807523121286
650.0,0.11565785235294102
649.0,0.11475189221861393
648.0,0.11350927482751816
647.0,0.1120452961911984
646.0,0.11103465569966264
645.0,0.11109074073646874
644.0,0.1120452961911984
643.0,0.1128329791052256
642.0,0.1130019543289007
641.0,0.11305829401658474
640.0,0.11367851344052027
639.0,0.11469533241103202
638.0,0.11622503864474187
637.0,0.11850122038501709
636.0,0.12165057778222454
635.0,0.1249387366082999
634.0,0.12749410065407507
633.0,0.12912810493225724
632.0,0.12924505510985984
631.0,0.12691201440971422
630.0,0.12274386688641381
629.0,0.11895789180659433
628.0,0.11684980031672243
627.0,0.11628179803604044
626.0,0.11633856484638239
625.0,0.11628179803604044
624.0,0.1157145376603248
623.0,0.11429961987167014
622.0,0.11243895906999102
621.0,0.11097857790477517
620.0,0.11041819785037621
619.0,0.11041819785037621
618.0,0.11025022473596224
617.0,0.10997041383658313
616.0,0.10974669484546551
615.0,0.10952309103982927
614.0,0.10929960230112479
613.0,0.10924374808178183
612.0,0.10935546370475246
611.0,0.10924374808178183
610.0,0.10868560061785693
609.0,0.10790539730951965
608.0,0.10718217569042365
607.0,0.10651565378151395
606.0,0.10612732120491852
605.0,0.1063491830140364
604.0,0.10668218838388821
603.0,0.10573933555301185
602.0,0.10352889952072264
601.0,0.10149421446564144
600.0,0.10072681268239614
599.0,0.10105553313349058
598.0,0.10193333935836524
597.0,0.10369429253391926
596.0,0.10601643278815298
595.0,0.10723776538418317
594.0,0.10596099919539115
593.0,0.10319830233507843
592.0,0.10067205012234592
591.0,0.0990869322623309
590.0,0.09783387072894878
589.0,0.09669292003582619
588.0,0.09523037409340485
587.0,0.09307265269104414
586.0,0.09065796163869155
585.0,0.08910891135547172
584.0,0.08788427092114603
583.0,0.08496970974083906
582.0,0.07935499859321249
581.0,0.07237303755504598
580.0,0.06524912533642091
579.0,0.05789269101064454
578.0,0.050463626623857394
577.0,0.04387961360698034
576.0,0.03914884628031379
575.0,0.03692083935817303
574.0,0.0371100126082089
573.0,0.03857890593355173
572.0,0.03995754427315856
571.0,0.039767126871487646
570.0,0.036779013477011624
569.0,0.03170388495374454
568.0,0.026225806029419818
567.0,0.022230681908425698
566.0,0.020315076172974234
565.0,0.01899731005860028
564.0,0.016689514205884493
563.0,0.013317820220494436
562.0,0.010594681998483901
561.0,0.010950843561779777
560.0,0.014977917890464765
559.0,0.02004210665933459
558.0,0.022322112326006227
557.0,0.022139270735302752
556.0,0.023604163388120325
555.0,0.029002634427514717
554.0,0.03559892883726867
553.0,0.03886378261277468
552.0,0.037488606492403154
551.0,0.03282657704446046
550.0,0.026733563891471412
549.0,0.02058821736556471
548.0,0.015427684378367834
547.0,0.01215504982870197
546.0,0.010416710688994968
545.0,0.00966114521239847
544.0,0.010594681998483901
543.0,0.014349026309051105
542.0,0.01958753839310856
541.0,0.023971159908874107
540.0,0.02691835039863255
539.0,0.02839947976994095
538.0,0.026271941311972746
537.0,0.01845319495476394
536.0,0.008640997362049818
535.0,0.004803708402820517
534.0,0.010639186223752484
533.0,0.021773818325474092
532.0,0.03151705144606498
531.0,0.03692083935817303
530.0,0.038341651362284734
529.0,0.03644826642590382
528.0,0.03277974021703267
527.0,0.029978734171634214
526.0,0.029513651152349718
525.0,0.02960662792039992
524.0,0.02839947976994095
523.0,0.027195677663422346
522.0,0.02826040911222183
521.0,0.03067729388779794
520.0,0.03142366482450232
519.0,0.029467170231675777
518.0,0.026733563891471412
517.0,0.025350165561278004
516.0,0.026087429580295085
515.0,0.028353117935693284
514.0,0.030397735151460825
513.0,0.03030458888152676
512.0,0.027843464140506313
511.0,0.02544225514642018
510.0,0.02521206778644225
509.0,0.02696455931306696
508.0,0.02904906565457588
507.0,0.03058408764601861
506.0,0.03105031901865729
505.0,0.02960662792039992
504.0,0.025902996205869
503.0,0.021043834782408455
502.0,0.016824927962187042
501.0,0.014663358264387139
500.0,0.015877917138889863
499.0,0.02159120737696063
498.0,0.03025802323714588
497.0,0.0371100126082089
496.0,0.03796231343498735
495.0,0.033295223342125535
494.0,0.02751945012352408
493.0,0.023971159908874107
492.0,0.02245929405346514
491.0,0.021363051615525652
490.0,0.020497151212598652
489.0,0.020907099361673565
488.0,0.02314585342378117
487.0,0.026872146400301444
486.0,0.031003673351687855
485.0,0.03512779136222477
484.0,0.038721320914956836
483.0,0.04072004986906119
482.0,0.03967194946985697
481.0,0.03630659476198117
480.0,0.03367050483612166
479.0,0.034187046963396917
478.0,0.03644826642590382
477.0,0.037062711569998186
476.0,0.03484535401307465
475.0,0.03235843591698884
474.0,0.03217132066984485
473.0,0.03376437590141812
472.0,0.03508070571335731
471.0,0.03541041251009669
470.0,0.03588185684851508
469.0,0.037346595106788616
468.0,0.039006291057664066
467.0,0.038911280232103884
466.0,0.03578752703018084
465.0,0.0307239045110681
464.0,0.026595025589939425
463.0,0.026041313893296225
462.0,0.029467170231675777
461.0,0.03456310022373987
460.0,0.038151940981675736
459.0,0.03791491948264003
458.0,0.03362357691107709
457.0,0.027612000892527133
456.0,0.023237476732539397
455.0,0.021910826943857264
454.0,0.022230681908425698
453.0,0.02200219004126036
452.0,0.021499930688540836
451.0,0.0221849739168134
450.0,0.02365002099672653
