cm-1,A
4000.0,0.0031819781204844855
3999.0,0.0031819781204844855
3998.0,0.0031382315093266833
3997.0,0.0031382315093266833
3996.0,0.0030944893043338695
3995.0,0.003050751504618754
3994.0,0.003050751504618754
3993.0,0.0030070181092942683
3992.0,0.003050751504618754
3991.0,0.0030944893043338695
3990.0,0.0031382315093266833
3989.0,0.0031819781204844855
3988.0,0.0032257291386954545
3987.0,0.0032257291386954545
3986.0,0.0032257291386954545
3985.0,0.0031819781204844855
3984.0,0.0031819781204844855
3983.0,0.0031819781204844855
3982.0,0.0031819781204844855
3981.0,0.0031819781204844855
3980.0,0.0031819781204844855
3979.0,0.0031819781204844855
3978.0,0.0031819781204844855
3977.0,0.0031819781204844855
3976.0,0.0032257291386954545
3975.0,0.0032694845648473247
3974.0,0.0033132443998284966
3973.0,0.0033570086445275926
3972.0,0.0034007772998332353
3971.0,0.0034007772998332353
3970.0,0.0034007772998332353
3969.0,0.0034007772998332353
3968.0,0.0034007772998332353
3967.0,0.0034007772998332353
3966.0,0.0034007772998332353
3965.0,0.0034007772998332353
3964.0,0.0034007772998332353
3963.0,0.0033570086445275926
3962.0,0.0033570086445275926
3961.0,0.0033570086445275926
3960.0,0.0033570086445275926
3959.0,0.0034007772998332353
3958.0,0.0034445503666347133
3957.0,0.003488327845821315
3956.0,0.003488327845821315
3955.0,0.0034445503666347133
3954.0,0.0034007772998332353
3953.0,0.0034007772998332353
3952.0,0.0033570086445275926
3951.0,0.0033570086445275926
3950.0,0.0033570086445275926
3949.0,0.0033570086445275926
3948.0,0.0033570086445275926
3947.0,0.0033132443998284966
3946.0,0.0032694845648473247
3945.0,0.0033132443998284966
3944.0,0.0033132443998284966
3943.0,0.0033570086445275926
3942.0,0.0034007772998332353
3941.0,0.0034007772998332353
3940.0,0.0034007772998332353
3939.0,0.0034445503666347133
3938.0,0.0034445503666347133
3937.0,0.0034445503666347133
3936.0,0.0034445503666347133
3935.0,0.0034445503666347133
3934.0,0.0034007772998332353
3933.0,0.0033570086445275926
3932.0,0.0034007772998332353
3931.0,0.0034445503666347133
3930.0,0.0035321097382827737
3929.0,0.0035321097382827737
3928.0,0.0035321097382827737
3927.0,0.003488327845821315
3926.0,0.0034445503666347133
3925.0,0.0034007772998332353
3924.0,0.0034007772998332353
3923.0,0.0034007772998332353
3922.0,0.0034007772998332353
3921.0,0.0033570086445275926
3920.0,0.0033570086445275926
3919.0,0.0033570086445275926
3918.0,0.0034007772998332353
3917.0,0.0034007772998332353
3916.0,0.0034445503666347133
3915.0,0.0035321097382827737
3914.0,0.0035758960449088217
3913.0,0.0036634819042162814
3912.0,0.0036634819042162814
3911.0,0.0036634819042162814
3910.0,0.003619686766589858
3909.0,0.0035758960449088217
3908.0,0.0035321097382827737
3907.0,0.003488327845821315
3906.0,0.0034007772998332353
3905.0,0.0033570086445275926
3904.0,0.0033570086445275926
3903.0,0.0033570086445275926
3902.0,0.0033570086445275926
3901.0,0.0033570086445275926
3900.0,0.0033570086445275926
3899.0,0.0033570086445275926
3898.0,0.0034007772998332353
3897.0,0.0035321097382827737
3896.0,0.0035758960449088217
3895.0,0.003619686766589858
3894.0,0.003619686766589858
3893.0,0.0036634819042162814
3892.0,0.0036634819042162814
3891.0,0.0035758960449088217
3890.0,0.0035321097382827737
3889.0,0.0035321097382827737
3888.0,0.0035758960449088217
3887.0,0.003619686766589858
3886.0,0.0035758960449088217
3885.0,0.0035321097382827737
3884.0,0.0035321097382827737
3883.0,0.0035758960449088217
3882.0,0.003619686766589858
3881.0,0.0035758960449088217
3880.0,0.0035321097382827737
3879.0,0.0035321097382827737
3878.0,0.0035758960449088217
3877.0,0.003619686766589858
3876.0,0.0035758960449088217
3875.0,0.0035321097382827737
3874.0,0.003488327845821315
3873.0,0.0035321097382827737
3872.0,0.0035758960449088217
3871.0,0.003619686766589858
3870.0,0.0035758960449088217
3869.0,0.0035321097382827737
3868.0,0.003619686766589858
3867.0,0.003707281458678491
3866.0,0.003707281458678491
3865.0,0.0036634819042162814
3864.0,0.0036634819042162814
3863.0,0.003707281458678491
3862.0,0.0036634819042162814
3861.0,0.003619686766589858
3860.0,0.0035758960449088217
3859.0,0.0035321097382827737
3858.0,0.003488327845821315
3857.0,0.003488327845821315
3856.0,0.0034445503666347133
3855.0,0.003488327845821315
3854.0,0.003619686766589858
3853.0,0.003619686766589858
3852.0,0.003619686766589858
3851.0,0.0036634819042162814
3850.0,0.003794893821675638
3849.0,0.003794893821675638
3848.0,0.003794893821675638
3847.0,0.003794893821675638
3846.0,0.003794893821675638
3845.0,0.003794893821675638
3844.0,0.0037510854308679953
3843.0,0.0036634819042162814
3842.0,0.003619686766589858
3841.0,0.0035758960449088217
3840.0,0.003619686766589858
3839.0,0.0036634819042162814
3838.0,0.003707281458678491
3837.0,0.003707281458678491
3836.0,0.003707281458678491
3835.0,0.0037510854308679953
3834.0,0.0038387066319929275
3833.0,0.0038387066319929275
3832.0,0.003794893821675638
3831.0,0.003707281458678491
3830.0,0.0036634819042162814
3829.0,0.003619686766589858
3828.0,0.003619686766589858
3827.0,0.003619686766589858
3826.0,0.0035758960449088217
3825.0,0.0035758960449088217
3824.0,0.0035758960449088217
3823.0,0.0036634819042162814
3822.0,0.0037510854308679953
3821.0,0.003794893821675638
3820.0,0.003794893821675638
3819.0,0.0038387066319929275
3818.0,0.003926345514724705
3817.0,0.003926345514724705
3816.0,0.0038387066319929275
3815.0,0.0037510854308679953
3814.0,0.0037510854308679953
3813.0,0.0037510854308679953
3812.0,0.0037510854308679953
3811.0,0.0036634819042162814
3810.0,0.003619686766589858
3809.0,0.0035758960449088217
3808.0,0.0035321097382827737
3807.0,0.003488327845821315
3806.0,0.003488327845821315
3805.0,0.0035321097382827737
3804.0,0.0036634819042162814
3803.0,0.003794893821675638
3802.0,0.0038825238627120395
3801.0,0.0038825238627120395
3800.0,0.0038387066319929275
3799.0,0.0038387066319929275
3798.0,0.0038825238627120395
3797.0,0.0038825238627120395
3796.0,0.0038825238627120395
3795.0,0.0038825238627120395
3794.0,0.0038825238627120395
3793.0,0.0038825238627120395
3792.0,0.0038387066319929275
3791.0,0.0037510854308679953
3790.0,0.003707281458678491
3789.0,0.0036634819042162814
3788.0,0.003619686766589858
3787.0,0.003619686766589858
3786.0,0.0036634819042162814
3785.0,0.0037510854308679953
3784.0,0.0037510854308679953
3783.0,0.0037510854308679953
3782.0,0.0036634819042162814
3781.0,0.0035758960449088217
3780.0,0.0035321097382827737
3779.0,0.0035321097382827737
3778.0,0.0035758960449088217
3777.0,0.003619686766589858
3776.0,0.0036634819042162814
3775.0,0.0036634819042162814
3774.0,0.003619686766589858
3773.0,0.003619686766589858
3772.0,0.0036634819042162814
3771.0,0.003707281458678491
3770.0,0.003707281458678491
3769.0,0.0036634819042162814
3768.0,0.0036634819042162814
3767.0,0.0036634819042162814
3766.0,0.003707281458678491
3765.0,0.003707281458678491
3764.0,0.0036634819042162814
3763.0,0.0036634819042162814
3762.0,0.003619686766589858
3761.0,0.0035321097382827737
3760.0,0.0034445503666347133
3759.0,0.0034445503666347133
3758.0,0.0034007772998332353
3757.0,0.0034007772998332353
3756.0,0.0034007772998332353
3755.0,0.0034007772998332353
3754.0,0.0034007772998332353
3753.0,0.0034007772998332353
3752.0,0.0035321097382827737
3751.0,0.0036634819042162814
3750.0,0.003619686766589858
3749.0,0.003488327845821315
3748.0,0.0034007772998332353
3747.0,0.003488327845821315
3746.0,0.003619686766589858
3745.0,0.003619686766589858
3744.0,0.003488327845821315
3743.0,0.0033570086445275926
3742.0,0.0034007772998332353
3741.0,0.0034445503666347133
3740.0,0.0034445503666347133
3739.0,0.0034007772998332353
3738.0,0.0033570086445275926
3737.0,0.0033132443998284966
3736.0,0.0033570086445275926
3735.0,0.0034007772998332353
3734.0,0.003488327845821315
3733.0,0.0035321097382827737
3732.0,0.0035321097382827737
3731.0,0.003488327845821315
3730.0,0.0034445503666347133
3729.0,0.0034007772998332353
3728.0,0.0033132443998284966
3727.0,0.0032694845648473247
3726.0,0.0032257291386954545
3725.0,0.0032694845648473247
3724.0,0.0033132443998284966
3723.0,0.0033132443998284966
3722.0,0.0033570086445275926
3721.0,0.0033570086445275926
3720.0,0.0034007772998332353
3719.0,0.0034007772998332353
3718.0,0.0033570086445275926
3717.0,0.0032694845648473247
3716.0,0.0031819781204844855
3715.0,0.0031382315093266833
3714.0,0.0031382315093266833
3713.0,0.0032257291386954545
3712.0,0.0033132443998284966
3711.0,0.0033132443998284966
3710.0,0.0032694845648473247
3709.0,0.0032694845648473247
3708.0,0.0033132443998284966
3707.0,0.0033132443998284966
3706.0,0.0033132443998284966
3705.0,0.0032257291386954545
3704.0,0.0031382315093266833
3703.0,0.0030070181092942683
3702.0,0.0029195645282691363
3701.0,0.0028758443407954637
3700.0,0.0028758443407954637
3699.0,0.0028758443407954637
3698.0,0.0029195645282691363
3697.0,0.0029195645282691363
3696.0,0.0028321285541661467
3695.0,0.0027447101798967477
3694.0,0.002701007590486082
3693.0,0.002613615602686581
3692.0,0.002569926202528716
3691.0,0.002613615602686581
3690.0,0.0026573093983774942
3689.0,0.002613615602686581
3688.0,0.0025262411970197185
3687.0,0.002482560585275184
3686.0,0.002482560585275184
3685.0,0.0025262411970197185
3684.0,0.0025262411970197185
3683.0,0.0025262411970197185
3682.0,0.0025262411970197185
3681.0,0.0025262411970197185
3680.0,0.0024388843664115978
3679.0,0.002351545103793873
3678.0,0.002351545103793873
3677.0,0.002395212539545666
3676.0,0.0025262411970197185
3675.0,0.002569926202528716
3674.0,0.002569926202528716
3673.0,0.002613615602686581
3672.0,0.002613615602686581
3671.0,0.002613615602686581
3670.0,0.002613615602686581
3669.0,0.002569926202528716
3668.0,0.0025262411970197185
3667.0,0.002482560585275184
3666.0,0.002482560585275184
3665.0,0.0024388843664115978
3664.0,0.002395212539545666
3663.0,0.002395212539545666
3662.0,0.0024388843664115978
3661.0,0.0024388843664115978
3660.0,0.0024388843664115978
3659.0,0.0024388843664115978
3658.0,0.0024388843664115978
3657.0,0.0025262411970197185
3656.0,0.0026573093983774942
3655.0,0.0027447101798967477
3654.0,0.0028321285541661467
3653.0,0.0028321285541661467
3652.0,0.0027447101798967477
3651.0,0.002701007590486082
3650.0,0.0027884171674950053
3649.0,0.0029195645282691363
3648.0,0.0030944893043338695
3647.0,0.0031819781204844855
3646.0,0.0033132443998284966
3645.0,0.0033570086445275926
3644.0,0.0034007772998332353
3643.0,0.0034445503666347133
3642.0,0.0034445503666347133
3641.0,0.0034445503666347133
3640.0,0.003488327845821315
3639.0,0.003488327845821315
3638.0,0.003488327845821315
3637.0,0.003488327845821315
3636.0,0.003488327845821315
3635.0,0.0034445503666347133
3634.0,0.003488327845821315
3633.0,0.003488327845821315
3632.0,0.0035758960449088217
3631.0,0.003619686766589858
3630.0,0.003707281458678491
3629.0,0.003794893821675638
3628.0,0.0038387066319929275
3627.0,0.0038387066319929275
3626.0,0.0038825238627120395
3625.0,0.0038825238627120395
3624.0,0.0038387066319929275
3623.0,0.003794893821675638
3622.0,0.0037510854308679953
3621.0,0.003794893821675638
3620.0,0.0038825238627120395
3619.0,0.003970171588923321
3618.0,0.004101676353562844
3617.0,0.004233220950025984
3616.0,0.004408675747646695
3615.0,0.00458420145758498
3614.0,0.004671990922590297
3613.0,0.004671990922590297
3612.0,0.004671990922590297
3611.0,0.004671990922590297
3610.0,0.004715892310740433
3609.0,0.00484762310854614
3608.0,0.004979393875242044
3607.0,0.005067263269958211
3606.0,0.005111204635089406
3605.0,0.005023326350308999
3604.0,0.004935465843858511
3603.0,0.00484762310854614
3602.0,0.004803708402820517
3601.0,0.004759798137184523
3600.0,0.004715892310740433
3599.0,0.004628093971837721
3598.0,0.00458420145758498
3597.0,0.004540313378935901
3596.0,0.0044964297349936455
3595.0,0.004540313378935901
3594.0,0.00458420145758498
3593.0,0.00458420145758498
3592.0,0.004540313378935901
3591.0,0.0044964297349936455
3590.0,0.004452550524862486
3589.0,0.004452550524862486
3588.0,0.004540313378935901
3587.0,0.00458420145758498
3586.0,0.00458420145758498
3585.0,0.00458420145758498
3584.0,0.00458420145758498
3583.0,0.004671990922590297
3582.0,0.004759798137184523
3581.0,0.004803708402820517
3580.0,0.00489154225525934
3579.0,0.00489154225525934
3578.0,0.00489154225525934
3577.0,0.00489154225525934
3576.0,0.00489154225525934
3575.0,0.00489154225525934
3574.0,0.00484762310854614
3573.0,0.004759798137184523
3572.0,0.004628093971837721
3571.0,0.004540313378935901
3570.0,0.004452550524862486
3569.0,0.004452550524862486
3568.0,0.0044964297349936455
3567.0,0.00458420145758498
3566.0,0.004715892310740433
3565.0,0.00484762310854614
3564.0,0.004935465843858511
3563.0,0.005023326350308999
3562.0,0.005067263269958211
3561.0,0.005067263269958211
3560.0,0.005067263269958211
3559.0,0.004979393875242044
3558.0,0.004935465843858511
3557.0,0.00489154225525934
3556.0,0.00484762310854614
3555.0,0.00489154225525934
3554.0,0.004935465843858511
3553.0,0.004979393875242044
3552.0,0.004979393875242044
3551.0,0.004935465843858511
3550.0,0.00484762310854614
3549.0,0.004803708402820517
3548.0,0.004803708402820517
3547.0,0.00484762310854614
3546.0,0.004979393875242044
3545.0,0.005067263269958211
3544.0,0.005067263269958211
3543.0,0.005067263269958211
3542.0,0.004979393875242044
3541.0,0.00489154225525934
3540.0,0.00484762310854614
3539.0,0.00484762310854614
3538.0,0.004935465843858511
3537.0,0.005023326350308999
3536.0,0.005111204635089406
3535.0,0.005155150446602086
3534.0,0.005155150446602086
3533.0,0.005155150446602086
3532.0,0.005155150446602086
3531.0,0.005155150446602086
3530.0,0.005155150446602086
3529.0,0.005155150446602086
3528.0,0.005155150446602086
3527.0,0.005111204635089406
3526.0,0.005111204635089406
3525.0,0.005067263269958211
3524.0,0.005067263269958211
3523.0,0.005067263269958211
3522.0,0.005111204635089406
3521.0,0.005111204635089406
3520.0,0.005111204635089406
3519.0,0.005067263269958211
3518.0,0.005067263269958211
3517.0,0.005067263269958211
3516.0,0.005111204635089406
3515.0,0.005155150446602086
3514.0,0.005199100705396198
3513.0,0.005199100705396198
3512.0,0.005199100705396198
3511.0,0.005155150446602086
3510.0,0.005155150446602086
3509.0,0.005155150446602086
3508.0,0.005199100705396198
3507.0,0.005199100705396198
3506.0,0.005199100705396198
3505.0,0.005199100705396198
3504.0,0.005199100705396198
3503.0,0.005199100705396198
3502.0,0.005199100705396198
3501.0,0.005243055412371911
3500.0,0.0052870145684298375
3499.0,0.005330978174470591
3498.0,0.00537494623139545
3497.0,0.005330978174470591
3496.0,0.0052870145684298375
3495.0,0.005243055412371911
3494.0,0.005243055412371911
3493.0,0.005243055412371911
3492.0,0.005199100705396198
3491.0,0.005199100705396198
3490.0,0.005155150446602086
3489.0,0.005111204635089406
3488.0,0.005111204635089406
3487.0,0.005155150446602086
3486.0,0.005155150446602086
3485.0,0.005155150446602086
3484.0,0.005111204635089406
3483.0,0.005067263269958211
3482.0,0.005067263269958211
3481.0,0.005111204635089406
3480.0,0.005199100705396198
3479.0,0.005243055412371911
3478.0,0.005243055412371911
3477.0,0.005199100705396198
3476.0,0.005243055412371911
3475.0,0.005243055412371911
3474.0,0.0052870145684298375
3473.0,0.005330978174470591
3472.0,0.00537494623139545
3471.0,0.00537494623139545
3470.0,0.00541891874010525
3469.0,0.00541891874010525
3468.0,0.005462895701502157
3467.0,0.005506877116487674
3466.0,0.005550862985963967
3465.0,0.005550862985963967
3464.0,0.005462895701502157
3463.0,0.00537494623139545
3462.0,0.0052870145684298375
3461.0,0.005199100705396198
3460.0,0.005199100705396198
3459.0,0.005243055412371911
3458.0,0.005330978174470591
3457.0,0.00537494623139545
3456.0,0.00541891874010525
3455.0,0.00541891874010525
3454.0,0.00537494623139545
3453.0,0.00537494623139545
3452.0,0.005330978174470591
3451.0,0.005330978174470591
3450.0,0.005330978174470591
3449.0,0.00537494623139545
3448.0,0.00541891874010525
3447.0,0.005462895701502157
3446.0,0.005506877116487674
3445.0,0.005550862985963967
3444.0,0.005594853310833647
3443.0,0.005594853310833647
3442.0,0.005594853310833647
3441.0,0.005506877116487674
3440.0,0.005462895701502157
3439.0,0.00541891874010525
3438.0,0.00541891874010525
3437.0,0.005506877116487674
3436.0,0.005638848091999105
3435.0,0.005726851026829571
3434.0,0.005726851026829571
3433.0,0.005682847330363394
3432.0,0.005594853310833647
3431.0,0.005550862985963967
3430.0,0.005462895701502157
3429.0,0.00541891874010525
3428.0,0.00537494623139545
3427.0,0.005330978174470591
3426.0,0.005330978174470591
3425.0,0.005330978174470591
3424.0,0.005330978174470591
3423.0,0.00537494623139545
3422.0,0.00541891874010525
3421.0,0.005506877116487674
3420.0,0.005550862985963967
3419.0,0.005550862985963967
3418.0,0.005506877116487674
3417.0,0.00541891874010525
3416.0,0.005330978174470591
3415.0,0.005330978174470591
3414.0,0.00537494623139545
3413.0,0.00541891874010525
3412.0,0.00541891874010525
3411.0,0.00541891874010525
3410.0,0.00541891874010525
3409.0,0.005462895701502157
3408.0,0.005506877116487674
3407.0,0.005506877116487674
3406.0,0.005506877116487674
3405.0,0.005506877116487674
3404.0,0.005462895701502157
3403.0,0.005462895701502157
3402.0,0.00541891874010525
3401.0,0.00541891874010525
3400.0,0.00541891874010525
3399.0,0.00541891874010525
3398.0,0.005462895701502157
3397.0,0.005506877116487674
3396.0,0.005506877116487674
3395.0,0.005506877116487674
3394.0,0.005506877116487674
3393.0,0.005506877116487674
3392.0,0.005462895701502157
3391.0,0.005506877116487674
3390.0,0.005506877116487674
3389.0,0.005506877116487674
3388.0,0.005506877116487674
3387.0,0.005506877116487674
3386.0,0.005462895701502157
3385.0,0.005462895701502157
3384.0,0.00541891874010525
3383.0,0.00537494623139545
3382.0,0.005330978174470591
3381.0,0.005330978174470591
3380.0,0.005330978174470591
3379.0,0.005330978174470591
3378.0,0.0052870145684298375
3377.0,0.0052870145684298375
3376.0,0.005330978174470591
3375.0,0.00537494623139545
3374.0,0.00541891874010525
3373.0,0.00541891874010525
3372.0,0.00541891874010525
3371.0,0.00537494623139545
3370.0,0.00537494623139545
3369.0,0.00537494623139545
3368.0,0.00541891874010525
3367.0,0.00541891874010525
3366.0,0.00537494623139545
3365.0,0.005330978174470591
3364.0,0.0052870145684298375
3363.0,0.005243055412371911
3362.0,0.0052870145684298375
3361.0,0.005330978174470591
3360.0,0.00537494623139545
3359.0,0.00541891874010525
3358.0,0.005462895701502157
3357.0,0.00541891874010525
3356.0,0.00537494623139545
3355.0,0.005330978174470591
3354.0,0.005330978174470591
3353.0,0.005330978174470591
3352.0,0.0052870145684298375
3351.0,0.005243055412371911
3350.0,0.005243055412371911
3349.0,0.005199100705396198
3348.0,0.005199100705396198
3347.0,0.005199100705396198
3346.0,0.005155150446602086
3345.0,0.005155150446602086
3344.0,0.005199100705396198
3343.0,0.005243055412371911
3342.0,0.005243055412371911
3341.0,0.0052870145684298375
3340.0,0.0052870145684298375
3339.0,0.005243055412371911
3338.0,0.005243055412371911
3337.0,0.005243055412371911
3336.0,0.005199100705396198
3335.0,0.005199100705396198
3334.0,0.005199100705396198
3333.0,0.005199100705396198
3332.0,0.005199100705396198
3331.0,0.005199100705396198
3330.0,0.005155150446602086
3329.0,0.005155150446602086
3328.0,0.005155150446602086
3327.0,0.005111204635089406
3326.0,0.005111204635089406
3325.0,0.005155150446602086
3324.0,0.005199100705396198
3323.0,0.005243055412371911
3322.0,0.005243055412371911
3321.0,0.005199100705396198
3320.0,0.005111204635089406
3319.0,0.005023326350308999
3318.0,0.004979393875242044
3317.0,0.004979393875242044
3316.0,0.004979393875242044
3315.0,0.005023326350308999
3314.0,0.005023326350308999
3313.0,0.005023326350308999
3312.0,0.005023326350308999
3311.0,0.004979393875242044
3310.0,0.004935465843858511
3309.0,0.004935465843858511
3308.0,0.004979393875242044
3307.0,0.005023326350308999
3306.0,0.005023326350308999
3305.0,0.004935465843858511
3304.0,0.00489154225525934
3303.0,0.00484762310854614
3302.0,0.00484762310854614
3301.0,0.00489154225525934
3300.0,0.00489154225525934
3299.0,0.00489154225525934
3298.0,0.00489154225525934
3297.0,0.00484762310854614
3296.0,0.00489154225525934
3295.0,0.00484762310854614
3294.0,0.00484762310854614
3293.0,0.004803708402820517
3292.0,0.004803708402820517
3291.0,0.004803708402820517
3290.0,0.004803708402820517
3289.0,0.004759798137184523
3288.0,0.004759798137184523
3287.0,0.004759798137184523
3286.0,0.004715892310740433
3285.0,0.004715892310740433
3284.0,0.004759798137184523
3283.0,0.004759798137184523
3282.0,0.004759798137184523
3281.0,0.004759798137184523
3280.0,0.004759798137184523
3279.0,0.004715892310740433
3278.0,0.004671990922590297
3277.0,0.004628093971837721
3276.0,0.00458420145758498
3275.0,0.00458420145758498
3274.0,0.00458420145758498
3273.0,0.00458420145758498
3272.0,0.00458420145758498
3271.0,0.00458420145758498
3270.0,0.00458420145758498
3269.0,0.00458420145758498
3268.0,0.00458420145758498
3267.0,0.004540313378935901
3266.0,0.004452550524862486
3265.0,0.004408675747646695
3264.0,0.004408675747646695
3263.0,0.004452550524862486
3262.0,0.0044964297349936455
3261.0,0.004540313378935901
3260.0,0.0044964297349936455
3259.0,0.0044964297349936455
3258.0,0.004452550524862486
3257.0,0.004452550524862486
3256.0,0.004452550524862486
3255.0,0.004452550524862486
3254.0,0.004452550524862486
3253.0,0.004452550524862486
3252.0,0.004452550524862486
3251.0,0.004408675747646695
3250.0,0.004408675747646695
3249.0,0.004408675747646695
3248.0,0.0043648054024501
3247.0,0.004320939488377862
3246.0,0.004320939488377862
3245.0,0.004320939488377862
3244.0,0.004320939488377862
3243.0,0.004320939488377862
3242.0,0.004320939488377862
3241.0,0.004320939488377862
3240.0,0.004277078004534696
3239.0,0.004233220950025984
3238.0,0.004145520125434121
3237.0,0.004101676353562844
3236.0,0.0040578370074493275
3235.0,0.0040578370074493275
3234.0,0.004101676353562844
3233.0,0.004145520125434121
3232.0,0.004189368323957332
3231.0,0.004189368323957332
3230.0,0.004189368323957332
3229.0,0.004145520125434121
3228.0,0.004101676353562844
3227.0,0.0040578370074493275
3226.0,0.00401400208620073
3225.0,0.00401400208620073
3224.0,0.003970171588923321
3223.0,0.003926345514724705
3222.0,0.003926345514724705
3221.0,0.003926345514724705
3220.0,0.003970171588923321
3219.0,0.00401400208620073
3218.0,0.00401400208620073
3217.0,0.0040578370074493275
3216.0,0.0040578370074493275
3215.0,0.0040578370074493275
3214.0,0.00401400208620073
3213.0,0.003970171588923321
3212.0,0.003970171588923321
3211.0,0.003926345514724705
3210.0,0.0038825238627120395
3209.0,0.0038387066319929275
3208.0,0.003794893821675638
3207.0,0.0037510854308679953
3206.0,0.003707281458678491
3205.0,0.003707281458678491
3204.0,0.003707281458678491
3203.0,0.0036634819042162814
3202.0,0.0036634819042162814
3201.0,0.003619686766589858
3200.0,0.0035758960449088217
3199.0,0.0035321097382827737
3198.0,0.003488327845821315
3197.0,0.003488327845821315
3196.0,0.003488327845821315
3195.0,0.003488327845821315
3194.0,0.0034445503666347133
3193.0,0.0034007772998332353
3192.0,0.0033570086445275926
3191.0,0.0033132443998284966
3190.0,0.0033132443998284966
3189.0,0.0032694845648473247
3188.0,0.0032257291386954545
3187.0,0.0031819781204844855
3186.0,0.0031819781204844855
3185.0,0.0032257291386954545
3184.0,0.0032257291386954545
3183.0,0.0032694845648473247
3182.0,0.0032694845648473247
3181.0,0.0032257291386954545
3180.0,0.0031382315093266833
3179.0,0.003050751504618754
3178.0,0.0030070181092942683
3177.0,0.0030070181092942683
3176.0,0.0030070181092942683
3175.0,0.003050751504618754
3174.0,0.0030070181092942683
3173.0,0.0029632891174733444
3172.0,0.0029632891174733444
3171.0,0.0029195645282691363
3170.0,0.0029632891174733444
3169.0,0.0029632891174733444
3168.0,0.0029195645282691363
3167.0,0.0028321285541661467
3166.0,0.0027884171674950053
3165.0,0.0027447101798967477
3164.0,0.0027447101798967477
3163.0,0.0027447101798967477
3162.0,0.0027884171674950053
3161.0,0.0028321285541661467
3160.0,0.0028758443407954637
3159.0,0.0028758443407954637
3158.0,0.0028758443407954637
3157.0,0.0028321285541661467
3156.0,0.0027447101798967477
3155.0,0.0026573093983774942
3154.0,0.002569926202528716
3153.0,0.0025262411970197185
3152.0,0.0025262411970197185
3151.0,0.0025262411970197185
3150.0,0.0025262411970197185
3149.0,0.002482560585275184
3148.0,0.002482560585275184
3147.0,0.0024388843664115978
3146.0,0.002395212539545666
3145.0,0.002351545103793873
3144.0,0.002351545103793873
3143.0,0.002351545103793873
3142.0,0.002351545103793873
3141.0,0.002395212539545666
3140.0,0.0024388843664115978
3139.0,0.0024388843664115978
3138.0,0.002395212539545666
3137.0,0.0023078820582733695
3136.0,0.0022642234021015284
3135.0,0.0021769192542746563
3134.0,0.0021332737608552588
3133.0,0.0021332737608552588
3132.0,0.0021332737608552588
3131.0,0.002089632653256679
3130.0,0.002089632653256679
3129.0,0.002089632653256679
3128.0,0.0020459959305969555
3127.0,0.0020459959305969555
3126.0,0.0020023635919956817
3125.0,0.0020023635919956817
3124.0,0.0020023635919956817
3123.0,0.0020023635919956817
3122.0,0.0020023635919956817
3121.0,0.0019587356365717845
3120.0,0.001915112063444413
3119.0,0.0018714928717336043
3118.0,0.0018714928717336043
3117.0,0.0018714928717336043
3116.0,0.0018714928717336043
3115.0,0.0018714928717336043
3114.0,0.0018278780605593958
3113.0,0.0018714928717336043
3112.0,0.0018714928717336043
3111.0,0.0018714928717336043
3110.0,0.0018278780605593958
3109.0,0.0017406615763013722
3108.0,0.0016970599014589638
3107.0,0.0016534626036355249
3106.0,0.0016970599014589638
3105.0,0.0016970599014589638
3104.0,0.0017406615763013722
3103.0,0.0017406615763013722
3102.0,0.0017406615763013722
3101.0,0.0017842676290416026
3100.0,0.0017842676290416026
3099.0,0.0018278780605593958
3098.0,0.001915112063444413
3097.0,0.001915112063444413
3096.0,0.001915112063444413
3095.0,0.0018714928717336043
3094.0,0.0018714928717336043
3093.0,0.001915112063444413
3092.0,0.0019587356365717845
3091.0,0.0020023635919956817
3090.0,0.0019587356365717845
3089.0,0.001915112063444413
3088.0,0.0018278780605593958
3087.0,0.0017406615763013722
3086.0,0.0017406615763013722
3085.0,0.0017406615763013722
3084.0,0.0017406615763013722
3083.0,0.0016970599014589638
3082.0,0.0016534626036355249
3081.0,0.001609869681952425
3080.0,0.0015662811355310335
3079.0,0.0015226969634936083
3078.0,0.0015226969634936083
3077.0,0.0015226969634936083
3076.0,0.0015226969634936083
3075.0,0.0015226969634936083
3074.0,0.0015226969634936083
3073.0,0.0015226969634936083
3072.0,0.0015226969634936083
3071.0,0.0014791171649619628
3070.0,0.0014791171649619628
3069.0,0.0014355417390583547
3068.0,0.0013919706849057079
3067.0,0.001348404001626502
3066.0,0.001304841688344327
3065.0,0.0012612837441823288
3064.0,0.0012612837441823288
3063.0,0.0012177301682640973
3062.0,0.0011741809597138886
3061.0,0.0011306361176557367
3060.0,0.0011306361176557367
3059.0,0.0011741809597138886
3058.0,0.0012177301682640973
3057.0,0.0012177301682640973
3056.0,0.0011741809597138886
3055.0,0.0010870956412141197
3054.0,0.0010000277816797354
3053.0,0.000869458712629001
3052.0,0.0008259444115150671
3051.0,0.0008259444115150671
3050.0,0.0008259444115150671
3049.0,0.000869458712629001
3048.0,0.0009129773741116676
3047.0,0.0009129773741116676
3046.0,0.000869458712629001
3045.0,0.0008259444115150671
3044.0,0.0007824344698965646
3043.0,0.0007389288868995258
3042.0,0.0006954276616513155
3041.0,0.0006954276616513155
3040.0,0.0006954276616513155
3039.0,0.0006519307932786322
3038.0,0.0005649501236701937
3037.0,0.0004779868710962365
3036.0,0.0003910410285830057
3035.0,0.00030411258916074324
3034.0,0.00026065489343207737
3033.0,0.00021720154586435392
3032.0,0.0001303078917322953
3031.0,0.0
3030.0,-0.00013026880522692963
3029.0,-0.0002604985473904087
3028.0,-0.00043407747931878404
3027.0,-0.0005642161653756084
3026.0,-0.0006943158663546001
3025.0,-0.0008243766056055257
3024.0,-0.0009543984064577238
3023.0,-0.0010843812922201046
3022.0,-0.001257631312230778
3021.0,-0.0014308122463981832
3020.0,-0.0016039241497978196
3019.0,-0.001733712809000476
3018.0,-0.0019067040408846658
3017.0,-0.0020796263931210923
3016.0,-0.0022524799205383417
3015.0,-0.0023820749327607693
3014.0,-0.0025548081484823015
3013.0,-0.0027274726898296464
3012.0,-0.0029432068763250996
3011.0,-0.003158833950862139
3010.0,-0.0033743540197499478
3009.0,-0.0035897671891400584
3008.0,-0.0038481220342978517
3007.0,-0.004063300397667113
3006.0,-0.0042783722001624724
3005.0,-0.00445035298922436
3004.0,-0.004665233247877154
3003.0,-0.00488000724063431
3002.0,-0.005051749993995713
3001.0,-0.005223424858135761
3000.0,-0.005352136486216796
2999.0,-0.00552369267327979
2998.0,-0.005652315355074045
2997.0,-0.00582375302902749
2996.0,-0.005995123054691298
2995.0,-0.006166425485431226
2994.0,-0.0062948579813855154
2993.0,-0.006508827775289827
2992.0,-0.006765452451992449
2991.0,-0.00710738297405733
2990.0,-0.007363654312278367
2989.0,-0.007449044497748858
2988.0,-0.007449044497748858
2987.0,-0.007363654312278367
2986.0,-0.007278247334244092
2985.0,-0.007192823557040651
2984.0,-0.007150105366684922
2983.0,-0.00710738297405733
2982.0,-0.007021925578680754
2981.0,-0.006936451364292662
2980.0,-0.006808208492578682
2979.0,-0.0067226922016847546
2978.0,-0.006637159068586307
2977.0,-0.006508827775289827
2976.0,-0.006423252507643085
2975.0,-0.006252051369364686
2974.0,-0.006080782716094024
2973.0,-0.0058666018753847915
2972.0,-0.005566571133294396
2971.0,-0.005266332972768684
2970.0,-0.00488000724063431
2969.0,-0.00445035298922436
2968.0,-0.0039772418455368275
2967.0,-0.0034174452021935586
2966.0,-0.002856926061120646
2965.0,-0.0022092729880145434
2964.0,-0.0016039241497978196
2963.0,-0.001041057986093552
2962.0,-0.00043407747931878404
2961.0,0.00021720154586435392
2960.0,0.0008259444115150671
2959.0,0.0015226969634936083
2958.0,0.0021769192542746563
2957.0,0.0027884171674950053
2956.0,0.0034007772998332353
2955.0,0.003970171588923321
2954.0,0.004540313378935901
2953.0,0.005111204635089406
2952.0,0.005814871797682919
2951.0,0.006607862550997545
2950.0,0.0075790439479759275
2949.0,0.008685301823389224
2948.0,0.01001654169860089
2947.0,0.011574829993696856
2946.0,0.013407393177789162
2945.0,0.015517693597737248
2944.0,0.017955020928509757
2943.0,0.020724852408976924
2942.0,0.023833499868024743
2941.0,0.02724191609646076
2940.0,0.031003673351687855
2939.0,0.03508070571335731
2938.0,0.03948165721929198
2937.0,0.044360346976747955
2936.0,0.04963514562387683
2935.0,0.05551732784983132
2934.0,0.061880730805688344
2933.0,0.0688982543673613
2932.0,0.07649693305789551
2931.0,0.08486409337798806
2930.0,0.09404230090757282
2929.0,0.10424605792627206
2928.0,0.1157145376603248
2927.0,0.12866061890013913
2926.0,0.14351278713136928
2925.0,0.16058480731610647
2924.0,0.180127178049454
2923.0,0.20245548563827365
2922.0,0.22767829327708022
2921.0,0.25570701687732367
2920.0,0.28592183501814405
2919.0,0.3169529617611504
2918.0,0.34563090902471405
2917.0,0.3679478332941901
2916.0,0.37965570024550677
2915.0,0.378615971518347
2914.0,0.3656235059116322
2913.0,0.34438141645877796
2912.0,0.31930197030236496
2911.0,0.2940508050897044
2910.0,0.27083521030723
2909.0,0.25041826513444065
2908.0,0.23299263605019593
2907.0,0.2183882175068499
2906.0,0.20613979865733034
2905.0,0.19586056766464965
2904.0,0.1871534630329288
2903.0,0.17966715510059017
2902.0,0.173212761183708
2901.0,0.1675549588258891
2900.0,0.1626009756579776
2899.0,0.15814019022493886
2898.0,0.15397232463562127
2897.0,0.14984407757790774
2896.0,0.14581545616639335
2895.0,0.14176366457048695
2894.0,0.13768969004572962
2893.0,0.13359450162194508
2892.0,0.12953756841108
2891.0,0.12551818230053358
2890.0,0.12136332697348307
2889.0,0.11719095860756013
2888.0,0.112945621949043
2887.0,0.10874138309586101
2886.0,0.10452220372428545
2885.0,0.10028890542885538
2884.0,0.096150661903319
2883.0,0.0919977988274463
2882.0,0.08783110394037297
2881.0,0.08370400543686918
2880.0,0.07966792846041071
2879.0,0.07572071393811841
2878.0,0.07186029312488018
2877.0,0.0681862960408608
2876.0,0.06479513257341862
2875.0,0.06163040254819374
2874.0,0.058836539841526925
2873.0,0.056406567231630955
2872.0,0.05428528594013993
2871.0,0.05256627811294923
2870.0,0.05119595406718891
2869.0,0.05021979163799939
2868.0,0.04968383607539972
2867.0,0.04958646063061889
2866.0,0.050073556332087765
2865.0,0.05114709380028648
2864.0,0.05290953578037816
2863.0,0.055566682299785564
2862.0,0.05923456436878238
2861.0,0.06408986356949264
2860.0,0.07037674848475972
2859.0,0.07846958649875768
2858.0,0.08862929288386212
2857.0,0.10138450258381404
2856.0,0.11736163830396129
2855.0,0.1375704438939911
2854.0,0.16298005145909156
2853.0,0.19456711186786002
2852.0,0.23225063265442003
2851.0,0.2737619531973625
2850.0,0.3130957304318227
2849.0,0.34122567915564317
2848.0,0.3494982051216331
2847.0,0.3362048777805924
2846.0,0.3073293008436311
2845.0,0.27188981589965944
2844.0,0.23709647150094293
2843.0,0.20641913263184408
2842.0,0.18065351591954726
2841.0,0.15958022226351387
2840.0,0.14248658522331015
2839.0,0.12854382597704617
2838.0,0.11713408027837091
2837.0,0.10757145305477
2836.0,0.09952362861074304
2835.0,0.09274991711867164
2834.0,0.0870343792958963
2833.0,0.08217951800630297
2832.0,0.07794959783282618
2831.0,0.07422394616325367
2830.0,0.07093887591523451
2829.0,0.06803388527182741
2828.0,0.0654005617819271
2827.0,0.0630843190547461
2826.0,0.06103020277710969
2825.0,0.05908526241971446
2824.0,0.05729763111133224
2823.0,0.05571477931124735
2822.0,0.054186873412661596
2821.0,0.05281143447390635
2820.0,0.0515870342213991
2819.0,0.050414848673348
2818.0,0.04934311749548925
2817.0,0.04837110616336182
2816.0,0.04740126547022694
2815.0,0.046481918555007384
2814.0,0.045564513671517703
2813.0,0.04469717723830824
2812.0,0.04387961360698034
2811.0,0.04315950984076644
2810.0,0.04248848854552012
2809.0,0.04186632432376469
2808.0,0.04124505013091051
2807.0,0.04062466342415694
2806.0,0.040005161671583744
2805.0,0.03943409718180235
2804.0,0.03886378261277468
2803.0,0.038341651362284734
2802.0,0.03782014709123227
2801.0,0.037299268295658994
2800.0,0.03682628362474838
2799.0,0.036401037402758574
2798.0,0.03597620715996652
2797.0,0.03555179208333925
2796.0,0.03508070571335731
2795.0,0.03465716443937783
2794.0,0.034187046963396917
2793.0,0.03376437590141812
2792.0,0.03338901331806565
2791.0,0.03301397488206215
2790.0,0.03263926003405038
2789.0,0.032218091924200776
2788.0,0.03179733185715028
2787.0,0.03142366482450232
2786.0,0.031003673351687855
2785.0,0.03063068826647264
2784.0,0.03025802323714588
2783.0,0.029932203450862893
2782.0,0.029653123769906697
2781.0,0.029374223311705583
2780.0,0.029095501846216454
2779.0,0.028770552723758724
2778.0,0.02849221828874393
2777.0,0.028167720075074953
2776.0,0.027889771597169544
2775.0,0.027612000892527133
2774.0,0.027334407733889066
2773.0,0.027056991894431892
2772.0,0.02682594731702781
2771.0,0.026595025589939425
2770.0,0.026410376572743033
2769.0,0.026271941311972746
2768.0,0.026087429580295085
2767.0,0.025902996205869
2766.0,0.025718641122169483
2765.0,0.02553436426275746
2764.0,0.025350165561278004
2763.0,0.02516604495145991
2762.0,0.02498200236711723
2761.0,0.02484402159331056
2760.0,0.024706084643793647
2759.0,0.024568191490736968
2758.0,0.024476287039668643
2757.0,0.024338466818941473
2756.0,0.024154774532432866
2755.0,0.024017056287453542
2754.0,0.023879381700184332
2753.0,0.023741750742954926
2752.0,0.02365002099672653
2751.0,0.02351246269481
2750.0,0.02342078135989012
2749.0,0.023283295636617574
2748.0,0.023191662661933732
2747.0,0.023100049017062307
2746.0,0.02300845469384938
2745.0,0.02296266477531872
2744.0,0.022871099419317753
2743.0,0.02282532397981263
2742.0,0.022733787572707387
2741.0,0.022688026603074007
2740.0,0.022642270454698687
2739.0,0.02259651912656535
2738.0,0.022505030926963654
2737.0,0.022413561996148967
2736.0,0.022322112326006227
2735.0,0.02227639471115217
2734.0,0.0221849739168134
2733.0,0.022139270735302752
2732.0,0.02204787879853809
2731.0,0.021956506090037076
2730.0,0.021910826943857264
2729.0,0.021819483062586187
2728.0,0.021728158389364705
2727.0,0.02159120737696063
2726.0,0.0214542995372613
2725.0,0.021317434843055594
2724.0,0.0211806132671577
2723.0,0.021089422824428272
2722.0,0.021043834782408455
2721.0,0.0209982515252789
2720.0,0.020907099361673565
2719.0,0.020770406977844713
2718.0,0.020633757603838898
2717.0,0.020542681902151694
2716.0,0.020406104151069693
2715.0,0.02036058777709271
2714.0,0.020315076172974234
2713.0,0.02026956933771462
2712.0,0.02022406727031445
2711.0,0.020178569969774962
2710.0,0.02013307743509718
2709.0,0.020087589665283012
2708.0,0.019996628416253603
2707.0,0.01990568621470623
2706.0,0.019814763052665052
2705.0,0.019723858922159776
2704.0,0.019678413991243593
2703.0,0.019632973815224997
2702.0,0.01958753839310856
2701.0,0.01958753839310856
2700.0,0.01954210772389997
2699.0,0.019451260640229506
2698.0,0.01940584422377989
2697.0,0.019315025636685412
2696.0,0.0192242260373785
2695.0,0.019133445417920836
2694.0,0.019042683770379876
2693.0,0.018951941086827073
2692.0,0.018906576854070378
2691.0,0.018861217359339655
2690.0,0.018815862601645694
2689.0,0.018815862601645694
2688.0,0.018815862601645694
2687.0,0.018770512579999288
2686.0,0.018770512579999288
2685.0,0.018770512579999288
2684.0,0.018725167293411005
2683.0,0.018679826740892747
2682.0,0.018634490921455527
2681.0,0.018634490921455527
2680.0,0.01858915983411169
2679.0,0.018634490921455527
2678.0,0.018679826740892747
2677.0,0.018725167293411005
2676.0,0.018770512579999288
2675.0,0.018770512579999288
2674.0,0.018770512579999288
2673.0,0.018815862601645694
2672.0,0.018906576854070378
2671.0,0.018951941086827073
2670.0,0.018951941086827073
2669.0,0.018951941086827073
2668.0,0.018951941086827073
2667.0,0.018951941086827073
2666.0,0.01899731005860028
2665.0,0.019042683770379876
2664.0,0.0190880622231564
2663.0,0.019133445417920836
2662.0,0.019133445417920836
2661.0,0.019133445417920836
2660.0,0.019133445417920836
2659.0,0.019133445417920836
2658.0,0.0190880622231564
2657.0,0.019042683770379876
2656.0,0.01899731005860028
2655.0,0.018951941086827073
2654.0,0.018906576854070378
2653.0,0.018861217359339655
2652.0,0.018815862601645694
2651.0,0.018770512579999288
2650.0,0.018679826740892747
2649.0,0.018634490921455527
2648.0,0.018634490921455527
2647.0,0.018634490921455527
2646.0,0.018634490921455527
2645.0,0.018679826740892747
2644.0,0.018725167293411005
2643.0,0.018725167293411005
2642.0,0.018770512579999288
2641.0,0.018861217359339655
2640.0,0.018906576854070378
2639.0,0.018951941086827073
2638.0,0.018951941086827073
2637.0,0.01899731005860028
2636.0,0.01899731005860028
2635.0,0.018951941086827073
2634.0,0.018951941086827073
2633.0,0.018906576854070378
2632.0,0.018861217359339655
2631.0,0.018770512579999288
2630.0,0.018725167293411005
2629.0,0.018634490921455527
2628.0,0.018498511851753108
2627.0,0.01840788278591865
2626.0,0.01831727262871463
2625.0,0.018226681372252695
2624.0,0.018136109008649592
2623.0,0.018045555530026514
2622.0,0.01800028587012159
2621.0,0.017909760704207134
2620.0,0.017864505196230507
2619.0,0.017774008325325275
2618.0,0.01768353030793479
2617.0,0.01759307113620534
2616.0,0.017502630802287644
2615.0,0.017367005605150476
2614.0,0.01727661233145472
2613.0,0.017231422748988034
2612.0,0.017186237868137555
2611.0,0.017186237868137555
2610.0,0.017095882207371904
2609.0,0.017005545341335804
2608.0,0.016915227262211507
2607.0,0.016870075265299933
2606.0,0.016824927962187042
2605.0,0.016824927962187042
2604.0,0.016824927962187042
2603.0,0.01677978535189717
2602.0,0.01677978535189717
2601.0,0.016734647433454652
2600.0,0.016734647433454652
2599.0,0.016689514205884493
2598.0,0.016644385668211692
2597.0,0.016554142658660398
2596.0,0.016509028184833463
2595.0,0.01646391839700767
2594.0,0.016418813294209356
2593.0,0.016373712875465518
2592.0,0.016373712875465518
2591.0,0.01628352608625061
2590.0,0.016238439713835096
2589.0,0.016148281008528276
2588.0,0.016058141016111804
2587.0,0.016013078034810446
2586.0,0.01596801972881945
2585.0,0.015922966097169144
2584.0,0.015877917138889863
2583.0,0.015832872853011715
2582.0,0.015832872853011715
2581.0,0.01578783323856614
2580.0,0.01578783323856614
2579.0,0.015742798294583915
2578.0,0.015652742414136167
2577.0,0.015652742414136167
2576.0,0.015607721475734415
2575.0,0.015517693597737248
2574.0,0.015427684378367834
2573.0,0.01538268676325183
2572.0,0.015337693809893471
2571.0,0.015337693809893471
2570.0,0.015292705517326866
2569.0,0.015292705517326866
2568.0,0.015292705517326866
2567.0,0.015292705517326866
2566.0,0.015247721884586563
2565.0,0.015247721884586563
2564.0,0.015202742910707112
2563.0,0.015112798935672522
2562.0,0.015022873584506602
2561.0,0.014932966849499074
2560.0,0.014932966849499074
2559.0,0.014977917890464765
2558.0,0.014977917890464765
2557.0,0.014977917890464765
2556.0,0.014977917890464765
2555.0,0.014932966849499074
2554.0,0.014932966849499074
2553.0,0.014888020460646079
2552.0,0.014888020460646079
2551.0,0.014888020460646079
2550.0,0.014843078722943437
2549.0,0.014798141635428141
2548.0,0.014798141635428141
2547.0,0.014753209197138295
2546.0,0.014708281407112
2545.0,0.014663358264387139
2544.0,0.014618439768003144
2543.0,0.014573525916998342
2542.0,0.014573525916998342
2541.0,0.01452861671041239
2540.0,0.0144837121472845
2539.0,0.014393916947563534
2538.0,0.014304140310157809
2537.0,0.014259258949925524
2536.0,0.014214382227394795
2535.0,0.014259258949925524
2534.0,0.014304140310157809
2533.0,0.014349026309051105
2532.0,0.014349026309051105
2531.0,0.014304140310157809
2530.0,0.014259258949925524
2529.0,0.014214382227394795
2528.0,0.014169510141607944
2527.0,0.014169510141607944
2526.0,0.014169510141607944
2525.0,0.014169510141607944
2524.0,0.014124642691606404
2523.0,0.014124642691606404
2522.0,0.014079779876432497
2521.0,0.014079779876432497
2520.0,0.01403492169512921
2519.0,0.01403492169512921
2518.0,0.013990068146738865
2517.0,0.013945219230304673
2516.0,0.013945219230304673
2515.0,0.013900374944870508
2514.0,0.013900374944870508
2513.0,0.013900374944870508
2512.0,0.01385553528947936
2511.0,0.013765869865004277
2510.0,0.01372104409400876
2509.0,0.01372104409400876
2508.0,0.013676222949234651
2507.0,0.013631406429727155
2506.0,0.013631406429727155
2505.0,0.013676222949234651
2504.0,0.01372104409400876
2503.0,0.013765869865004277
2502.0,0.01381070026317599
2501.0,0.01381070026317599
2500.0,0.013765869865004277
2499.0,0.01372104409400876
2498.0,0.013676222949234651
2497.0,0.013586594534531482
2496.0,0.013586594534531482
2495.0,0.013541787262693505
2494.0,0.013586594534531482
2493.0,0.013586594534531482
2492.0,0.013631406429727155
2491.0,0.013631406429727155
2490.0,0.013586594534531482
2489.0,0.013541787262693505
2488.0,0.013496984613259544
2487.0,0.013452186585275916
2486.0,0.013407393177789162
2485.0,0.013362604389846044
2484.0,0.013362604389846044
2483.0,0.013362604389846044
2482.0,0.013362604389846044
2481.0,0.013362604389846044
2480.0,0.013407393177789162
2479.0,0.013452186585275916
2478.0,0.013452186585275916
2477.0,0.013496984613259544
2476.0,0.013496984613259544
2475.0,0.013496984613259544
2474.0,0.013496984613259544
2473.0,0.013496984613259544
2472.0,0.013452186585275916
2471.0,0.013362604389846044
2470.0,0.013273040668781544
2469.0,0.01322826573375524
2468.0,0.01318349541446362
2467.0,0.01318349541446362
2466.0,0.01318349541446362
2465.0,0.01318349541446362
2464.0,0.01318349541446362
2463.0,0.01318349541446362
2462.0,0.013138729709955221
2461.0,0.013138729709955221
2460.0,0.013093968619278806
2459.0,0.013093968619278806
2458.0,0.013049212141483357
2457.0,0.013049212141483357
2456.0,0.013049212141483357
2455.0,0.013049212141483357
2454.0,0.013004460275618523
2453.0,0.013004460275618523
2452.0,0.012959713020733288
2451.0,0.012959713020733288
2450.0,0.012959713020733288
2449.0,0.012959713020733288
2448.0,0.012914970375878188
2447.0,0.012914970375878188
2446.0,0.012914970375878188
2445.0,0.012959713020733288
2444.0,0.012914970375878188
2443.0,0.012914970375878188
2442.0,0.012870232340102872
2441.0,0.012914970375878188
2440.0,0.012914970375878188
2439.0,0.012914970375878188
2438.0,0.012870232340102872
2437.0,0.012870232340102872
2436.0,0.012914970375878188
2435.0,0.012914970375878188
2434.0,0.012914970375878188
2433.0,0.012959713020733288
2432.0,0.013004460275618523
2431.0,0.013004460275618523
2430.0,0.013004460275618523
2429.0,0.012959713020733288
2428.0,0.012959713020733288
2427.0,0.012914970375878188
2426.0,0.012914970375878188
2425.0,0.012914970375878188
2424.0,0.012914970375878188
2423.0,0.012959713020733288
2422.0,0.013004460275618523
2421.0,0.013049212141483357
2420.0,0.013049212141483357
2419.0,0.013049212141483357
2418.0,0.013049212141483357
2417.0,0.013049212141483357
2416.0,0.013049212141483357
2415.0,0.013049212141483357
2414.0,0.013004460275618523
2413.0,0.012959713020733288
2412.0,0.012914970375878188
2411.0,0.012914970375878188
2410.0,0.012914970375878188
2409.0,0.012914970375878188
2408.0,0.012959713020733288
2407.0,0.012959713020733288
2406.0,0.012914970375878188
2405.0,0.012870232340102872
2404.0,0.012870232340102872
2403.0,0.012825498912458322
2402.0,0.012825498912458322
2401.0,0.012825498912458322
2400.0,0.012825498912458322
2399.0,0.012825498912458322
2398.0,0.012870232340102872
2397.0,0.012870232340102872
2396.0,0.012914970375878188
2395.0,0.012914970375878188
2394.0,0.012870232340102872
2393.0,0.012870232340102872
2392.0,0.012780770091995297
2391.0,0.012736045877764557
2390.0,0.012736045877764557
2389.0,0.012736045877764557
2388.0,0.012736045877764557
2387.0,0.012691326268817527
2386.0,0.01264661126420652
2385.0,0.01260190086298274
2384.0,0.012512493866907004
2383.0,0.012423105273012602
2382.0,0.012378417874516323
2381.0,0.012333735073725371
2380.0,0.012333735073725371
2379.0,0.012333735073725371
2378.0,0.012333735073725371
2377.0,0.012378417874516323
2376.0,0.012423105273012602
2375.0,0.012467797270160563
2374.0,0.012467797270160563
2373.0,0.012467797270160563
2372.0,0.012467797270160563
2371.0,0.012467797270160563
2370.0,0.012333735073725371
2369.0,0.01215504982870197
2368.0,0.011931796607364653
2367.0,0.011753276624621556
2366.0,0.0119764380713403
2365.0,0.01264661126420652
2364.0,0.013541787262693505
2363.0,0.01385553528947936
2362.0,0.013407393177789162
2361.0,0.012512493866907004
2360.0,0.011797899741219142
2359.0,0.011574829993696856
2358.0,0.011887159731648111
2357.0,0.012423105273012602
2356.0,0.012825498912458322
2355.0,0.012914970375878188
2354.0,0.012870232340102872
2353.0,0.012914970375878188
2352.0,0.012914970375878188
2351.0,0.012557195064198723
2350.0,0.011797899741219142
2349.0,0.010950843561779777
2348.0,0.010550182333308289
2347.0,0.01086177578421088
2346.0,0.011619434777991433
2345.0,0.012423105273012602
2344.0,0.012825498912458322
2343.0,0.012736045877764557
2342.0,0.012557195064198723
2341.0,0.01260190086298274
2340.0,0.012736045877764557
2339.0,0.012825498912458322
2338.0,0.012870232340102872
2337.0,0.012959713020733288
2336.0,0.013093968619278806
2335.0,0.01318349541446362
2334.0,0.013138729709955221
2333.0,0.013004460275618523
2332.0,0.012914970375878188
2331.0,0.013049212141483357
2330.0,0.013273040668781544
2329.0,0.013496984613259544
2328.0,0.013586594534531482
2327.0,0.013676222949234651
2326.0,0.01372104409400876
2325.0,0.01385553528947936
2324.0,0.01403492169512921
2323.0,0.014124642691606404
2322.0,0.014169510141607944
2321.0,0.014124642691606404
2320.0,0.014079779876432497
2319.0,0.01403492169512921
2318.0,0.013900374944870508
2317.0,0.01385553528947936
2316.0,0.01385553528947936
2315.0,0.01385553528947936
2314.0,0.01385553528947936
2313.0,0.01381070026317599
2312.0,0.013765869865004277
2311.0,0.01372104409400876
2310.0,0.013676222949234651
2309.0,0.013631406429727155
2308.0,0.013541787262693505
2307.0,0.013496984613259544
2306.0,0.013452186585275916
2305.0,0.013407393177789162
2304.0,0.013407393177789162
2303.0,0.013362604389846044
2302.0,0.013362604389846044
2301.0,0.013317820220494436
2300.0,0.013273040668781544
2299.0,0.01322826573375524
2298.0,0.01322826573375524
2297.0,0.01322826573375524
2296.0,0.01322826573375524
2295.0,0.01318349541446362
2294.0,0.013093968619278806
2293.0,0.013093968619278806
2292.0,0.013093968619278806
2291.0,0.013093968619278806
2290.0,0.013138729709955221
2289.0,0.013138729709955221
2288.0,0.013093968619278806
2287.0,0.013049212141483357
2286.0,0.013004460275618523
2285.0,0.013004460275618523
2284.0,0.012959713020733288
2283.0,0.012959713020733288
2282.0,0.012914970375878188
2281.0,0.012914970375878188
2280.0,0.012914970375878188
2279.0,0.012870232340102872
2278.0,0.012870232340102872
2277.0,0.012825498912458322
2276.0,0.012825498912458322
2275.0,0.012825498912458322
2274.0,0.012825498912458322
2273.0,0.012825498912458322
2272.0,0.012825498912458322
2271.0,0.012825498912458322
2270.0,0.012780770091995297
2269.0,0.012736045877764557
2268.0,0.012736045877764557
2267.0,0.012691326268817527
2266.0,0.012691326268817527
2265.0,0.012736045877764557
2264.0,0.012736045877764557
2263.0,0.012736045877764557
2262.0,0.012736045877764557
2261.0,0.012736045877764557
2260.0,0.012736045877764557
2259.0,0.012691326268817527
2258.0,0.01264661126420652
2257.0,0.01264661126420652
2256.0,0.01264661126420652
2255.0,0.012691326268817527
2254.0,0.012736045877764557
2253.0,0.012691326268817527
2252.0,0.012691326268817527
2251.0,0.01264661126420652
2250.0,0.01260190086298274
2249.0,0.01260190086298274
2248.0,0.01264661126420652
2247.0,0.012691326268817527
2246.0,0.012691326268817527
2245.0,0.012691326268817527
2244.0,0.012691326268817527
2243.0,0.012691326268817527
2242.0,0.012736045877764557
2241.0,0.012736045877764557
2240.0,0.012736045877764557
2239.0,0.012691326268817527
2238.0,0.01264661126420652
2237.0,0.01260190086298274
2236.0,0.01260190086298274
2235.0,0.01260190086298274
2234.0,0.012557195064198723
2233.0,0.012557195064198723
2232.0,0.012512493866907004
2231.0,0.012512493866907004
2230.0,0.012557195064198723
2229.0,0.012557195064198723
2228.0,0.012557195064198723
2227.0,0.012557195064198723
2226.0,0.012557195064198723
2225.0,0.012557195064198723
2224.0,0.01260190086298274
2223.0,0.01260190086298274
2222.0,0.01260190086298274
2221.0,0.012557195064198723
2220.0,0.012557195064198723
2219.0,0.012512493866907004
2218.0,0.012512493866907004
2217.0,0.012512493866907004
2216.0,0.012512493866907004
2215.0,0.012512493866907004
2214.0,0.012467797270160563
2213.0,0.012467797270160563
2212.0,0.012512493866907004
2211.0,0.012512493866907004
2210.0,0.012557195064198723
2209.0,0.012557195064198723
2208.0,0.012557195064198723
2207.0,0.012557195064198723
2206.0,0.012512493866907004
2205.0,0.012557195064198723
2204.0,0.012557195064198723
2203.0,0.01260190086298274
2202.0,0.01264661126420652
2201.0,0.01264661126420652
2200.0,0.01264661126420652
2199.0,0.01260190086298274
2198.0,0.01260190086298274
2197.0,0.012557195064198723
2196.0,0.012557195064198723
2195.0,0.012557195064198723
2194.0,0.01260190086298274
2193.0,0.01260190086298274
2192.0,0.01264661126420652
2191.0,0.01264661126420652
2190.0,0.01260190086298274
2189.0,0.01260190086298274
2188.0,0.01260190086298274
2187.0,0.01260190086298274
2186.0,0.01260190086298274
2185.0,0.01260190086298274
2184.0,0.01260190086298274
2183.0,0.012557195064198723
2182.0,0.012557195064198723
2181.0,0.012557195064198723
2180.0,0.01260190086298274
2179.0,0.01260190086298274
2178.0,0.01264661126420652
2177.0,0.01264661126420652
2176.0,0.01264661126420652
2175.0,0.01264661126420652
2174.0,0.01264661126420652
2173.0,0.01264661126420652
2172.0,0.01264661126420652
2171.0,0.01264661126420652
2170.0,0.01260190086298274
2169.0,0.01264661126420652
2168.0,0.012691326268817527
2167.0,0.012736045877764557
2166.0,0.012736045877764557
2165.0,0.012736045877764557
2164.0,0.012736045877764557
2163.0,0.012736045877764557
2162.0,0.012736045877764557
2161.0,0.012780770091995297
2160.0,0.012780770091995297
2159.0,0.012780770091995297
2158.0,0.012780770091995297
2157.0,0.012736045877764557
2156.0,0.012736045877764557
2155.0,0.012736045877764557
2154.0,0.012736045877764557
2153.0,0.012780770091995297
2152.0,0.012780770091995297
2151.0,0.012736045877764557
2150.0,0.012736045877764557
2149.0,0.012736045877764557
2148.0,0.012736045877764557
2147.0,0.012736045877764557
2146.0,0.012736045877764557
2145.0,0.012736045877764557
2144.0,0.012780770091995297
2143.0,0.012736045877764557
2142.0,0.012736045877764557
2141.0,0.012691326268817527
2140.0,0.012691326268817527
2139.0,0.012691326268817527
2138.0,0.012736045877764557
2137.0,0.012780770091995297
2136.0,0.012736045877764557
2135.0,0.012691326268817527
2134.0,0.01260190086298274
2133.0,0.01260190086298274
2132.0,0.01260190086298274
2131.0,0.01264661126420652
2130.0,0.012691326268817527
2129.0,0.012736045877764557
2128.0,0.012736045877764557
2127.0,0.012691326268817527
2126.0,0.01264661126420652
2125.0,0.01264661126420652
2124.0,0.01260190086298274
2123.0,0.01260190086298274
2122.0,0.012557195064198723
2121.0,0.012557195064198723
2120.0,0.012557195064198723
2119.0,0.012557195064198723
2118.0,0.01260190086298274
2117.0,0.01260190086298274
2116.0,0.012557195064198723
2115.0,0.012557195064198723
2114.0,0.012557195064198723
2113.0,0.01260190086298274
2112.0,0.01264661126420652
2111.0,0.012691326268817527
2110.0,0.012691326268817527
2109.0,0.01264661126420652
2108.0,0.01260190086298274
2107.0,0.01260190086298274
2106.0,0.01260190086298274
2105.0,0.01264661126420652
2104.0,0.01264661126420652
2103.0,0.01264661126420652
2102.0,0.01264661126420652
2101.0,0.01264661126420652
2100.0,0.01260190086298274
2099.0,0.01260190086298274
2098.0,0.012557195064198723
2097.0,0.01260190086298274
2096.0,0.01260190086298274
2095.0,0.01264661126420652
2094.0,0.01264661126420652
2093.0,0.012691326268817527
2092.0,0.012691326268817527
2091.0,0.012691326268817527
2090.0,0.01264661126420652
2089.0,0.01260190086298274
2088.0,0.01260190086298274
2087.0,0.01264661126420652
2086.0,0.01264661126420652
2085.0,0.012691326268817527
2084.0,0.012691326268817527
2083.0,0.012691326268817527
2082.0,0.012691326268817527
2081.0,0.012691326268817527
2080.0,0.012691326268817527
2079.0,0.012691326268817527
2078.0,0.012691326268817527
2077.0,0.012691326268817527
2076.0,0.012691326268817527
2075.0,0.012691326268817527
2074.0,0.012691326268817527
2073.0,0.012691326268817527
2072.0,0.012691326268817527
2071.0,0.012691326268817527
2070.0,0.012691326268817527
2069.0,0.012736045877764557
2068.0,0.012736045877764557
2067.0,0.012736045877764557
2066.0,0.012736045877764557
2065.0,0.012780770091995297
2064.0,0.012780770091995297
2063.0,0.012825498912458322
2062.0,0.012825498912458322
2061.0,0.012870232340102872
2060.0,0.012914970375878188
2059.0,0.012870232340102872
2058.0,0.012870232340102872
2057.0,0.012825498912458322
2056.0,0.012825498912458322
2055.0,0.012825498912458322
2054.0,0.012870232340102872
2053.0,0.012914970375878188
2052.0,0.012914970375878188
2051.0,0.012914970375878188
2050.0,0.012914970375878188
2049.0,0.012959713020733288
2048.0,0.012959713020733288
2047.0,0.012959713020733288
2046.0,0.012959713020733288
2045.0,0.013004460275618523
2044.0,0.013004460275618523
2043.0,0.013004460275618523
2042.0,0.013004460275618523
2041.0,0.013004460275618523
2040.0,0.013004460275618523
2039.0,0.013004460275618523
2038.0,0.013004460275618523
2037.0,0.013049212141483357
2036.0,0.013049212141483357
2035.0,0.013049212141483357
2034.0,0.013093968619278806
2033.0,0.013138729709955221
2032.0,0.01322826573375524
2031.0,0.01322826573375524
2030.0,0.01322826573375524
2029.0,0.01322826573375524
2028.0,0.01322826573375524
2027.0,0.01318349541446362
2026.0,0.01322826573375524
2025.0,0.013273040668781544
2024.0,0.013317820220494436
2023.0,0.013362604389846044
2022.0,0.013407393177789162
2021.0,0.013407393177789162
2020.0,0.013407393177789162
2019.0,0.013407393177789162
2018.0,0.013407393177789162
2017.0,0.013407393177789162
2016.0,0.013407393177789162
2015.0,0.013362604389846044
2014.0,0.013273040668781544
2013.0,0.01322826573375524
2012.0,0.01318349541446362
2011.0,0.013138729709955221
2010.0,0.013138729709955221
2009.0,0.013138729709955221
2008.0,0.013093968619278806
2007.0,0.013093968619278806
2006.0,0.013049212141483357
2005.0,0.013049212141483357
2004.0,0.013004460275618523
2003.0,0.013004460275618523
2002.0,0.012959713020733288
2001.0,0.012959713020733288
2000.0,0.012959713020733288
1999.0,0.012959713020733288
1998.0,0.013004460275618523
1997.0,0.012959713020733288
1996.0,0.012914970375878188
1995.0,0.012914970375878188
1994.0,0.012870232340102872
1993.0,0.012870232340102872
1992.0,0.012914970375878188
1991.0,0.012914970375878188
1990.0,0.012914970375878188
1989.0,0.012870232340102872
1988.0,0.012870232340102872
1987.0,0.012870232340102872
1986.0,0.012825498912458322
1985.0,0.012825498912458322
1984.0,0.012870232340102872
1983.0,0.012914970375878188
1982.0,0.012914970375878188
1981.0,0.012914970375878188
1980.0,0.012959713020733288
1979.0,0.012959713020733288
1978.0,0.012914970375878188
1977.0,0.012914970375878188
1976.0,0.012914970375878188
1975.0,0.012914970375878188
1974.0,0.012914970375878188
1973.0,0.012914970375878188
1972.0,0.012914970375878188
1971.0,0.012870232340102872
1970.0,0.012870232340102872
1969.0,0.012870232340102872
1968.0,0.012825498912458322
1967.0,0.012870232340102872
1966.0,0.012870232340102872
1965.0,0.012914970375878188
1964.0,0.012914970375878188
1963.0,0.012914970375878188
1962.0,0.012914970375878188
1961.0,0.012870232340102872
1960.0,0.012870232340102872
1959.0,0.012870232340102872
1958.0,0.012825498912458322
1957.0,0.012825498912458322
1956.0,0.012870232340102872
1955.0,0.012870232340102872
1954.0,0.012914970375878188
1953.0,0.012914970375878188
1952.0,0.012959713020733288
1951.0,0.012959713020733288
1950.0,0.012914970375878188
1949.0,0.012914970375878188
1948.0,0.012914970375878188
1947.0,0.012870232340102872
1946.0,0.012825498912458322
1945.0,0.012825498912458322
1944.0,0.012825498912458322
1943.0,0.012870232340102872
1942.0,0.012914970375878188
1941.0,0.012959713020733288
1940.0,0.012959713020733288
1939.0,0.012959713020733288
1938.0,0.012959713020733288
1937.0,0.012959713020733288
1936.0,0.012914970375878188
1935.0,0.012870232340102872
1934.0,0.012870232340102872
1933.0,0.012914970375878188
1932.0,0.012959713020733288
1931.0,0.013004460275618523
1930.0,0.013004460275618523
1929.0,0.013004460275618523
1928.0,0.013004460275618523
1927.0,0.012959713020733288
1926.0,0.012959713020733288
1925.0,0.012914970375878188
1924.0,0.012914970375878188
1923.0,0.012959713020733288
1922.0,0.012959713020733288
1921.0,0.013004460275618523
1920.0,0.013004460275618523
1919.0,0.013004460275618523
1918.0,0.013004460275618523
1917.0,0.013049212141483357
1916.0,0.013049212141483357
1915.0,0.013049212141483357
1914.0,0.013093968619278806
1913.0,0.013093968619278806
1912.0,0.013093968619278806
1911.0,0.013138729709955221
1910.0,0.013138729709955221
1909.0,0.01318349541446362
1908.0,0.01322826573375524
1907.0,0.013273040668781544
1906.0,0.013317820220494436
1905.0,0.013407393177789162
1904.0,0.013452186585275916
1903.0,0.013496984613259544
1902.0,0.013541787262693505
1901.0,0.013586594534531482
1900.0,0.013631406429727155
1899.0,0.013676222949234651
1898.0,0.013676222949234651
1897.0,0.01372104409400876
1896.0,0.01372104409400876
1895.0,0.01372104409400876
1894.0,0.01372104409400876
1893.0,0.01372104409400876
1892.0,0.013676222949234651
1891.0,0.013586594534531482
1890.0,0.013496984613259544
1889.0,0.013452186585275916
1888.0,0.013407393177789162
1887.0,0.013362604389846044
1886.0,0.013273040668781544
1885.0,0.01322826573375524
1884.0,0.01322826573375524
1883.0,0.01318349541446362
1882.0,0.01318349541446362
1881.0,0.01318349541446362
1880.0,0.013138729709955221
1879.0,0.013093968619278806
1878.0,0.013049212141483357
1877.0,0.013093968619278806
1876.0,0.013138729709955221
1875.0,0.013138729709955221
1874.0,0.013138729709955221
1873.0,0.013138729709955221
1872.0,0.013093968619278806
1871.0,0.013004460275618523
1870.0,0.012959713020733288
1869.0,0.012914970375878188
1868.0,0.012914970375878188
1867.0,0.012914970375878188
1866.0,0.012914970375878188
1865.0,0.012959713020733288
1864.0,0.012959713020733288
1863.0,0.012959713020733288
1862.0,0.012959713020733288
1861.0,0.012959713020733288
1860.0,0.012959713020733288
1859.0,0.013004460275618523
1858.0,0.013004460275618523
1857.0,0.013049212141483357
1856.0,0.013049212141483357
1855.0,0.013004460275618523
1854.0,0.013004460275618523
1853.0,0.012959713020733288
1852.0,0.012959713020733288
1851.0,0.012959713020733288
1850.0,0.012959713020733288
1849.0,0.012914970375878188
1848.0,0.012914970375878188
1847.0,0.012914970375878188
1846.0,0.012959713020733288
1845.0,0.013004460275618523
1844.0,0.013004460275618523
1843.0,0.012959713020733288
1842.0,0.012959713020733288
1841.0,0.012959713020733288
1840.0,0.012959713020733288
1839.0,0.012914970375878188
1838.0,0.012914970375878188
1837.0,0.012959713020733288
1836.0,0.012959713020733288
1835.0,0.013004460275618523
1834.0,0.013004460275618523
1833.0,0.013049212141483357
1832.0,0.013049212141483357
1831.0,0.013049212141483357
1830.0,0.013004460275618523
1829.0,0.013049212141483357
1828.0,0.013049212141483357
1827.0,0.013093968619278806
1826.0,0.013049212141483357
1825.0,0.013049212141483357
1824.0,0.013049212141483357
1823.0,0.013049212141483357
1822.0,0.013049212141483357
1821.0,0.013093968619278806
1820.0,0.013093968619278806
1819.0,0.013093968619278806
1818.0,0.013049212141483357
1817.0,0.013049212141483357
1816.0,0.013049212141483357
1815.0,0.013049212141483357
1814.0,0.013004460275618523
1813.0,0.012959713020733288
1812.0,0.012959713020733288
1811.0,0.012959713020733288
1810.0,0.012959713020733288
1809.0,0.013004460275618523
1808.0,0.013049212141483357
1807.0,0.013004460275618523
1806.0,0.012959713020733288
1805.0,0.012959713020733288
1804.0,0.012959713020733288
1803.0,0.013004460275618523
1802.0,0.013004460275618523
1801.0,0.013004460275618523
1800.0,0.013049212141483357
1799.0,0.013004460275618523
1798.0,0.012959713020733288
1797.0,0.013004460275618523
1796.0,0.013004460275618523
1795.0,0.013049212141483357
1794.0,0.013004460275618523
1793.0,0.013004460275618523
1792.0,0.013004460275618523
1791.0,0.013004460275618523
1790.0,0.013049212141483357
1789.0,0.013049212141483357
1788.0,0.013049212141483357
1787.0,0.013049212141483357
1786.0,0.013049212141483357
1785.0,0.013049212141483357
1784.0,0.013049212141483357
1783.0,0.012959713020733288
1782.0,0.012914970375878188
1781.0,0.012914970375878188
1780.0,0.012959713020733288
1779.0,0.012959713020733288
1778.0,0.012959713020733288
1777.0,0.012959713020733288
1776.0,0.012959713020733288
1775.0,0.013004460275618523
1774.0,0.013049212141483357
1773.0,0.013049212141483357
1772.0,0.013093968619278806
1771.0,0.013049212141483357
1770.0,0.013093968619278806
1769.0,0.01318349541446362
1768.0,0.01322826573375524
1767.0,0.01322826573375524
1766.0,0.01318349541446362
1765.0,0.01322826573375524
1764.0,0.013273040668781544
1763.0,0.013317820220494436
1762.0,0.013362604389846044
1761.0,0.013407393177789162
1760.0,0.013452186585275916
1759.0,0.013541787262693505
1758.0,0.013541787262693505
1757.0,0.013631406429727155
1756.0,0.013676222949234651
1755.0,0.013765869865004277
1754.0,0.01385553528947936
1753.0,0.013900374944870508
1752.0,0.013990068146738865
1751.0,0.014079779876432497
1750.0,0.014169510141607944
1749.0,0.014214382227394795
1748.0,0.014304140310157809
1747.0,0.014349026309051105
1746.0,0.014393916947563534
1745.0,0.014393916947563534
1744.0,0.0144837121472845
1743.0,0.01452861671041239
1742.0,0.014573525916998342
1741.0,0.014618439768003144
1740.0,0.014573525916998342
1739.0,0.01452861671041239
1738.0,0.01452861671041239
1737.0,0.014618439768003144
1736.0,0.014663358264387139
1735.0,0.014573525916998342
1734.0,0.014438812226654996
1733.0,0.014214382227394795
1732.0,0.014124642691606404
1731.0,0.014124642691606404
1730.0,0.014124642691606404
1729.0,0.014079779876432497
1728.0,0.014079779876432497
1727.0,0.01403492169512921
1726.0,0.01403492169512921
1725.0,0.01403492169512921
1724.0,0.014079779876432497
1723.0,0.014079779876432497
1722.0,0.014079779876432497
1721.0,0.01403492169512921
1720.0,0.01403492169512921
1719.0,0.013900374944870508
1718.0,0.01385553528947936
1717.0,0.013900374944870508
1716.0,0.013900374944870508
1715.0,0.013945219230304673
1714.0,0.013945219230304673
1713.0,0.013990068146738865
1712.0,0.013990068146738865
1711.0,0.013945219230304673
1710.0,0.013900374944870508
1709.0,0.01385553528947936
1708.0,0.01381070026317599
1707.0,0.01372104409400876
1706.0,0.013676222949234651
1705.0,0.01372104409400876
1704.0,0.01381070026317599
1703.0,0.013945219230304673
1702.0,0.01403492169512921
1701.0,0.014079779876432497
1700.0,0.01403492169512921
1699.0,0.013945219230304673
1698.0,0.013945219230304673
1697.0,0.014079779876432497
1696.0,0.014124642691606404
1695.0,0.013990068146738865
1694.0,0.013900374944870508
1693.0,0.013900374944870508
1692.0,0.013900374944870508
1691.0,0.01385553528947936
1690.0,0.01381070026317599
1689.0,0.01385553528947936
1688.0,0.013990068146738865
1687.0,0.014079779876432497
1686.0,0.013990068146738865
1685.0,0.013945219230304673
1684.0,0.013990068146738865
1683.0,0.013990068146738865
1682.0,0.01403492169512921
1681.0,0.014124642691606404
1680.0,0.014169510141607944
1679.0,0.014214382227394795
1678.0,0.014259258949925524
1677.0,0.014349026309051105
1676.0,0.014393916947563534
1675.0,0.014349026309051105
1674.0,0.014304140310157809
1673.0,0.014214382227394795
1672.0,0.014214382227394795
1671.0,0.014214382227394795
1670.0,0.014259258949925524
1669.0,0.014349026309051105
1668.0,0.014438812226654996
1667.0,0.0144837121472845
1666.0,0.0144837121472845
1665.0,0.0144837121472845
1664.0,0.014438812226654996
1663.0,0.014438812226654996
1662.0,0.0144837121472845
1661.0,0.01452861671041239
1660.0,0.014573525916998342
1659.0,0.014573525916998342
1658.0,0.01452861671041239
1657.0,0.01452861671041239
1656.0,0.014573525916998342
1655.0,0.01452861671041239
1654.0,0.014573525916998342
1653.0,0.014798141635428141
1652.0,0.014663358264387139
1651.0,0.014573525916998342
1650.0,0.014618439768003144
1649.0,0.014573525916998342
1648.0,0.014618439768003144
1647.0,0.014798141635428141
1646.0,0.014888020460646079
1645.0,0.014888020460646079
1644.0,0.014843078722943437
1643.0,0.014798141635428141
1642.0,0.014753209197138295
1641.0,0.014708281407112
1640.0,0.014708281407112
1639.0,0.014708281407112
1638.0,0.014708281407112
1637.0,0.014753209197138295
1636.0,0.014888020460646079
1635.0,0.014888020460646079
1634.0,0.014753209197138295
1633.0,0.014753209197138295
1632.0,0.014798141635428141
1631.0,0.014798141635428141
1630.0,0.014708281407112
1629.0,0.014663358264387139
1628.0,0.014618439768003144
1627.0,0.014618439768003144
1626.0,0.014618439768003144
1625.0,0.014618439768003144
1624.0,0.014618439768003144
1623.0,0.014618439768003144
1622.0,0.01452861671041239
1621.0,0.01452861671041239
1620.0,0.01452861671041239
1619.0,0.0144837121472845
1618.0,0.0144837121472845
1617.0,0.0144837121472845
1616.0,0.0144837121472845
1615.0,0.014438812226654996
1614.0,0.014438812226654996
1613.0,0.014438812226654996
1612.0,0.014393916947563534
1611.0,0.014349026309051105
1610.0,0.014304140310157809
1609.0,0.014304140310157809
1608.0,0.014349026309051105
1607.0,0.014393916947563534
1606.0,0.014349026309051105
1605.0,0.014349026309051105
1604.0,0.014304140310157809
1603.0,0.014259258949925524
1602.0,0.014259258949925524
1601.0,0.014214382227394795
1600.0,0.014214382227394795
1599.0,0.014214382227394795
1598.0,0.014169510141607944
1597.0,0.014124642691606404
1596.0,0.014169510141607944
1595.0,0.014169510141607944
1594.0,0.014169510141607944
1593.0,0.014169510141607944
1592.0,0.014169510141607944
1591.0,0.014214382227394795
1590.0,0.014214382227394795
1589.0,0.014214382227394795
1588.0,0.014214382227394795
1587.0,0.014214382227394795
1586.0,0.014259258949925524
1585.0,0.014349026309051105
1584.0,0.014393916947563534
1583.0,0.014438812226654996
1582.0,0.014438812226654996
1581.0,0.014393916947563534
1580.0,0.014393916947563534
1579.0,0.014393916947563534
1578.0,0.014349026309051105
1577.0,0.014304140310157809
1576.0,0.014259258949925524
1575.0,0.014169510141607944
1574.0,0.014124642691606404
1573.0,0.014124642691606404
1572.0,0.014079779876432497
1571.0,0.013990068146738865
1570.0,0.01385553528947936
1569.0,0.01381070026317599
1568.0,0.013765869865004277
1567.0,0.01372104409400876
1566.0,0.01372104409400876
1565.0,0.013676222949234651
1564.0,0.01372104409400876
1563.0,0.01381070026317599
1562.0,0.01385553528947936
1561.0,0.013765869865004277
1560.0,0.013765869865004277
1559.0,0.013945219230304673
1558.0,0.013765869865004277
1557.0,0.013631406429727155
1556.0,0.01372104409400876
1555.0,0.013765869865004277
1554.0,0.01372104409400876
1553.0,0.01372104409400876
1552.0,0.01372104409400876
1551.0,0.013765869865004277
1550.0,0.01381070026317599
1549.0,0.01385553528947936
1548.0,0.013900374944870508
1547.0,0.01385553528947936
1546.0,0.013765869865004277
1545.0,0.01372104409400876
1544.0,0.01372104409400876
1543.0,0.013676222949234651
1542.0,0.013452186585275916
1541.0,0.013452186585275916
1540.0,0.013631406429727155
1539.0,0.013541787262693505
1538.0,0.013407393177789162
1537.0,0.013452186585275916
1536.0,0.013496984613259544
1535.0,0.013407393177789162
1534.0,0.013273040668781544
1533.0,0.01322826573375524
1532.0,0.01318349541446362
1531.0,0.013093968619278806
1530.0,0.012959713020733288
1529.0,0.012914970375878188
1528.0,0.012914970375878188
1527.0,0.012914970375878188
1526.0,0.012825498912458322
1525.0,0.012780770091995297
1524.0,0.012825498912458322
1523.0,0.012736045877764557
1522.0,0.01260190086298274
1521.0,0.01260190086298274
1520.0,0.01260190086298274
1519.0,0.012467797270160563
1518.0,0.012289056869694281
1517.0,0.012289056869694281
1516.0,0.012378417874516323
1515.0,0.012378417874516323
1514.0,0.012378417874516323
1513.0,0.012378417874516323
1512.0,0.012423105273012602
1511.0,0.012333735073725371
1510.0,0.012199714248127602
1509.0,0.012065734767841452
1508.0,0.012244383261476699
1507.0,0.012512493866907004
1506.0,0.012467797270160563
1505.0,0.012423105273012602
1504.0,0.012467797270160563
1503.0,0.012378417874516323
1502.0,0.012244383261476699
1501.0,0.01215504982870197
1500.0,0.012110390002254778
1499.0,0.012065734767841452
1498.0,0.011887159731648111
1497.0,0.011887159731648111
1496.0,0.0119764380713403
1495.0,0.011842527443247208
1494.0,0.011664044143949504
1493.0,0.011664044143949504
1492.0,0.011664044143949504
1491.0,0.011530229790124524
1490.0,0.011262724711199823
1489.0,0.011262724711199823
1488.0,0.011441043121384498
1487.0,0.011396456654336085
1486.0,0.011307297450183107
1485.0,0.011396456654336085
1484.0,0.011664044143949504
1483.0,0.011931796607364653
1482.0,0.012289056869694281
1481.0,0.01322826573375524
1480.0,0.014753209197138295
1479.0,0.017095882207371904
1478.0,0.021819483062586187
1477.0,0.031563752288295444
1476.0,0.04774046340917959
1475.0,0.0692037370166998
1474.0,0.09291125492570451
1473.0,0.11053021603049262
1472.0,0.11249522576462212
1471.0,0.10341867249426717
1470.0,0.09388054245443844
1469.0,0.0872997918091396
1468.0,0.08333553545860273
1467.0,0.08223199755224364
1466.0,0.08650404038287651
1465.0,0.09859617317474823
1464.0,0.11407366019856902
1463.0,0.12407101507707297
1462.0,0.12412880927263426
1461.0,0.11526126223036814
1460.0,0.10039834085387778
1459.0,0.08328292240118751
1458.0,0.0676277178520861
1457.0,0.056456022846545606
1456.0,0.05021979163799939
1455.0,0.04686877481655505
1454.0,0.04440844959427559
1453.0,0.04196198390166317
1452.0,0.03948165721929198
1451.0,0.03739392707587297
1450.0,0.03588185684851508
1449.0,0.03456310022373987
1448.0,0.03338901331806565
1447.0,0.03245202378113787
1446.0,0.03184406285002961
1445.0,0.03128362253321426
1444.0,0.03063068826647264
1443.0,0.030071810571884017
1442.0,0.029653123769906697
1441.0,0.029188389127482228
1440.0,0.02872415126189476
1439.0,0.028306761050139073
1438.0,0.027936083991977778
1437.0,0.02747318213414429
1436.0,0.026872146400301444
1435.0,0.026318081496016443
1434.0,0.025810808881832736
1433.0,0.025258095499050004
1432.0,0.024568191490736968
1431.0,0.023879381700184332
1430.0,0.023237476732539397
1429.0,0.02255077261765881
1428.0,0.021773818325474092
1427.0,0.021135015652343103
1426.0,0.020633757603838898
1425.0,0.02004210665933459
1424.0,0.01954210772389997
1423.0,0.019178833355664393
1422.0,0.018951941086827073
1421.0,0.018634490921455527
1420.0,0.018226681372252695
1419.0,0.017909760704207134
1418.0,0.017638298366853045
1417.0,0.017321806616515723
1416.0,0.017005545341335804
1415.0,0.016734647433454652
1414.0,0.016509028184833463
1413.0,0.016193358021584725
1412.0,0.015832872853011715
1411.0,0.015562705203923999
1410.0,0.015337693809893471
1409.0,0.015112798935672522
1408.0,0.014888020460646079
1407.0,0.014798141635428141
1406.0,0.014798141635428141
1405.0,0.014798141635428141
1404.0,0.014753209197138295
1403.0,0.014798141635428141
1402.0,0.014798141635428141
1401.0,0.014798141635428141
1400.0,0.014753209197138295
1399.0,0.014753209197138295
1398.0,0.014798141635428141
1397.0,0.014573525916998342
1396.0,0.014214382227394795
1395.0,0.013900374944870508
1394.0,0.01381070026317599
1393.0,0.013900374944870508
1392.0,0.014124642691606404
1391.0,0.014349026309051105
1390.0,0.0144837121472845
1389.0,0.01452861671041239
1388.0,0.0144837121472845
1387.0,0.0144837121472845
1386.0,0.01452861671041239
1385.0,0.014573525916998342
1384.0,0.014573525916998342
1383.0,0.014753209197138295
1382.0,0.015067833932588037
1381.0,0.01547268665620738
1380.0,0.015832872853011715
1379.0,0.016238439713835096
1378.0,0.016509028184833463
1377.0,0.016599261819461697
1376.0,0.016599261819461697
1375.0,0.016734647433454652
1374.0,0.017005545341335804
1373.0,0.017321806616515723
1372.0,0.017638298366853045
1371.0,0.017955020928509757
1370.0,0.018271974638383703
1369.0,0.018498511851753108
1368.0,0.018634490921455527
1367.0,0.01858915983411169
1366.0,0.018498511851753108
1365.0,0.01831727262871463
1364.0,0.01809082990920774
1363.0,0.017909760704207134
1362.0,0.017774008325325275
1361.0,0.017638298366853045
1360.0,0.017547848615010242
1359.0,0.017457417697056554
1358.0,0.017412209298337533
1357.0,0.017412209298337533
1356.0,0.017457417697056554
1355.0,0.017547848615010242
1354.0,0.017638298366853045
1353.0,0.017728766960431575
1352.0,0.017728766960431575
1351.0,0.01768353030793479
1350.0,0.017638298366853045
1349.0,0.017502630802287644
1348.0,0.017367005605150476
1347.0,0.017231422748988034
1346.0,0.017050711425501408
1345.0,0.016915227262211507
1344.0,0.016734647433454652
1343.0,0.016554142658660398
1342.0,0.01646391839700767
1341.0,0.01632861713980338
1340.0,0.016238439713835096
1339.0,0.016148281008528276
1338.0,0.016103208673694303
1337.0,0.01596801972881945
1336.0,0.01578783323856614
1335.0,0.015652742414136167
1334.0,0.015607721475734415
1333.0,0.015517693597737248
1332.0,0.015427684378367834
1331.0,0.01538268676325183
1330.0,0.015337693809893471
1329.0,0.015337693809893471
1328.0,0.015292705517326866
1327.0,0.015292705517326866
1326.0,0.015292705517326866
1325.0,0.015337693809893471
1324.0,0.015337693809893471
1323.0,0.01538268676325183
1322.0,0.01547268665620738
1321.0,0.015562705203923999
1320.0,0.015652742414136167
1319.0,0.015742798294583915
1318.0,0.015877917138889863
1317.0,0.01596801972881945
1316.0,0.016013078034810446
1315.0,0.016103208673694303
1314.0,0.016238439713835096
1313.0,0.01632861713980338
1312.0,0.016418813294209356
1311.0,0.01646391839700767
1310.0,0.016554142658660398
1309.0,0.016599261819461697
1308.0,0.016644385668211692
1307.0,0.016689514205884493
1306.0,0.016734647433454652
1305.0,0.01677978535189717
1304.0,0.01677978535189717
1303.0,0.01677978535189717
1302.0,0.01677978535189717
1301.0,0.016734647433454652
1300.0,0.016644385668211692
1299.0,0.016599261819461697
1298.0,0.016554142658660398
1297.0,0.01646391839700767
1296.0,0.016418813294209356
1295.0,0.01632861713980338
1294.0,0.01628352608625061
1293.0,0.016193358021584725
1292.0,0.016103208673694303
1291.0,0.01596801972881945
1290.0,0.015877917138889863
1289.0,0.015832872853011715
1288.0,0.015742798294583915
1287.0,0.015652742414136167
1286.0,0.015607721475734415
1285.0,0.01547268665620738
1284.0,0.01538268676325183
1283.0,0.015292705517326866
1282.0,0.015202742910707112
1281.0,0.015157768594724175
1280.0,0.015067833932588037
1279.0,0.015022873584506602
1278.0,0.015022873584506602
1277.0,0.014977917890464765
1276.0,0.014932966849499074
1275.0,0.014888020460646079
1274.0,0.014843078722943437
1273.0,0.014798141635428141
1272.0,0.014753209197138295
1271.0,0.014708281407112
1270.0,0.014663358264387139
1269.0,0.014618439768003144
1268.0,0.014573525916998342
1267.0,0.01452861671041239
1266.0,0.01452861671041239
1265.0,0.01452861671041239
1264.0,0.01452861671041239
1263.0,0.0144837121472845
1262.0,0.0144837121472845
1261.0,0.014438812226654996
1260.0,0.014304140310157809
1259.0,0.014214382227394795
1258.0,0.014124642691606404
1257.0,0.013990068146738865
1256.0,0.013900374944870508
1255.0,0.013765869865004277
1254.0,0.013676222949234651
1253.0,0.013541787262693505
1252.0,0.013407393177789162
1251.0,0.013273040668781544
1250.0,0.01322826573375524
1249.0,0.013273040668781544
1248.0,0.013317820220494436
1247.0,0.013407393177789162
1246.0,0.013496984613259544
1245.0,0.013496984613259544
1244.0,0.013407393177789162
1243.0,0.01322826573375524
1242.0,0.013138729709955221
1241.0,0.013138729709955221
1240.0,0.013273040668781544
1239.0,0.013407393177789162
1238.0,0.013496984613259544
1237.0,0.013452186585275916
1236.0,0.013362604389846044
1235.0,0.01322826573375524
1234.0,0.013138729709955221
1233.0,0.013004460275618523
1232.0,0.012914970375878188
1231.0,0.012825498912458322
1230.0,0.012780770091995297
1229.0,0.012736045877764557
1228.0,0.012691326268817527
1227.0,0.012691326268817527
1226.0,0.012736045877764557
1225.0,0.012780770091995297
1224.0,0.012825498912458322
1223.0,0.012914970375878188
1222.0,0.012959713020733288
1221.0,0.013049212141483357
1220.0,0.013049212141483357
1219.0,0.013138729709955221
1218.0,0.01318349541446362
1217.0,0.01322826573375524
1216.0,0.013273040668781544
1215.0,0.013362604389846044
1214.0,0.013452186585275916
1213.0,0.013496984613259544
1212.0,0.013541787262693505
1211.0,0.013631406429727155
1210.0,0.013765869865004277
1209.0,0.01385553528947936
1208.0,0.013900374944870508
1207.0,0.013990068146738865
1206.0,0.01403492169512921
1205.0,0.014124642691606404
1204.0,0.014124642691606404
1203.0,0.014169510141607944
1202.0,0.014169510141607944
1201.0,0.014124642691606404
1200.0,0.01403492169512921
1199.0,0.013990068146738865
1198.0,0.013990068146738865
1197.0,0.013990068146738865
1196.0,0.013900374944870508
1195.0,0.01385553528947936
1194.0,0.01381070026317599
1193.0,0.01381070026317599
1192.0,0.013765869865004277
1191.0,0.013765869865004277
1190.0,0.013765869865004277
1189.0,0.013765869865004277
1188.0,0.013765869865004277
1187.0,0.013765869865004277
1186.0,0.01381070026317599
1185.0,0.01385553528947936
1184.0,0.013900374944870508
1183.0,0.013990068146738865
1182.0,0.014079779876432497
1181.0,0.014124642691606404
1180.0,0.014214382227394795
1179.0,0.014304140310157809
1178.0,0.014393916947563534
1177.0,0.0144837121472845
1176.0,0.01452861671041239
1175.0,0.014573525916998342
1174.0,0.014618439768003144
1173.0,0.014663358264387139
1172.0,0.014708281407112
1171.0,0.014753209197138295
1170.0,0.014798141635428141
1169.0,0.014753209197138295
1168.0,0.014708281407112
1167.0,0.014573525916998342
1166.0,0.0144837121472845
1165.0,0.014393916947563534
1164.0,0.014304140310157809
1163.0,0.014214382227394795
1162.0,0.014124642691606404
1161.0,0.014079779876432497
1160.0,0.01403492169512921
1159.0,0.01403492169512921
1158.0,0.014079779876432497
1157.0,0.014079779876432497
1156.0,0.014079779876432497
1155.0,0.01403492169512921
1154.0,0.01403492169512921
1153.0,0.013945219230304673
1152.0,0.013900374944870508
1151.0,0.013900374944870508
1150.0,0.013900374944870508
1149.0,0.013900374944870508
1148.0,0.013900374944870508
1147.0,0.013900374944870508
1146.0,0.013900374944870508
1145.0,0.013900374944870508
1144.0,0.01385553528947936
1143.0,0.01381070026317599
1142.0,0.013765869865004277
1141.0,0.01372104409400876
1140.0,0.013676222949234651
1139.0,0.013631406429727155
1138.0,0.013586594534531482
1137.0,0.013586594534531482
1136.0,0.013586594534531482
1135.0,0.013586594534531482
1134.0,0.013631406429727155
1133.0,0.013631406429727155
1132.0,0.013586594534531482
1131.0,0.013541787262693505
1130.0,0.013496984613259544
1129.0,0.013452186585275916
1128.0,0.013407393177789162
1127.0,0.013407393177789162
1126.0,0.013452186585275916
1125.0,0.013452186585275916
1124.0,0.013407393177789162
1123.0,0.013362604389846044
1122.0,0.013317820220494436
1121.0,0.013273040668781544
1120.0,0.01322826573375524
1119.0,0.013138729709955221
1118.0,0.013093968619278806
1117.0,0.013049212141483357
1116.0,0.012959713020733288
1115.0,0.012914970375878188
1114.0,0.012870232340102872
1113.0,0.012825498912458322
1112.0,0.012736045877764557
1111.0,0.01264661126420652
1110.0,0.012557195064198723
1109.0,0.012423105273012602
1108.0,0.012333735073725371
1107.0,0.012199714248127602
1106.0,0.012110390002254778
1105.0,0.012021084124518078
1104.0,0.011931796607364653
1103.0,0.011842527443247208
1102.0,0.011753276624621556
1101.0,0.011753276624621556
1100.0,0.011797899741219142
1099.0,0.011842527443247208
1098.0,0.011887159731648111
1097.0,0.011887159731648111
1096.0,0.011887159731648111
1095.0,0.011842527443247208
1094.0,0.011797899741219142
1093.0,0.011619434777991433
1092.0,0.011351874764248926
1091.0,0.011039929609661936
1090.0,0.01077272626946324
1089.0,0.010550182333308289
1088.0,0.010327752376126709
1087.0,0.010194349063173958
1086.0,0.009972101229705377
1085.0,0.009705553871561357
1084.0,0.00939478857608056
1083.0,0.00908424549391551
1082.0,0.008773924307505121
1081.0,0.00850811108984062
1080.0,0.008286724286910463
1079.0,0.008065450281052211
1078.0,0.007844288957383316
1077.0,0.007667440952535687
1076.0,0.007534852191956709
1075.0,0.0074464821678643656
1074.0,0.0074464821678643656
1073.0,0.0074464821678643656
1072.0,0.007534852191956709
1071.0,0.00762324020119709
1070.0,0.007667440952535687
1069.0,0.007402303897961815
1068.0,0.00696076819309055
1067.0,0.00656376950238835
1066.0,0.006431517210272464
1065.0,0.006651960076740071
1064.0,0.007093181776687496
1063.0,0.0074464821678643656
1062.0,0.007667440952535687
1061.0,0.00762324020119709
1060.0,0.007402303897961815
1059.0,0.007049039429553483
1058.0,0.006784279525863024
1057.0,0.006651960076740071
1056.0,0.006696062080525422
1055.0,0.006740168563263094
1054.0,0.006828394969235152
1053.0,0.006916639301937977
1052.0,0.007004901568658406
1051.0,0.007093181776687496
1050.0,0.007181479933320523
1049.0,0.007181479933320523
1048.0,0.007181479933320523
1047.0,0.007137328610972382
1046.0,0.007181479933320523
1045.0,0.007313960837872058
1044.0,0.0074464821678643656
1043.0,0.007667440952535687
1042.0,0.007844288957383316
1041.0,0.007932739972333236
1040.0,0.008021209005416363
1039.0,0.008153946355103248
1038.0,0.008286724286910463
1037.0,0.00850811108984062
1036.0,0.008818242332126802
1035.0,0.009172949432521227
1034.0,0.009527946474380489
1033.0,0.00974996707218323
1032.0,0.009927665307847056
1031.0,0.01001654169860089
1030.0,0.009883233932095559
1029.0,0.00966114521239847
1028.0,0.009483555971770974
1027.0,0.009616741093766423
1026.0,0.009927665307847056
1025.0,0.010327752376126709
1024.0,0.010550182333308289
1023.0,0.010683695010048622
1022.0,0.010728208358306901
1021.0,0.010728208358306901
1020.0,0.010683695010048622
1019.0,0.010639186223752484
1018.0,0.010639186223752484
1017.0,0.010639186223752484
1016.0,0.010639186223752484
1015.0,0.010728208358306901
1014.0,0.010817248744452446
1013.0,0.010906307389674463
1012.0,0.010950843561779777
1011.0,0.010995384301463185
1010.0,0.011084479487313281
1009.0,0.011129033935354915
1008.0,0.01117359295472431
1007.0,0.011262724711199823
1006.0,0.011307297450183107
1005.0,0.011396456654336085
1004.0,0.011441043121384498
1003.0,0.011485634166333858
1002.0,0.011619434777991433
1001.0,0.011708658092512314
1000.0,0.011708658092512314
999.0,0.011708658092512314
998.0,0.011708658092512314
997.0,0.011708658092512314
996.0,0.011753276624621556
995.0,0.011842527443247208
994.0,0.011887159731648111
993.0,0.011931796607364653
992.0,0.011887159731648111
991.0,0.011931796607364653
990.0,0.011931796607364653
989.0,0.0119764380713403
988.0,0.012021084124518078
987.0,0.012110390002254778
986.0,0.012244383261476699
985.0,0.012333735073725371
984.0,0.012423105273012602
983.0,0.012467797270160563
982.0,0.012467797270160563
981.0,0.012512493866907004
980.0,0.012512493866907004
979.0,0.01260190086298274
978.0,0.012691326268817527
977.0,0.012736045877764557
976.0,0.012780770091995297
975.0,0.012870232340102872
974.0,0.012959713020733288
973.0,0.013049212141483357
972.0,0.013138729709955221
971.0,0.01318349541446362
970.0,0.013273040668781544
969.0,0.013273040668781544
968.0,0.013273040668781544
967.0,0.01322826573375524
966.0,0.01318349541446362
965.0,0.013138729709955221
964.0,0.013049212141483357
963.0,0.013049212141483357
962.0,0.013049212141483357
961.0,0.013049212141483357
960.0,0.013004460275618523
959.0,0.012914970375878188
958.0,0.012870232340102872
957.0,0.012825498912458322
956.0,0.012780770091995297
955.0,0.012736045877764557
954.0,0.012691326268817527
953.0,0.01264661126420652
952.0,0.01260190086298274
951.0,0.012512493866907004
950.0,0.012467797270160563
949.0,0.012378417874516323
948.0,0.012289056869694281
947.0,0.012244383261476699
946.0,0.012244383261476699
945.0,0.012199714248127602
944.0,0.01215504982870197
943.0,0.012110390002254778
942.0,0.012110390002254778
941.0,0.01215504982870197
940.0,0.01215504982870197
939.0,0.012199714248127602
938.0,0.012199714248127602
937.0,0.012199714248127602
936.0,0.01215504982870197
935.0,0.012110390002254778
934.0,0.012065734767841452
933.0,0.012021084124518078
932.0,0.0119764380713403
931.0,0.012021084124518078
930.0,0.012065734767841452
929.0,0.012065734767841452
928.0,0.012065734767841452
927.0,0.012065734767841452
926.0,0.012021084124518078
925.0,0.012021084124518078
924.0,0.0119764380713403
923.0,0.011931796607364653
922.0,0.0119764380713403
921.0,0.0119764380713403
920.0,0.011931796607364653
919.0,0.011931796607364653
918.0,0.011931796607364653
917.0,0.011931796607364653
916.0,0.011931796607364653
915.0,0.011887159731648111
914.0,0.011887159731648111
913.0,0.011842527443247208
912.0,0.011753276624621556
911.0,0.011753276624621556
910.0,0.011753276624621556
909.0,0.011753276624621556
908.0,0.011708658092512314
907.0,0.011619434777991433
906.0,0.011619434777991433
905.0,0.011619434777991433
904.0,0.011574829993696856
903.0,0.011530229790124524
902.0,0.011485634166333858
901.0,0.011396456654336085
900.0,0.011262724711199823
899.0,0.011129033935354915
898.0,0.011084479487313281
897.0,0.011039929609661936
896.0,0.010950843561779777
895.0,0.010906307389674463
894.0,0.010906307389674463
893.0,0.010906307389674463
892.0,0.010995384301463185
891.0,0.01117359295472431
890.0,0.011351874764248926
889.0,0.011485634166333858
888.0,0.011530229790124524
887.0,0.011485634166333858
886.0,0.011441043121384498
885.0,0.011396456654336085
884.0,0.011307297450183107
883.0,0.011307297450183107
882.0,0.011307297450183107
881.0,0.011218156546359825
880.0,0.011129033935354915
879.0,0.011129033935354915
878.0,0.01117359295472431
877.0,0.011262724711199823
876.0,0.011307297450183107
875.0,0.011307297450183107
874.0,0.011351874764248926
873.0,0.011351874764248926
872.0,0.011262724711199823
871.0,0.011129033935354915
870.0,0.011084479487313281
869.0,0.011129033935354915
868.0,0.011218156546359825
867.0,0.011262724711199823
866.0,0.011307297450183107
865.0,0.011307297450183107
864.0,0.011262724711199823
863.0,0.011262724711199823
862.0,0.011396456654336085
861.0,0.011530229790124524
860.0,0.011664044143949504
859.0,0.011708658092512314
858.0,0.011664044143949504
857.0,0.011619434777991433
856.0,0.011664044143949504
855.0,0.011753276624621556
854.0,0.011887159731648111
853.0,0.012021084124518078
852.0,0.012021084124518078
851.0,0.0119764380713403
850.0,0.011842527443247208
849.0,0.011753276624621556
848.0,0.011708658092512314
847.0,0.011797899741219142
846.0,0.011931796607364653
845.0,0.012021084124518078
844.0,0.012021084124518078
843.0,0.011931796607364653
842.0,0.011931796607364653
841.0,0.0119764380713403
840.0,0.012065734767841452
839.0,0.01215504982870197
838.0,0.012199714248127602
837.0,0.012199714248127602
836.0,0.012199714248127602
835.0,0.012199714248127602
834.0,0.012199714248127602
833.0,0.01215504982870197
832.0,0.012065734767841452
831.0,0.0119764380713403
830.0,0.0119764380713403
829.0,0.012021084124518078
828.0,0.012021084124518078
827.0,0.012065734767841452
826.0,0.01215504982870197
825.0,0.012244383261476699
824.0,0.012244383261476699
823.0,0.01215504982870197
822.0,0.01215504982870197
821.0,0.012110390002254778
820.0,0.012110390002254778
819.0,0.012065734767841452
818.0,0.012110390002254778
817.0,0.012110390002254778
816.0,0.012021084124518078
815.0,0.0119764380713403
814.0,0.012021084124518078
813.0,0.012110390002254778
812.0,0.012110390002254778
811.0,0.01215504982870197
810.0,0.01215504982870197
809.0,0.012110390002254778
808.0,0.012065734767841452
807.0,0.0119764380713403
806.0,0.012021084124518078
805.0,0.012065734767841452
804.0,0.012110390002254778
803.0,0.012110390002254778
802.0,0.012065734767841452
801.0,0.012021084124518078
800.0,0.0119764380713403
799.0,0.011931796607364653
798.0,0.011887159731648111
797.0,0.011887159731648111
796.0,0.011931796607364653
795.0,0.011931796607364653
794.0,0.0119764380713403
793.0,0.012021084124518078
792.0,0.012021084124518078
791.0,0.0119764380713403
790.0,0.011931796607364653
789.0,0.011842527443247208
788.0,0.011753276624621556
787.0,0.011708658092512314
786.0,0.011753276624621556
785.0,0.011797899741219142
784.0,0.011797899741219142
783.0,0.011753276624621556
782.0,0.011664044143949504
781.0,0.011664044143949504
780.0,0.011664044143949504
779.0,0.011708658092512314
778.0,0.011797899741219142
777.0,0.011842527443247208
776.0,0.011842527443247208
775.0,0.011797899741219142
774.0,0.011753276624621556
773.0,0.011842527443247208
772.0,0.011931796607364653
771.0,0.011931796607364653
770.0,0.011887159731648111
769.0,0.011753276624621556
768.0,0.011664044143949504
767.0,0.011574829993696856
766.0,0.011574829993696856
765.0,0.011619434777991433
764.0,0.011664044143949504
763.0,0.011753276624621556
762.0,0.011842527443247208
761.0,0.011842527443247208
760.0,0.011708658092512314
759.0,0.011396456654336085
758.0,0.011218156546359825
757.0,0.011218156546359825
756.0,0.011307297450183107
755.0,0.011351874764248926
754.0,0.011396456654336085
753.0,0.011485634166333858
752.0,0.011530229790124524
751.0,0.011441043121384498
750.0,0.011307297450183107
749.0,0.011129033935354915
748.0,0.010995384301463185
747.0,0.010950843561779777
746.0,0.011084479487313281
745.0,0.011307297450183107
744.0,0.011485634166333858
743.0,0.011619434777991433
742.0,0.011753276624621556
741.0,0.012021084124518078
740.0,0.012512493866907004
739.0,0.013362604389846044
738.0,0.014888020460646079
737.0,0.017367005605150476
736.0,0.021773818325474092
735.0,0.029885677714903025
734.0,0.04383156952463674
733.0,0.06414020196211956
732.0,0.0867691288864394
731.0,0.10402526764093545
730.0,0.10896458468468917
729.0,0.10160395406999112
728.0,0.08825662214406838
727.0,0.07587584681417514
726.0,0.06813548650796819
725.0,0.06575411897692884
724.0,0.06859298644342648
723.0,0.07763790321520991
722.0,0.09447395156495153
721.0,0.11787408022996826
720.0,0.14038142122781938
719.0,0.15088783381542248
718.0,0.14496568332411575
717.0,0.1277271537757949
716.0,0.10723776538418317
715.0,0.0884695376928375
714.0,0.0732460948102629
713.0,0.06153031163235467
712.0,0.05281143447390635
711.0,0.04657860031896477
710.0,0.04224908912272074
709.0,0.03910132267333921
708.0,0.036779013477011624
707.0,0.03503362516890207
706.0,0.033482823553208085
705.0,0.03170388495374454
704.0,0.02969962459782227
703.0,0.027612000892527133
702.0,0.02558042614771394
701.0,0.02365002099672653
700.0,0.022093572362881675
699.0,0.021135015652343103
698.0,0.020542681902151694
697.0,0.019996628416253603
696.0,0.01958753839310856
695.0,0.01958753839310856
694.0,0.02013307743509718
693.0,0.020952673052035298
692.0,0.021865152601710403
691.0,0.022688026603074007
690.0,0.02300845469384938
689.0,0.022733787572707387
688.0,0.021910826943857264
687.0,0.0209982515252789
686.0,0.02004210665933459
685.0,0.0190880622231564
684.0,0.01840788278591865
683.0,0.018181392829336396
682.0,0.018045555530026514
681.0,0.017457417697056554
680.0,0.016373712875465518
679.0,0.015427684378367834
678.0,0.015157768594724175
677.0,0.015517693597737248
676.0,0.016058141016111804
675.0,0.016599261819461697
674.0,0.016915227262211507
673.0,0.01677978535189717
672.0,0.016148281008528276
671.0,0.015337693809893471
670.0,0.015067833932588037
669.0,0.016013078034810446
668.0,0.018045555530026514
667.0,0.019178833355664393
666.0,0.018861217359339655
665.0,0.017955020928509757
664.0,0.017231422748988034
663.0,0.016915227262211507
662.0,0.017005545341335804
661.0,0.017186237868137555
660.0,0.017141057687924732
659.0,0.01677978535189717
658.0,0.016238439713835096
657.0,0.015742798294583915
656.0,0.015337693809893471
655.0,0.015112798935672522
654.0,0.014932966849499074
653.0,0.014618439768003144
652.0,0.014304140310157809
651.0,0.014304140310157809
650.0,0.014708281407112
649.0,0.015202742910707112
648.0,0.015517693597737248
647.0,0.015652742414136167
646.0,0.015697768020096703
645.0,0.015562705203923999
644.0,0.01538268676325183
643.0,0.015202742910707112
642.0,0.015292705517326866
641.0,0.015517693597737248
640.0,0.015652742414136167
639.0,0.015562705203923999
638.0,0.015427684378367834
637.0,0.015517693597737248
636.0,0.016238439713835096
635.0,0.017457417697056554
634.0,0.018543833477873584
633.0,0.018861217359339655
632.0,0.018362575344230914
631.0,0.01759307113620534
630.0,0.017050711425501408
629.0,0.01677978535189717
628.0,0.016509028184833463
627.0,0.016148281008528276
626.0,0.015832872853011715
625.0,0.01578783323856614
624.0,0.01596801972881945
623.0,0.01628352608625061
622.0,0.016418813294209356
621.0,0.01628352608625061
620.0,0.016103208673694303
619.0,0.016103208673694303
618.0,0.01628352608625061
617.0,0.01632861713980338
616.0,0.016103208673694303
615.0,0.015697768020096703
614.0,0.015247721884586563
613.0,0.014843078722943437
612.0,0.014663358264387139
611.0,0.015022873584506602
610.0,0.015607721475734415
609.0,0.016058141016111804
608.0,0.016148281008528276
607.0,0.01596801972881945
606.0,0.015832872853011715
605.0,0.015742798294583915
604.0,0.015832872853011715
603.0,0.016238439713835096
602.0,0.016824927962187042
601.0,0.017050711425501408
600.0,0.016689514205884493
