cm-1,A
4000.0,-0.004192356259714369
3999.0,-0.0042353663594676405
3998.0,-0.0042353663594676405
3997.0,-0.004106323279658319
3996.0,-0.0039772418455368275
3995.0,-0.0038481220342978517
3994.0,-0.003762020828246282
3993.0,-0.003675902548784027
3992.0,-0.003675902548784027
3991.0,-0.003675902548784027
3990.0,-0.0037189638231147626
3989.0,-0.003762020828246282
3988.0,-0.003805073565025019
3987.0,-0.003805073565025019
3986.0,-0.003762020828246282
3985.0,-0.003762020828246282
3984.0,-0.003762020828246282
3983.0,-0.0038481220342978517
3982.0,-0.003934206173708432
3981.0,-0.004063300397667113
3980.0,-0.004106323279658319
3979.0,-0.004063300397667113
3978.0,-0.003934206173708432
3977.0,-0.003805073565025019
3976.0,-0.0037189638231147626
3975.0,-0.0037189638231147626
3974.0,-0.0037189638231147626
3973.0,-0.0037189638231147626
3972.0,-0.003675902548784027
3971.0,-0.003632837004408529
3970.0,-0.003632837004408529
3969.0,-0.003675902548784027
3968.0,-0.003805073565025019
3967.0,-0.003891166236910326
3966.0,-0.003934206173708432
3965.0,-0.003934206173708432
3964.0,-0.0039772418455368275
3963.0,-0.0039772418455368275
3962.0,-0.0039772418455368275
3961.0,-0.0039772418455368275
3960.0,-0.0039772418455368275
3959.0,-0.0039772418455368275
3958.0,-0.003891166236910326
3957.0,-0.003805073565025019
3956.0,-0.003675902548784027
3955.0,-0.003632837004408529
3954.0,-0.003675902548784027
3953.0,-0.003805073565025019
3952.0,-0.003891166236910326
3951.0,-0.0039772418455368275
3950.0,-0.003934206173708432
3949.0,-0.0038481220342978517
3948.0,-0.003805073565025019
3947.0,-0.0037189638231147626
3946.0,-0.003675902548784027
3945.0,-0.003675902548784027
3944.0,-0.003675902548784027
3943.0,-0.0037189638231147626
3942.0,-0.003675902548784027
3941.0,-0.003632837004408529
3940.0,-0.0035897671891400584
3939.0,-0.0035897671891400584
3938.0,-0.0035897671891400584
3937.0,-0.003632837004408529
3936.0,-0.003675902548784027
3935.0,-0.0037189638231147626
3934.0,-0.003805073565025019
3933.0,-0.003934206173708432
3932.0,-0.004020273253241502
3931.0,-0.0039772418455368275
3930.0,-0.0038481220342978517
3929.0,-0.003675902548784027
3928.0,-0.003546693102131737
3927.0,-0.003503614742536687
3926.0,-0.003503614742536687
3925.0,-0.0035897671891400584
3924.0,-0.003632837004408529
3923.0,-0.0035897671891400584
3922.0,-0.003546693102131737
3921.0,-0.003503614742536687
3920.0,-0.0034605321095062536
3919.0,-0.0034605321095062536
3918.0,-0.003546693102131737
3917.0,-0.003632837004408529
3916.0,-0.0037189638231147626
3915.0,-0.003762020828246282
3914.0,-0.003762020828246282
3913.0,-0.0037189638231147626
3912.0,-0.003675902548784027
3911.0,-0.003675902548784027
3910.0,-0.003675902548784027
3909.0,-0.003675902548784027
3908.0,-0.003675902548784027
3907.0,-0.003632837004408529
3906.0,-0.003675902548784027
3905.0,-0.003675902548784027
3904.0,-0.003675902548784027
3903.0,-0.003675902548784027
3902.0,-0.003632837004408529
3901.0,-0.0035897671891400584
3900.0,-0.0035897671891400584
3899.0,-0.003546693102131737
3898.0,-0.003503614742536687
3897.0,-0.003546693102131737
3896.0,-0.0035897671891400584
3895.0,-0.0035897671891400584
3894.0,-0.003632837004408529
3893.0,-0.003675902548784027
3892.0,-0.003805073565025019
3891.0,-0.003934206173708432
3890.0,-0.003934206173708432
3889.0,-0.0038481220342978517
3888.0,-0.003762020828246282
3887.0,-0.003762020828246282
3886.0,-0.003934206173708432
3885.0,-0.004063300397667113
3884.0,-0.004106323279658319
3883.0,-0.004106323279658319
3882.0,-0.004106323279658319
3881.0,-0.004063300397667113
3880.0,-0.0039772418455368275
3879.0,-0.003934206173708432
3878.0,-0.003891166236910326
3877.0,-0.0038481220342978517
3876.0,-0.003891166236910326
3875.0,-0.003891166236910326
3874.0,-0.0038481220342978517
3873.0,-0.003762020828246282
3872.0,-0.003675902548784027
3871.0,-0.003632837004408529
3870.0,-0.003675902548784027
3869.0,-0.003632837004408529
3868.0,-0.003546693102131737
3867.0,-0.0034605321095062536
3866.0,-0.0034174452021935586
3865.0,-0.0034605321095062536
3864.0,-0.003503614742536687
3863.0,-0.0035897671891400584
3862.0,-0.003632837004408529
3861.0,-0.003632837004408529
3860.0,-0.0035897671891400584
3859.0,-0.0035897671891400584
3858.0,-0.003632837004408529
3857.0,-0.003632837004408529
3856.0,-0.003675902548784027
3855.0,-0.003762020828246282
3854.0,-0.0038481220342978517
3853.0,-0.0038481220342978517
3852.0,-0.0038481220342978517
3851.0,-0.003805073565025019
3850.0,-0.0038481220342978517
3849.0,-0.003891166236910326
3848.0,-0.003934206173708432
3847.0,-0.0039772418455368275
3846.0,-0.003934206173708432
3845.0,-0.003891166236910326
3844.0,-0.003805073565025019
3843.0,-0.003805073565025019
3842.0,-0.003805073565025019
3841.0,-0.0038481220342978517
3840.0,-0.0038481220342978517
3839.0,-0.003891166236910326
3838.0,-0.0039772418455368275
3837.0,-0.004106323279658319
3836.0,-0.004192356259714369
3835.0,-0.0042353663594676405
3834.0,-0.004192356259714369
3833.0,-0.004149341900058889
3832.0,-0.004192356259714369
3831.0,-0.0042353663594676405
3830.0,-0.004321373782642635
3829.0,-0.004407364176330919
3828.0,-0.004407364176330919
3827.0,-0.004407364176330919
3826.0,-0.004321373782642635
3825.0,-0.0042353663594676405
3824.0,-0.004106323279658319
3823.0,-0.004020273253241502
3822.0,-0.003934206173708432
3821.0,-0.003891166236910326
3820.0,-0.003805073565025019
3819.0,-0.003675902548784027
3818.0,-0.003632837004408529
3817.0,-0.003632837004408529
3816.0,-0.0037189638231147626
3815.0,-0.0037189638231147626
3814.0,-0.0037189638231147626
3813.0,-0.003762020828246282
3812.0,-0.003891166236910326
3811.0,-0.0039772418455368275
3810.0,-0.004063300397667113
3809.0,-0.004106323279658319
3808.0,-0.004192356259714369
3807.0,-0.0042783722001624724
3806.0,-0.004321373782642635
3805.0,-0.004321373782642635
3804.0,-0.0042783722001624724
3803.0,-0.004321373782642635
3802.0,-0.0042783722001624724
3801.0,-0.004149341900058889
3800.0,-0.0039772418455368275
3799.0,-0.0038481220342978517
3798.0,-0.003805073565025019
3797.0,-0.0038481220342978517
3796.0,-0.003891166236910326
3795.0,-0.0038481220342978517
3794.0,-0.003762020828246282
3793.0,-0.003675902548784027
3792.0,-0.0035897671891400584
3791.0,-0.003546693102131737
3790.0,-0.003546693102131737
3789.0,-0.003546693102131737
3788.0,-0.0035897671891400584
3787.0,-0.003632837004408529
3786.0,-0.003675902548784027
3785.0,-0.0037189638231147626
3784.0,-0.0037189638231147626
3783.0,-0.0037189638231147626
3782.0,-0.0037189638231147626
3781.0,-0.003762020828246282
3780.0,-0.003805073565025019
3779.0,-0.0038481220342978517
3778.0,-0.0038481220342978517
3777.0,-0.0038481220342978517
3776.0,-0.003805073565025019
3775.0,-0.003805073565025019
3774.0,-0.003805073565025019
3773.0,-0.003762020828246282
3772.0,-0.003675902548784027
3771.0,-0.003546693102131737
3770.0,-0.0034605321095062536
3769.0,-0.0034174452021935586
3768.0,-0.003503614742536687
3767.0,-0.003675902548784027
3766.0,-0.0038481220342978517
3765.0,-0.003891166236910326
3764.0,-0.0038481220342978517
3763.0,-0.003762020828246282
3762.0,-0.003762020828246282
3761.0,-0.0038481220342978517
3760.0,-0.003934206173708432
3759.0,-0.004020273253241502
3758.0,-0.004063300397667113
3757.0,-0.004063300397667113
3756.0,-0.004020273253241502
3755.0,-0.003934206173708432
3754.0,-0.003805073565025019
3753.0,-0.003675902548784027
3752.0,-0.003503614742536687
3751.0,-0.0034174452021935586
3750.0,-0.0034605321095062536
3749.0,-0.003546693102131737
3748.0,-0.003546693102131737
3747.0,-0.0033743540197499478
3746.0,-0.0032450548131470747
3745.0,-0.0033312585613267665
3744.0,-0.003503614742536687
3743.0,-0.003675902548784027
3742.0,-0.003762020828246282
3741.0,-0.003805073565025019
3740.0,-0.003762020828246282
3739.0,-0.003632837004408529
3738.0,-0.003503614742536687
3737.0,-0.003503614742536687
3736.0,-0.003632837004408529
3735.0,-0.003762020828246282
3734.0,-0.0038481220342978517
3733.0,-0.0038481220342978517
3732.0,-0.003762020828246282
3731.0,-0.003675902548784027
3730.0,-0.0035897671891400584
3729.0,-0.003546693102131737
3728.0,-0.0035897671891400584
3727.0,-0.0035897671891400584
3726.0,-0.003546693102131737
3725.0,-0.0034605321095062536
3724.0,-0.0034605321095062536
3723.0,-0.0034605321095062536
3722.0,-0.003503614742536687
3721.0,-0.003503614742536687
3720.0,-0.003503614742536687
3719.0,-0.003546693102131737
3718.0,-0.0035897671891400584
3717.0,-0.003632837004408529
3716.0,-0.0035897671891400584
3715.0,-0.0035897671891400584
3714.0,-0.003632837004408529
3713.0,-0.003675902548784027
3712.0,-0.003762020828246282
3711.0,-0.0038481220342978517
3710.0,-0.003891166236910326
3709.0,-0.003934206173708432
3708.0,-0.0039772418455368275
3707.0,-0.003934206173708432
3706.0,-0.003891166236910326
3705.0,-0.003805073565025019
3704.0,-0.0037189638231147626
3703.0,-0.003675902548784027
3702.0,-0.003632837004408529
3701.0,-0.0035897671891400584
3700.0,-0.003503614742536687
3699.0,-0.0033743540197499478
3698.0,-0.0033312585613267665
3697.0,-0.0032881588260753603
3696.0,-0.0032881588260753603
3695.0,-0.0033312585613267665
3694.0,-0.0034174452021935586
3693.0,-0.003503614742536687
3692.0,-0.0035897671891400584
3691.0,-0.0035897671891400584
3690.0,-0.0034605321095062536
3689.0,-0.0033743540197499478
3688.0,-0.0033312585613267665
3687.0,-0.0033312585613267665
3686.0,-0.0033312585613267665
3685.0,-0.0033312585613267665
3684.0,-0.0033312585613267665
3683.0,-0.0033312585613267665
3682.0,-0.0033743540197499478
3681.0,-0.0034605321095062536
3680.0,-0.0035897671891400584
3679.0,-0.003632837004408529
3678.0,-0.0035897671891400584
3677.0,-0.0035897671891400584
3676.0,-0.003546693102131737
3675.0,-0.0034605321095062536
3674.0,-0.0033312585613267665
3673.0,-0.003201946521692367
3672.0,-0.003115717099805959
3671.0,-0.0029863408567849525
3670.0,-0.0028137792246734072
3669.0,-0.0026411490000399773
3668.0,-0.002597980719908577
3667.0,-0.002684312989729598
3666.0,-0.0028137792246734072
3665.0,-0.003029470553618019
3664.0,-0.003158833950862139
3663.0,-0.0032450548131470747
3662.0,-0.003201946521692367
3661.0,-0.0030725959676747294
3660.0,-0.0029863408567849525
3659.0,-0.002856926061120646
3658.0,-0.0028137792246734072
3657.0,-0.0027706281011936618
3656.0,-0.002684312989729598
3655.0,-0.002684312989729598
3654.0,-0.0026411490000399773
3653.0,-0.0026411490000399773
3652.0,-0.002684312989729598
3651.0,-0.002597980719908577
3650.0,-0.0024252646779014952
3649.0,-0.0022092729880145434
3648.0,-0.0021228462251614566
3647.0,-0.0022092729880145434
3646.0,-0.0022956825549340643
3645.0,-0.0023820749327607693
3644.0,-0.0024684501283323
3643.0,-0.0025116312849080558
3642.0,-0.0024252646779014952
3641.0,-0.002338880892056583
3640.0,-0.0022524799205383417
3639.0,-0.0022956825549340643
3638.0,-0.0023820749327607693
3637.0,-0.0024252646779014952
3636.0,-0.0023820749327607693
3635.0,-0.002338880892056583
3634.0,-0.002338880892056583
3633.0,-0.0023820749327607693
3632.0,-0.0023820749327607693
3631.0,-0.0023820749327607693
3630.0,-0.0023820749327607693
3629.0,-0.0022092729880145434
3628.0,-0.0019499410842680476
3627.0,-0.0018202170383281313
3626.0,-0.001733712809000476
3625.0,-0.0018202170383281313
3624.0,-0.0019067040408846658
3623.0,-0.0020796263931210923
3622.0,-0.0022092729880145434
3621.0,-0.0022956825549340643
3620.0,-0.0022524799205383417
3619.0,-0.0020364022595291686
3618.0,-0.0018202170383281313
3617.0,-0.0016904542321527494
3616.0,-0.0016471913460383014
3615.0,-0.0016904542321527494
3614.0,-0.001776967077439462
3613.0,-0.001733712809000476
3612.0,-0.0015173768235041685
3611.0,-0.001257631312230778
3610.0,-0.001041057986093552
3609.0,-0.0009110621312231615
3608.0,-0.0009110621312231615
3607.0,-0.0009977303577937136
3606.0,-0.001041057986093552
3605.0,-0.0010843812922201046
3604.0,-0.0010843812922201046
3603.0,-0.0010843812922201046
3602.0,-0.0010843812922201046
3601.0,-0.001041057986093552
3600.0,-0.0009543984064577238
3599.0,-0.0008677215312267172
3598.0,-0.0007810273534953893
3597.0,-0.0007810273534953893
3596.0,-0.0007810273534953893
3595.0,-0.0007376737740329986
3594.0,-0.0007376737740329986
3593.0,-0.0007376737740329986
3592.0,-0.0007376737740329986
3591.0,-0.0006509536295951079
3590.0,-0.0006075870628903246
3589.0,-0.0005208409361854294
3588.0,-0.0003906892499099257
3587.0,-0.0002604985473904087
3586.0,-8.685021164911433e-05
3585.0,0.0001303078917322953
3584.0,0.00026065489343207737
3583.0,0.00030411258916074324
3582.0,0.0003475746339209884
3581.0,0.00030411258916074324
3580.0,0.00030411258916074324
3579.0,0.00026065489343207737
3578.0,0.00026065489343207737
3577.0,0.00030411258916074324
3576.0,0.00043451177401765406
3575.0,0.0006084382809090627
3574.0,0.0007824344698965646
3573.0,0.000869458712629001
3572.0,0.0008259444115150671
3571.0,0.0007389288868995258
3570.0,0.0007389288868995258
3569.0,0.000869458712629001
3568.0,0.0011306361176557367
3567.0,0.001304841688344327
3566.0,0.001304841688344327
3565.0,0.0011741809597138886
3564.0,0.0010870956412141197
3563.0,0.0010870956412141197
3562.0,0.0011741809597138886
3561.0,0.001304841688344327
3560.0,0.0013919706849057079
3559.0,0.0013919706849057079
3558.0,0.001348404001626502
3557.0,0.0012612837441823288
3556.0,0.0012177301682640973
3555.0,0.001304841688344327
3554.0,0.0013919706849057079
3553.0,0.0015226969634936083
3552.0,0.0015662811355310335
3551.0,0.0015226969634936083
3550.0,0.0014791171649619628
3549.0,0.0013919706849057079
3548.0,0.0014355417390583547
3547.0,0.001609869681952425
3546.0,0.0018714928717336043
3545.0,0.0020023635919956817
3544.0,0.002089632653256679
3543.0,0.0020459959305969555
3542.0,0.0019587356365717845
3541.0,0.0019587356365717845
3540.0,0.0020023635919956817
3539.0,0.0021332737608552588
3538.0,0.0022205691343961664
3537.0,0.0022642234021015284
3536.0,0.0022205691343961664
3535.0,0.0022205691343961664
3534.0,0.0023078820582733695
3533.0,0.0024388843664115978
3532.0,0.0025262411970197185
3531.0,0.002613615602686581
3530.0,0.002701007590486082
3529.0,0.0028321285541661467
3528.0,0.0029632891174733444
3527.0,0.0031382315093266833
3526.0,0.0032257291386954545
3525.0,0.0032257291386954545
3524.0,0.0031382315093266833
3523.0,0.0030070181092942683
3522.0,0.0029632891174733444
3521.0,0.0029632891174733444
3520.0,0.003050751504618754
3519.0,0.0032257291386954545
3518.0,0.0033570086445275926
3517.0,0.0034445503666347133
3516.0,0.0034445503666347133
3515.0,0.0034445503666347133
3514.0,0.003488327845821315
3513.0,0.003619686766589858
3512.0,0.0038387066319929275
3511.0,0.003926345514724705
3510.0,0.0038825238627120395
3509.0,0.003707281458678491
3508.0,0.0035321097382827737
3507.0,0.003488327845821315
3506.0,0.003488327845821315
3505.0,0.0035758960449088217
3504.0,0.003619686766589858
3503.0,0.003707281458678491
3502.0,0.003707281458678491
3501.0,0.003619686766589858
3500.0,0.0035758960449088217
3499.0,0.0035321097382827737
3498.0,0.0035758960449088217
3497.0,0.003707281458678491
3496.0,0.0038825238627120395
3495.0,0.004101676353562844
3494.0,0.004233220950025984
3493.0,0.004320939488377862
3492.0,0.004320939488377862
3491.0,0.004277078004534696
3490.0,0.004277078004534696
3489.0,0.004277078004534696
3488.0,0.004277078004534696
3487.0,0.004320939488377862
3486.0,0.004277078004534696
3485.0,0.004189368323957332
3484.0,0.004101676353562844
3483.0,0.004101676353562844
3482.0,0.004145520125434121
3481.0,0.004320939488377862
3480.0,0.004452550524862486
3479.0,0.004540313378935901
3478.0,0.004540313378935901
3477.0,0.004452550524862486
3476.0,0.0043648054024501
3475.0,0.004233220950025984
3474.0,0.004233220950025984
3473.0,0.004320939488377862
3472.0,0.0044964297349936455
3471.0,0.004628093971837721
3470.0,0.004628093971837721
3469.0,0.004540313378935901
3468.0,0.004452550524862486
3467.0,0.0044964297349936455
3466.0,0.004628093971837721
3465.0,0.00484762310854614
3464.0,0.005067263269958211
3463.0,0.005199100705396198
3462.0,0.005199100705396198
3461.0,0.005155150446602086
3460.0,0.005067263269958211
3459.0,0.005023326350308999
3458.0,0.005067263269958211
3457.0,0.005243055412371911
3456.0,0.00541891874010525
3455.0,0.005550862985963967
3454.0,0.005506877116487674
3453.0,0.00537494623139545
3452.0,0.005199100705396198
3451.0,0.005155150446602086
3450.0,0.005199100705396198
3449.0,0.005330978174470591
3448.0,0.005462895701502157
3447.0,0.005506877116487674
3446.0,0.005550862985963967
3445.0,0.005462895701502157
3444.0,0.005330978174470591
3443.0,0.005243055412371911
3442.0,0.005155150446602086
3441.0,0.005199100705396198
3440.0,0.0052870145684298375
3439.0,0.00541891874010525
3438.0,0.005506877116487674
3437.0,0.005550862985963967
3436.0,0.005594853310833647
3435.0,0.005638848091999105
3434.0,0.005726851026829571
3433.0,0.005814871797682919
3432.0,0.00590291041179003
3431.0,0.005946936412324799
3430.0,0.006035001804881146
3429.0,0.006079041198713275
3428.0,0.00612308505878878
3427.0,0.006079041198713275
3426.0,0.005990966876386672
3425.0,0.005946936412324799
3424.0,0.005946936412324799
3423.0,0.005990966876386672
3422.0,0.006079041198713275
3421.0,0.00621118618129457
3420.0,0.006299305179649828
3419.0,0.006387442061109638
3418.0,0.006431517210272464
3417.0,0.006431517210272464
3416.0,0.006431517210272464
3415.0,0.006431517210272464
3414.0,0.006387442061109638
3413.0,0.006387442061109638
3412.0,0.006343371384537999
3411.0,0.006387442061109638
3410.0,0.006519680930003435
3409.0,0.006651960076740071
3408.0,0.006828394969235152
3407.0,0.00696076819309055
3406.0,0.007049039429553483
3405.0,0.007093181776687496
3404.0,0.007093181776687496
3403.0,0.007093181776687496
3402.0,0.007093181776687496
3401.0,0.007093181776687496
3400.0,0.007093181776687496
3399.0,0.007049039429553483
3398.0,0.007093181776687496
3397.0,0.007181479933320523
3396.0,0.007313960837872058
3395.0,0.0074464821678643656
3394.0,0.007534852191956709
3393.0,0.00762324020119709
3392.0,0.007755855953228474
3391.0,0.007844288957383316
3390.0,0.007932739972333236
3389.0,0.007976972236149349
3388.0,0.008021209005416363
3387.0,0.008021209005416363
3386.0,0.007932739972333236
3385.0,0.007711646202907652
3384.0,0.007534852191956709
3383.0,0.007490664932224611
3382.0,0.0075790439479759275
3381.0,0.007711646202907652
3380.0,0.007711646202907652
3379.0,0.007667440952535687
3378.0,0.0075790439479759275
3377.0,0.007534852191956709
3376.0,0.007534852191956709
3375.0,0.00762324020119709
3374.0,0.007711646202907652
3373.0,0.007844288957383316
3372.0,0.007932739972333236
3371.0,0.008021209005416363
3370.0,0.008021209005416363
3369.0,0.007976972236149349
3368.0,0.007888512213050314
3367.0,0.007844288957383316
3366.0,0.007844288957383316
3365.0,0.007844288957383316
3364.0,0.007888512213050314
3363.0,0.007932739972333236
3362.0,0.007932739972333236
3361.0,0.007888512213050314
3360.0,0.007755855953228474
3359.0,0.007667440952535687
3358.0,0.007667440952535687
3357.0,0.007755855953228474
3356.0,0.007844288957383316
3355.0,0.007932739972333236
3354.0,0.007976972236149349
3353.0,0.008021209005416363
3352.0,0.008021209005416363
3351.0,0.007976972236149349
3350.0,0.007888512213050314
3349.0,0.007755855953228474
3348.0,0.007711646202907652
3347.0,0.007711646202907652
3346.0,0.007755855953228474
3345.0,0.007711646202907652
3344.0,0.007667440952535687
3343.0,0.0075790439479759275
3342.0,0.007534852191956709
3341.0,0.007402303897961815
3340.0,0.007181479933320523
3339.0,0.00696076819309055
3338.0,0.006784279525863024
3337.0,0.006784279525863024
3336.0,0.006872514894289861
3335.0,0.007049039429553483
3334.0,0.007181479933320523
3333.0,0.007269796045857202
3332.0,0.007269796045857202
3331.0,0.007137328610972382
3330.0,0.006916639301937977
3329.0,0.006740168563263094
3328.0,0.00656376950238835
3327.0,0.006519680930003435
3326.0,0.006519680930003435
3325.0,0.006607862550997545
3324.0,0.006651960076740071
3323.0,0.006607862550997545
3322.0,0.006431517210272464
3321.0,0.00625524344553785
3320.0,0.00612308505878878
3319.0,0.006035001804881146
3318.0,0.006035001804881146
3317.0,0.005990966876386672
3316.0,0.005946936412324799
3315.0,0.00590291041179003
3314.0,0.005946936412324799
3313.0,0.005990966876386672
3312.0,0.006035001804881146
3311.0,0.005946936412324799
3310.0,0.00577085918230158
3309.0,0.005550862985963967
3308.0,0.00541891874010525
3307.0,0.005462895701502157
3306.0,0.005594853310833647
3305.0,0.00577085918230158
3304.0,0.005858888873877532
3303.0,0.005814871797682919
3302.0,0.005682847330363394
3301.0,0.005594853310833647
3300.0,0.005638848091999105
3299.0,0.005726851026829571
3298.0,0.005682847330363394
3297.0,0.005506877116487674
3296.0,0.005199100705396198
3295.0,0.005023326350308999
3294.0,0.004935465843858511
3293.0,0.004979393875242044
3292.0,0.004979393875242044
3291.0,0.004935465843858511
3290.0,0.004935465843858511
3289.0,0.004979393875242044
3288.0,0.005067263269958211
3287.0,0.005111204635089406
3286.0,0.005111204635089406
3285.0,0.004979393875242044
3284.0,0.00489154225525934
3283.0,0.004803708402820517
3282.0,0.00484762310854614
3281.0,0.00489154225525934
3280.0,0.00484762310854614
3279.0,0.004715892310740433
3278.0,0.004540313378935901
3277.0,0.004320939488377862
3276.0,0.004145520125434121
3275.0,0.004101676353562844
3274.0,0.0040578370074493275
3273.0,0.00401400208620073
3272.0,0.003970171588923321
3271.0,0.003970171588923321
3270.0,0.003970171588923321
3269.0,0.003970171588923321
3268.0,0.003970171588923321
3267.0,0.003926345514724705
3266.0,0.003970171588923321
3265.0,0.0040578370074493275
3264.0,0.004145520125434121
3263.0,0.004145520125434121
3262.0,0.0040578370074493275
3261.0,0.003926345514724705
3260.0,0.003794893821675638
3259.0,0.0037510854308679953
3258.0,0.0038387066319929275
3257.0,0.003970171588923321
3256.0,0.004101676353562844
3255.0,0.004145520125434121
3254.0,0.004145520125434121
3253.0,0.0040578370074493275
3252.0,0.00401400208620073
3251.0,0.003970171588923321
3250.0,0.003926345514724705
3249.0,0.00401400208620073
3248.0,0.004101676353562844
3247.0,0.004233220950025984
3246.0,0.0043648054024501
3245.0,0.004452550524862486
3244.0,0.0044964297349936455
3243.0,0.0044964297349936455
3242.0,0.004408675747646695
3241.0,0.004277078004534696
3240.0,0.004145520125434121
3239.0,0.0040578370074493275
3238.0,0.004101676353562844
3237.0,0.004145520125434121
3236.0,0.004145520125434121
3235.0,0.0040578370074493275
3234.0,0.003970171588923321
3233.0,0.00401400208620073
3232.0,0.004189368323957332
3231.0,0.0043648054024501
3230.0,0.0043648054024501
3229.0,0.004189368323957332
3228.0,0.003970171588923321
3227.0,0.0037510854308679953
3226.0,0.0036634819042162814
3225.0,0.003619686766589858
3224.0,0.0035758960449088217
3223.0,0.003488327845821315
3222.0,0.0033132443998284966
3221.0,0.0031382315093266833
3220.0,0.0030944893043338695
3219.0,0.0030944893043338695
3218.0,0.0031382315093266833
3217.0,0.0031819781204844855
3216.0,0.0031819781204844855
3215.0,0.0031382315093266833
3214.0,0.0030944893043338695
3213.0,0.003050751504618754
3212.0,0.003050751504618754
3211.0,0.0030070181092942683
3210.0,0.0029632891174733444
3209.0,0.0029195645282691363
3208.0,0.0028758443407954637
3207.0,0.0028758443407954637
3206.0,0.0028321285541661467
3205.0,0.0028321285541661467
3204.0,0.0028758443407954637
3203.0,0.0029195645282691363
3202.0,0.0029632891174733444
3201.0,0.0029632891174733444
3200.0,0.0029632891174733444
3199.0,0.0028758443407954637
3198.0,0.0027884171674950053
3197.0,0.002613615602686581
3196.0,0.0024388843664115978
3195.0,0.0022642234021015284
3194.0,0.0022205691343961664
3193.0,0.0022205691343961664
3192.0,0.0023078820582733695
3191.0,0.002351545103793873
3190.0,0.0023078820582733695
3189.0,0.0022642234021015284
3188.0,0.0021769192542746563
3187.0,0.0021332737608552588
3186.0,0.002089632653256679
3185.0,0.0021332737608552588
3184.0,0.0021769192542746563
3183.0,0.0021769192542746563
3182.0,0.002089632653256679
3181.0,0.0020023635919956817
3180.0,0.0019587356365717845
3179.0,0.0020023635919956817
3178.0,0.002089632653256679
3177.0,0.0021332737608552588
3176.0,0.002089632653256679
3175.0,0.0020459959305969555
3174.0,0.0019587356365717845
3173.0,0.0018714928717336043
3172.0,0.0018278780605593958
3171.0,0.0017406615763013722
3170.0,0.0016534626036355249
3169.0,0.001609869681952425
3168.0,0.0015226969634936083
3167.0,0.0014791171649619628
3166.0,0.0014791171649619628
3165.0,0.0014791171649619628
3164.0,0.0015226969634936083
3163.0,0.0015662811355310335
3162.0,0.0015662811355310335
3161.0,0.001609869681952425
3160.0,0.0015662811355310335
3159.0,0.0015226969634936083
3158.0,0.0013919706849057079
3157.0,0.0012612837441823288
3156.0,0.0012177301682640973
3155.0,0.0012177301682640973
3154.0,0.0012177301682640973
3153.0,0.0011741809597138886
3152.0,0.0010870956412141197
3151.0,0.0010435595295137379
3150.0,0.0011306361176557367
3149.0,0.0012612837441823288
3148.0,0.001304841688344327
3147.0,0.0012612837441823288
3146.0,0.0010870956412141197
3145.0,0.0009129773741116676
3144.0,0.0007824344698965646
3143.0,0.0006954276616513155
3142.0,0.0006084382809090627
3141.0,0.0005649501236701937
3140.0,0.0005649501236701937
3139.0,0.0006084382809090627
3138.0,0.0006954276616513155
3137.0,0.0007389288868995258
3136.0,0.0006954276616513155
3135.0,0.000521466320689834
3134.0,0.00030411258916074324
3133.0,0.00017375254558760211
3132.0,0.00021720154586435392
3131.0,0.00030411258916074324
3130.0,0.00043451177401765406
3129.0,0.000521466320689834
3128.0,0.0006084382809090627
3127.0,0.0006519307932786322
3126.0,0.0006954276616513155
3125.0,0.0006519307932786322
3124.0,0.0005649501236701937
3123.0,0.00043451177401765406
3122.0,0.00030411258916074324
3121.0,0.00017375254558760211
3120.0,8.686758342868472e-05
3119.0,4.343161980746579e-05
3118.0,8.686758342868472e-05
3117.0,0.0001303078917322953
3116.0,0.00017375254558760211
3115.0,0.00017375254558760211
3114.0,0.00017375254558760211
3113.0,0.00026065489343207737
3112.0,0.0003475746339209884
3111.0,0.00043451177401765406
3110.0,0.00043451177401765406
3109.0,0.0003475746339209884
3108.0,0.00026065489343207737
3107.0,0.0001303078917322953
3106.0,0.0
3105.0,-0.00013026880522692963
3104.0,-0.00021709297223004853
3103.0,-0.0002604985473904087
3102.0,-0.00021709297223004853
3101.0,-0.00013026880522692963
3100.0,-4.3427276862573194e-05
3099.0,0.0
3098.0,0.0
3097.0,-8.685021164911433e-05
3096.0,-0.00017368305846510168
3095.0,-0.0002604985473904087
3094.0,-0.00021709297223004853
3093.0,-0.00013026880522692963
3092.0,-4.3427276862573194e-05
3091.0,0.0
3090.0,-4.3427276862573194e-05
3089.0,-0.00013026880522692963
3088.0,-0.00017368305846510168
3087.0,-0.00017368305846510168
3086.0,-0.00017368305846510168
3085.0,-0.00017368305846510168
3084.0,-0.00013026880522692963
3083.0,-4.3427276862573194e-05
3082.0,-4.3427276862573194e-05
3081.0,-8.685021164911433e-05
3080.0,-0.00021709297223004853
3079.0,-0.0003906892499099257
3078.0,-0.0004774613744551459
3077.0,-0.0005208409361854294
3076.0,-0.0004774613744551459
3075.0,-0.00043407747931878404
3074.0,-0.0003906892499099257
3073.0,-0.00043407747931878404
3072.0,-0.0004774613744551459
3071.0,-0.0006075870628903246
3070.0,-0.0006943158663546001
3069.0,-0.0007376737740329986
3068.0,-0.0007376737740329986
3067.0,-0.0007810273534953893
3066.0,-0.0008243766056055257
3065.0,-0.0008243766056055257
3064.0,-0.0008243766056055257
3063.0,-0.0007810273534953893
3062.0,-0.0007810273534953893
3061.0,-0.0007810273534953893
3060.0,-0.0008243766056055257
3059.0,-0.0008677215312267172
3058.0,-0.0008677215312267172
3057.0,-0.0007810273534953893
3056.0,-0.0006943158663546001
3055.0,-0.0006509536295951079
3054.0,-0.0006075870628903246
3053.0,-0.0006075870628903246
3052.0,-0.0006075870628903246
3051.0,-0.0006509536295951079
3050.0,-0.0007810273534953893
3049.0,-0.0008677215312267172
3048.0,-0.0009543984064577238
3047.0,-0.0009543984064577238
3046.0,-0.0009110621312231615
3045.0,-0.0008243766056055257
3044.0,-0.0008243766056055257
3043.0,-0.0008677215312267172
3042.0,-0.0009110621312231615
3041.0,-0.0009543984064577238
3040.0,-0.0009110621312231615
3039.0,-0.0008677215312267172
3038.0,-0.0008243766056055257
3037.0,-0.0007810273534953893
3036.0,-0.0007810273534953893
3035.0,-0.0008243766056055257
3034.0,-0.0009110621312231615
3033.0,-0.0009110621312231615
3032.0,-0.0008677215312267172
3031.0,-0.0007376737740329986
3030.0,-0.0006509536295951079
3029.0,-0.0005642161653756084
3028.0,-0.0006075870628903246
3027.0,-0.0006509536295951079
3026.0,-0.0006509536295951079
3025.0,-0.0005642161653756084
3024.0,-0.00043407747931878404
3023.0,-0.00030389978481260016
3022.0,-0.00021709297223004853
3021.0,-8.685021164911433e-05
3020.0,4.343161980746579e-05
3019.0,0.00021720154586435392
3018.0,0.0003475746339209884
3017.0,0.00043451177401765406
3016.0,0.000521466320689834
3015.0,0.0005649501236701937
3014.0,0.0006954276616513155
3013.0,0.0008259444115150671
3012.0,0.0010000277816797354
3011.0,0.0011741809597138886
3010.0,0.0013919706849057079
3009.0,0.001609869681952425
3008.0,0.0018278780605593958
3007.0,0.0020459959305969555
3006.0,0.0023078820582733695
3005.0,0.002569926202528716
3004.0,0.0029195645282691363
3003.0,0.0032257291386954545
3002.0,0.003488327845821315
3001.0,0.003707281458678491
3000.0,0.003926345514724705
2999.0,0.004101676353562844
2998.0,0.004233220950025984
2997.0,0.004320939488377862
2996.0,0.004408675747646695
2995.0,0.004452550524862486
2994.0,0.004408675747646695
2993.0,0.004233220950025984
2992.0,0.003970171588923321
2991.0,0.0035321097382827737
2990.0,0.0031382315093266833
2989.0,0.0027447101798967477
2988.0,0.002482560585275184
2987.0,0.0022642234021015284
2986.0,0.0020459959305969555
2985.0,0.0018278780605593958
2984.0,0.001609869681952425
2983.0,0.0014355417390583547
2982.0,0.0012612837441823288
2981.0,0.0011741809597138886
2980.0,0.0010870956412141197
2979.0,0.0010435595295137379
2978.0,0.0009565003968372565
2977.0,0.000869458712629001
2976.0,0.0007824344698965646
2975.0,0.0007389288868995258
2974.0,0.0007389288868995258
2973.0,0.0006954276616513155
2972.0,0.0006519307932786322
2971.0,0.0006954276616513155
2970.0,0.0007389288868995258
2969.0,0.0008259444115150671
2968.0,0.0008259444115150671
2967.0,0.0008259444115150671
2966.0,0.0007389288868995258
2965.0,0.0007389288868995258
2964.0,0.0006954276616513155
2963.0,0.0007824344698965646
2962.0,0.000869458712629001
2961.0,0.0010000277816797354
2960.0,0.0011741809597138886
2959.0,0.001304841688344327
2958.0,0.0013919706849057079
2957.0,0.0014355417390583547
2956.0,0.0015226969634936083
2955.0,0.0016534626036355249
2954.0,0.0017842676290416026
2953.0,0.0020023635919956817
2952.0,0.0023078820582733695
2951.0,0.002569926202528716
2950.0,0.0027884171674950053
2949.0,0.0029195645282691363
2948.0,0.0030944893043338695
2947.0,0.0032257291386954545
2946.0,0.0034007772998332353
2945.0,0.0034445503666347133
2944.0,0.0033570086445275926
2943.0,0.0031382315093266833
2942.0,0.0027884171674950053
2941.0,0.002482560585275184
2940.0,0.0021769192542746563
2939.0,0.0018714928717336043
2938.0,0.001609869681952425
2937.0,0.001348404001626502
2936.0,0.0011306361176557367
2935.0,0.0010000277816797354
2934.0,0.000869458712629001
2933.0,0.0007389288868995258
2932.0,0.0005649501236701937
2931.0,0.00043451177401765406
2930.0,0.00030411258916074324
2929.0,0.00021720154586435392
2928.0,8.686758342868472e-05
2927.0,-4.3427276862573194e-05
2926.0,-0.00013026880522692963
2925.0,-0.00021709297223004853
2924.0,-0.00030389978481260016
2923.0,-0.00030389978481260016
2922.0,-0.00030389978481260016
2921.0,-0.0003472966853634851
2920.0,-0.0003906892499099257
2919.0,-0.0004774613744551459
2918.0,-0.0006075870628903246
2917.0,-0.0007376737740329986
2916.0,-0.0008677215312267172
2915.0,-0.0009977303577937136
2914.0,-0.0009977303577937136
2913.0,-0.0009977303577937136
2912.0,-0.0009543984064577238
2911.0,-0.0009110621312231615
2910.0,-0.0009543984064577238
2909.0,-0.0009977303577937136
2908.0,-0.0009977303577937136
2907.0,-0.0009977303577937136
2906.0,-0.0009543984064577238
2905.0,-0.0009110621312231615
2904.0,-0.0008677215312267172
2903.0,-0.0008677215312267172
2902.0,-0.0008243766056055257
2901.0,-0.0008677215312267172
2900.0,-0.0009110621312231615
2899.0,-0.0009543984064577238
2898.0,-0.001041057986093552
2897.0,-0.0010843812922201046
2896.0,-0.0010843812922201046
2895.0,-0.0011277002770349043
2894.0,-0.0011710149414008164
2893.0,-0.0011277002770349043
2892.0,-0.001041057986093552
2891.0,-0.0009543984064577238
2890.0,-0.0009110621312231615
2889.0,-0.0009110621312231615
2888.0,-0.0008677215312267172
2887.0,-0.0008243766056055257
2886.0,-0.0008243766056055257
2885.0,-0.0008243766056055257
2884.0,-0.0008243766056055257
2883.0,-0.0007810273534953893
2882.0,-0.0007810273534953893
2881.0,-0.0006943158663546001
2880.0,-0.0006509536295951079
2879.0,-0.0006509536295951079
2878.0,-0.0007376737740329986
2877.0,-0.0008243766056055257
2876.0,-0.0009543984064577238
2875.0,-0.0010843812922201046
2874.0,-0.00121432528617893
2873.0,-0.0013009330204178937
2872.0,-0.0013875234866409514
2871.0,-0.001474096691732818
2870.0,-0.0015173768235041685
2869.0,-0.0015606526425728795
2868.0,-0.0015173768235041685
2867.0,-0.0015173768235041685
2866.0,-0.0015173768235041685
2865.0,-0.0015606526425728795
2864.0,-0.0015606526425728795
2863.0,-0.0016039241497978196
2862.0,-0.0016904542321527494
2861.0,-0.001733712809000476
2860.0,-0.001733712809000476
2859.0,-0.001733712809000476
2858.0,-0.001733712809000476
2857.0,-0.001733712809000476
2856.0,-0.0018202170383281313
2855.0,-0.0018634626925240205
2854.0,-0.0018634626925240205
2853.0,-0.0018634626925240205
2852.0,-0.0018202170383281313
2851.0,-0.001776967077439462
2850.0,-0.001776967077439462
2849.0,-0.001733712809000476
2848.0,-0.0016471913460383014
2847.0,-0.0016471913460383014
2846.0,-0.0016471913460383014
2845.0,-0.001733712809000476
2844.0,-0.0018634626925240205
2843.0,-0.0019931738235303698
2842.0,-0.0020796263931210923
2841.0,-0.0021228462251614566
2840.0,-0.0021228462251614566
2839.0,-0.0020796263931210923
2838.0,-0.0020364022595291686
2837.0,-0.0020364022595291686
2836.0,-0.0019931738235303698
2835.0,-0.0019499410842680476
2834.0,-0.0019067040408846658
2833.0,-0.0018634626925240205
2832.0,-0.0018634626925240205
2831.0,-0.0018634626925240205
2830.0,-0.0019067040408846658
2829.0,-0.0019499410842680476
2828.0,-0.0019499410842680476
2827.0,-0.0019499410842680476
2826.0,-0.0019499410842680476
2825.0,-0.0019931738235303698
2824.0,-0.0020796263931210923
2823.0,-0.0021660617565077978
2822.0,-0.0021660617565077978
2821.0,-0.0021228462251614566
2820.0,-0.0020796263931210923
2819.0,-0.0020796263931210923
2818.0,-0.0021228462251614566
2817.0,-0.0021228462251614566
2816.0,-0.0021660617565077978
2815.0,-0.0021660617565077978
2814.0,-0.0022092729880145434
2813.0,-0.0022092729880145434
2812.0,-0.0022092729880145434
2811.0,-0.0022524799205383417
2810.0,-0.0022956825549340643
2809.0,-0.0023820749327607693
2808.0,-0.0025116312849080558
2807.0,-0.0026411490000399773
2806.0,-0.0027274726898296464
2805.0,-0.0027274726898296464
2804.0,-0.002684312989729598
2803.0,-0.0026411490000399773
2802.0,-0.0025548081484823015
2801.0,-0.0024684501283323
2800.0,-0.0024252646779014952
2799.0,-0.002338880892056583
2798.0,-0.0022956825549340643
2797.0,-0.0022956825549340643
2796.0,-0.0022956825549340643
2795.0,-0.0023820749327607693
2794.0,-0.0024684501283323
2793.0,-0.0025548081484823015
2792.0,-0.0026411490000399773
2791.0,-0.0026411490000399773
2790.0,-0.002684312989729598
2789.0,-0.0027274726898296464
2788.0,-0.002684312989729598
2787.0,-0.002597980719908577
2786.0,-0.0025116312849080558
2785.0,-0.0025116312849080558
2784.0,-0.002597980719908577
2783.0,-0.0026411490000399773
2782.0,-0.0026411490000399773
2781.0,-0.0026411490000399773
2780.0,-0.0026411490000399773
2779.0,-0.0026411490000399773
2778.0,-0.002684312989729598
2777.0,-0.002684312989729598
2776.0,-0.002684312989729598
2775.0,-0.002684312989729598
2774.0,-0.002684312989729598
2773.0,-0.0026411490000399773
2772.0,-0.002597980719908577
2771.0,-0.002597980719908577
2770.0,-0.0025548081484823015
2769.0,-0.0025116312849080558
2768.0,-0.0024684501283323
2767.0,-0.0024684501283323
2766.0,-0.0025116312849080558
2765.0,-0.0025548081484823015
2764.0,-0.002597980719908577
2763.0,-0.002597980719908577
2762.0,-0.002597980719908577
2761.0,-0.0025548081484823015
2760.0,-0.0025116312849080558
2759.0,-0.0025548081484823015
2758.0,-0.002597980719908577
2757.0,-0.002597980719908577
2756.0,-0.0026411490000399773
2755.0,-0.0026411490000399773
2754.0,-0.0026411490000399773
2753.0,-0.0026411490000399773
2752.0,-0.002597980719908577
2751.0,-0.002597980719908577
2750.0,-0.0026411490000399773
2749.0,-0.002684312989729598
2748.0,-0.0027274726898296464
2747.0,-0.0027274726898296464
2746.0,-0.0027706281011936618
2745.0,-0.0027706281011936618
2744.0,-0.0028137792246734072
2743.0,-0.0028137792246734072
2742.0,-0.0028137792246734072
2741.0,-0.0028137792246734072
2740.0,-0.0028137792246734072
2739.0,-0.0028137792246734072
2738.0,-0.002856926061120646
2737.0,-0.002856926061120646
2736.0,-0.0028137792246734072
2735.0,-0.0027706281011936618
2734.0,-0.002684312989729598
2733.0,-0.0026411490000399773
2732.0,-0.0026411490000399773
2731.0,-0.002684312989729598
2730.0,-0.0027706281011936618
2729.0,-0.0028137792246734072
2728.0,-0.0028137792246734072
2727.0,-0.0028137792246734072
2726.0,-0.0028137792246734072
2725.0,-0.0028137792246734072
2724.0,-0.002856926061120646
2723.0,-0.002900068611387585
2722.0,-0.002900068611387585
2721.0,-0.0029432068763250996
2720.0,-0.0029432068763250996
2719.0,-0.0029432068763250996
2718.0,-0.002856926061120646
2717.0,-0.0028137792246734072
2716.0,-0.0027706281011936618
2715.0,-0.0027706281011936618
2714.0,-0.0028137792246734072
2713.0,-0.0028137792246734072
2712.0,-0.0028137792246734072
2711.0,-0.0028137792246734072
2710.0,-0.0027274726898296464
2709.0,-0.002684312989729598
2708.0,-0.0026411490000399773
2707.0,-0.0026411490000399773
2706.0,-0.002684312989729598
2705.0,-0.002684312989729598
2704.0,-0.0027274726898296464
2703.0,-0.0027274726898296464
2702.0,-0.0028137792246734072
2701.0,-0.002900068611387585
2700.0,-0.003029470553618019
2699.0,-0.003029470553618019
2698.0,-0.003029470553618019
2697.0,-0.0029863408567849525
2696.0,-0.0029432068763250996
2695.0,-0.0029432068763250996
2694.0,-0.002900068611387585
2693.0,-0.002856926061120646
2692.0,-0.0028137792246734072
2691.0,-0.0028137792246734072
2690.0,-0.0027706281011936618
2689.0,-0.0028137792246734072
2688.0,-0.002856926061120646
2687.0,-0.002900068611387585
2686.0,-0.0029432068763250996
2685.0,-0.002900068611387585
2684.0,-0.0028137792246734072
2683.0,-0.0028137792246734072
2682.0,-0.0028137792246734072
2681.0,-0.002856926061120646
2680.0,-0.002900068611387585
2679.0,-0.002900068611387585
2678.0,-0.002856926061120646
2677.0,-0.002856926061120646
2676.0,-0.0029432068763250996
2675.0,-0.003029470553618019
2674.0,-0.0030725959676747294
2673.0,-0.0030725959676747294
2672.0,-0.0029863408567849525
2671.0,-0.0029432068763250996
2670.0,-0.0029432068763250996
2669.0,-0.0029432068763250996
2668.0,-0.0029863408567849525
2667.0,-0.0029863408567849525
2666.0,-0.0029863408567849525
2665.0,-0.0029863408567849525
2664.0,-0.0029863408567849525
2663.0,-0.0029863408567849525
2662.0,-0.003029470553618019
2661.0,-0.0030725959676747294
2660.0,-0.0030725959676747294
2659.0,-0.003029470553618019
2658.0,-0.0029863408567849525
2657.0,-0.0029432068763250996
2656.0,-0.002900068611387585
2655.0,-0.0029432068763250996
2654.0,-0.0029432068763250996
2653.0,-0.0029432068763250996
2652.0,-0.002856926061120646
2651.0,-0.0028137792246734072
2650.0,-0.0027706281011936618
2649.0,-0.0028137792246734072
2648.0,-0.002900068611387585
2647.0,-0.002900068611387585
2646.0,-0.002900068611387585
2645.0,-0.0028137792246734072
2644.0,-0.0027706281011936618
2643.0,-0.0027274726898296464
2642.0,-0.0027706281011936618
2641.0,-0.002856926061120646
2640.0,-0.002856926061120646
2639.0,-0.002856926061120646
2638.0,-0.002856926061120646
2637.0,-0.002856926061120646
2636.0,-0.002856926061120646
2635.0,-0.002900068611387585
2634.0,-0.002856926061120646
2633.0,-0.002856926061120646
2632.0,-0.0028137792246734072
2631.0,-0.002856926061120646
2630.0,-0.002900068611387585
2629.0,-0.002900068611387585
2628.0,-0.0028137792246734072
2627.0,-0.0027706281011936618
2626.0,-0.0027274726898296464
2625.0,-0.0027706281011936618
2624.0,-0.002856926061120646
2623.0,-0.0029432068763250996
2622.0,-0.003029470553618019
2621.0,-0.0030725959676747294
2620.0,-0.003029470553618019
2619.0,-0.0029432068763250996
2618.0,-0.002900068611387585
2617.0,-0.002900068611387585
2616.0,-0.002900068611387585
2615.0,-0.0029432068763250996
2614.0,-0.0029432068763250996
2613.0,-0.0029863408567849525
2612.0,-0.0030725959676747294
2611.0,-0.003158833950862139
2610.0,-0.003201946521692367
2609.0,-0.003201946521692367
2608.0,-0.003115717099805959
2607.0,-0.003029470553618019
2606.0,-0.0029863408567849525
2605.0,-0.0029863408567849525
2604.0,-0.0029863408567849525
2603.0,-0.003029470553618019
2602.0,-0.0029863408567849525
2601.0,-0.0029432068763250996
2600.0,-0.0029432068763250996
2599.0,-0.002900068611387585
2598.0,-0.002900068611387585
2597.0,-0.002900068611387585
2596.0,-0.002900068611387585
2595.0,-0.0029432068763250996
2594.0,-0.002900068611387585
2593.0,-0.002900068611387585
2592.0,-0.0029863408567849525
2591.0,-0.003029470553618019
2590.0,-0.0030725959676747294
2589.0,-0.0030725959676747294
2588.0,-0.003029470553618019
2587.0,-0.003029470553618019
2586.0,-0.003029470553618019
2585.0,-0.0029863408567849525
2584.0,-0.0029432068763250996
2583.0,-0.002900068611387585
2582.0,-0.002856926061120646
2581.0,-0.002856926061120646
2580.0,-0.002900068611387585
2579.0,-0.0029432068763250996
2578.0,-0.0029863408567849525
2577.0,-0.003029470553618019
2576.0,-0.003029470553618019
2575.0,-0.003115717099805959
2574.0,-0.003201946521692367
2573.0,-0.0032450548131470747
2572.0,-0.0032450548131470747
2571.0,-0.0032450548131470747
2570.0,-0.003158833950862139
2569.0,-0.0030725959676747294
2568.0,-0.0029863408567849525
2567.0,-0.0029863408567849525
2566.0,-0.003029470553618019
2565.0,-0.003158833950862139
2564.0,-0.0032881588260753603
2563.0,-0.0033312585613267665
2562.0,-0.0033312585613267665
2561.0,-0.0032881588260753603
2560.0,-0.003201946521692367
2559.0,-0.003201946521692367
2558.0,-0.003201946521692367
2557.0,-0.0032450548131470747
2556.0,-0.0032450548131470747
2555.0,-0.003201946521692367
2554.0,-0.003115717099805959
2553.0,-0.0030725959676747294
2552.0,-0.003115717099805959
2551.0,-0.003201946521692367
2550.0,-0.0032450548131470747
2549.0,-0.0032881588260753603
2548.0,-0.0032450548131470747
2547.0,-0.003201946521692367
2546.0,-0.003158833950862139
2545.0,-0.003201946521692367
2544.0,-0.0032450548131470747
2543.0,-0.0032881588260753603
2542.0,-0.0033312585613267665
2541.0,-0.0032881588260753603
2540.0,-0.0032881588260753603
2539.0,-0.0032881588260753603
2538.0,-0.0033312585613267665
2537.0,-0.0033743540197499478
2536.0,-0.0034174452021935586
2535.0,-0.0034605321095062536
2534.0,-0.0034174452021935586
2533.0,-0.0033312585613267665
2532.0,-0.003201946521692367
2531.0,-0.003115717099805959
2530.0,-0.003158833950862139
2529.0,-0.0032450548131470747
2528.0,-0.0034174452021935586
2527.0,-0.0034605321095062536
2526.0,-0.0034605321095062536
2525.0,-0.0033743540197499478
2524.0,-0.0032881588260753603
2523.0,-0.0032881588260753603
2522.0,-0.0032881588260753603
2521.0,-0.0033312585613267665
2520.0,-0.0033312585613267665
2519.0,-0.0032881588260753603
2518.0,-0.0032450548131470747
2517.0,-0.003201946521692367
2516.0,-0.003201946521692367
2515.0,-0.0032881588260753603
2514.0,-0.0033743540197499478
2513.0,-0.0034605321095062536
2512.0,-0.0034605321095062536
2511.0,-0.0033743540197499478
2510.0,-0.0033312585613267665
2509.0,-0.0032881588260753603
2508.0,-0.0032881588260753603
2507.0,-0.0033312585613267665
2506.0,-0.0033312585613267665
2505.0,-0.0033312585613267665
2504.0,-0.0032450548131470747
2503.0,-0.003158833950862139
2502.0,-0.003115717099805959
2501.0,-0.003115717099805959
2500.0,-0.003201946521692367
2499.0,-0.0032881588260753603
2498.0,-0.0033743540197499478
2497.0,-0.0034174452021935586
2496.0,-0.0033743540197499478
2495.0,-0.0033312585613267665
2494.0,-0.0032450548131470747
2493.0,-0.003201946521692367
2492.0,-0.003201946521692367
2491.0,-0.003158833950862139
2490.0,-0.0030725959676747294
2489.0,-0.0030725959676747294
2488.0,-0.0030725959676747294
2487.0,-0.003115717099805959
2486.0,-0.003201946521692367
2485.0,-0.0032450548131470747
2484.0,-0.0033312585613267665
2483.0,-0.0033743540197499478
2482.0,-0.0033743540197499478
2481.0,-0.0033312585613267665
2480.0,-0.0033312585613267665
2479.0,-0.0033312585613267665
2478.0,-0.0033743540197499478
2477.0,-0.0034174452021935586
2476.0,-0.0033743540197499478
2475.0,-0.0032881588260753603
2474.0,-0.0032881588260753603
2473.0,-0.0033312585613267665
2472.0,-0.0034174452021935586
2471.0,-0.003503614742536687
2470.0,-0.003503614742536687
2469.0,-0.0034605321095062536
2468.0,-0.0033312585613267665
2467.0,-0.0032450548131470747
2466.0,-0.003201946521692367
2465.0,-0.003201946521692367
2464.0,-0.0032450548131470747
2463.0,-0.0032881588260753603
2462.0,-0.0032881588260753603
2461.0,-0.0033312585613267665
2460.0,-0.0033743540197499478
2459.0,-0.0033743540197499478
2458.0,-0.0033743540197499478
2457.0,-0.0033743540197499478
2456.0,-0.0033743540197499478
2455.0,-0.0034174452021935586
2454.0,-0.0034174452021935586
2453.0,-0.0033312585613267665
2452.0,-0.0032881588260753603
2451.0,-0.0032881588260753603
2450.0,-0.0033743540197499478
2449.0,-0.0034605321095062536
2448.0,-0.003503614742536687
2447.0,-0.003546693102131737
2446.0,-0.003546693102131737
2445.0,-0.003546693102131737
2444.0,-0.003503614742536687
2443.0,-0.003503614742536687
2442.0,-0.0034605321095062536
2441.0,-0.0034605321095062536
2440.0,-0.0034174452021935586
2439.0,-0.0034605321095062536
2438.0,-0.0034605321095062536
2437.0,-0.0034605321095062536
2436.0,-0.0034174452021935586
2435.0,-0.0034174452021935586
2434.0,-0.0034174452021935586
2433.0,-0.0034174452021935586
2432.0,-0.0034174452021935586
2431.0,-0.0033743540197499478
2430.0,-0.0033312585613267665
2429.0,-0.0032881588260753603
2428.0,-0.0032881588260753603
2427.0,-0.0032881588260753603
2426.0,-0.0032881588260753603
2425.0,-0.0032881588260753603
2424.0,-0.0032450548131470747
2423.0,-0.0032450548131470747
2422.0,-0.003201946521692367
2421.0,-0.003201946521692367
2420.0,-0.003201946521692367
2419.0,-0.003201946521692367
2418.0,-0.0032450548131470747
2417.0,-0.0032881588260753603
2416.0,-0.0032450548131470747
2415.0,-0.003201946521692367
2414.0,-0.003158833950862139
2413.0,-0.003115717099805959
2412.0,-0.003115717099805959
2411.0,-0.003158833950862139
2410.0,-0.003158833950862139
2409.0,-0.003115717099805959
2408.0,-0.003115717099805959
2407.0,-0.003158833950862139
2406.0,-0.003201946521692367
2405.0,-0.003201946521692367
2404.0,-0.0032450548131470747
2403.0,-0.0032881588260753603
2402.0,-0.0033312585613267665
2401.0,-0.0033743540197499478
2400.0,-0.0033312585613267665
2399.0,-0.0033312585613267665
2398.0,-0.0032881588260753603
2397.0,-0.0032881588260753603
2396.0,-0.0033312585613267665
2395.0,-0.0033312585613267665
2394.0,-0.0033312585613267665
2393.0,-0.0033312585613267665
2392.0,-0.0032881588260753603
2391.0,-0.0032881588260753603
2390.0,-0.0032881588260753603
2389.0,-0.0032881588260753603
2388.0,-0.0032450548131470747
2387.0,-0.0032450548131470747
2386.0,-0.0032450548131470747
2385.0,-0.0032450548131470747
2384.0,-0.0032450548131470747
2383.0,-0.0032450548131470747
2382.0,-0.003201946521692367
2381.0,-0.003201946521692367
2380.0,-0.003201946521692367
2379.0,-0.0032450548131470747
2378.0,-0.0033312585613267665
2377.0,-0.0034605321095062536
2376.0,-0.003503614742536687
2375.0,-0.003503614742536687
2374.0,-0.0033743540197499478
2373.0,-0.003115717099805959
2372.0,-0.002856926061120646
2371.0,-0.0027706281011936618
2370.0,-0.003029470553618019
2369.0,-0.003503614742536687
2368.0,-0.003891166236910326
2367.0,-0.0038481220342978517
2366.0,-0.003158833950862139
2365.0,-0.0019931738235303698
2364.0,-0.0009977303577937136
2363.0,-0.0009110621312231615
2362.0,-0.0019499410842680476
2361.0,-0.0034174452021935586
2360.0,-0.0042783722001624724
2359.0,-0.003891166236910326
2358.0,-0.0027274726898296464
2357.0,-0.0016904542321527494
2356.0,-0.0016039241497978196
2355.0,-0.0022956825549340643
2354.0,-0.003115717099805959
2353.0,-0.003503614742536687
2352.0,-0.0034605321095062536
2351.0,-0.0032881588260753603
2350.0,-0.0032450548131470747
2349.0,-0.003201946521692367
2348.0,-0.003201946521692367
2347.0,-0.0032450548131470747
2346.0,-0.0033312585613267665
2345.0,-0.0033743540197499478
2344.0,-0.003201946521692367
2343.0,-0.0029863408567849525
2342.0,-0.002900068611387585
2341.0,-0.003115717099805959
2340.0,-0.0034605321095062536
2339.0,-0.003805073565025019
2338.0,-0.004063300397667113
2337.0,-0.004321373782642635
2336.0,-0.00445035298922436
2335.0,-0.00445035298922436
2334.0,-0.0042783722001624724
2333.0,-0.004063300397667113
2332.0,-0.003762020828246282
2331.0,-0.0034605321095062536
2330.0,-0.003201946521692367
2329.0,-0.0030725959676747294
2328.0,-0.003029470553618019
2327.0,-0.003115717099805959
2326.0,-0.0032450548131470747
2325.0,-0.003201946521692367
2324.0,-0.003029470553618019
2323.0,-0.0027706281011936618
2322.0,-0.0025548081484823015
2321.0,-0.0024252646779014952
2320.0,-0.0025116312849080558
2319.0,-0.002684312989729598
2318.0,-0.002900068611387585
2317.0,-0.003115717099805959
2316.0,-0.0032881588260753603
2315.0,-0.0034174452021935586
2314.0,-0.0034605321095062536
2313.0,-0.0034174452021935586
2312.0,-0.0032881588260753603
2311.0,-0.003115717099805959
2310.0,-0.003029470553618019
2309.0,-0.0029863408567849525
2308.0,-0.0029432068763250996
2307.0,-0.0029432068763250996
2306.0,-0.0029863408567849525
2305.0,-0.003029470553618019
2304.0,-0.003115717099805959
2303.0,-0.003201946521692367
2302.0,-0.003201946521692367
2301.0,-0.003201946521692367
2300.0,-0.003158833950862139
2299.0,-0.003158833950862139
2298.0,-0.003158833950862139
2297.0,-0.003201946521692367
2296.0,-0.0032450548131470747
2295.0,-0.0032881588260753603
2294.0,-0.0033743540197499478
2293.0,-0.003503614742536687
2292.0,-0.0035897671891400584
2291.0,-0.003675902548784027
2290.0,-0.0037189638231147626
2289.0,-0.003632837004408529
2288.0,-0.0035897671891400584
2287.0,-0.0035897671891400584
2286.0,-0.003632837004408529
2285.0,-0.0037189638231147626
2284.0,-0.0037189638231147626
2283.0,-0.0037189638231147626
2282.0,-0.003675902548784027
2281.0,-0.003675902548784027
2280.0,-0.003675902548784027
2279.0,-0.003675902548784027
2278.0,-0.003675902548784027
2277.0,-0.003675902548784027
2276.0,-0.003632837004408529
2275.0,-0.0035897671891400584
2274.0,-0.003546693102131737
2273.0,-0.0035897671891400584
2272.0,-0.0035897671891400584
2271.0,-0.0035897671891400584
2270.0,-0.003632837004408529
2269.0,-0.003675902548784027
2268.0,-0.003675902548784027
2267.0,-0.003675902548784027
2266.0,-0.0035897671891400584
2265.0,-0.003546693102131737
2264.0,-0.003503614742536687
2263.0,-0.003503614742536687
2262.0,-0.003503614742536687
2261.0,-0.003503614742536687
2260.0,-0.0034605321095062536
2259.0,-0.003503614742536687
2258.0,-0.003503614742536687
2257.0,-0.003546693102131737
2256.0,-0.003546693102131737
2255.0,-0.003632837004408529
2254.0,-0.003675902548784027
2253.0,-0.003762020828246282
2252.0,-0.003762020828246282
2251.0,-0.003762020828246282
2250.0,-0.0037189638231147626
2249.0,-0.003675902548784027
2248.0,-0.003632837004408529
2247.0,-0.003632837004408529
2246.0,-0.0035897671891400584
2245.0,-0.003546693102131737
2244.0,-0.003503614742536687
2243.0,-0.0034605321095062536
2242.0,-0.0034605321095062536
2241.0,-0.003503614742536687
2240.0,-0.003546693102131737
2239.0,-0.003632837004408529
2238.0,-0.0037189638231147626
2237.0,-0.003805073565025019
2236.0,-0.0038481220342978517
2235.0,-0.003891166236910326
2234.0,-0.003891166236910326
2233.0,-0.0038481220342978517
2232.0,-0.003762020828246282
2231.0,-0.003675902548784027
2230.0,-0.003632837004408529
2229.0,-0.003632837004408529
2228.0,-0.003675902548784027
2227.0,-0.003762020828246282
2226.0,-0.003805073565025019
2225.0,-0.0038481220342978517
2224.0,-0.0038481220342978517
2223.0,-0.003805073565025019
2222.0,-0.003762020828246282
2221.0,-0.003762020828246282
2220.0,-0.0037189638231147626
2219.0,-0.0037189638231147626
2218.0,-0.003762020828246282
2217.0,-0.003762020828246282
2216.0,-0.003805073565025019
2215.0,-0.0038481220342978517
2214.0,-0.003891166236910326
2213.0,-0.003934206173708432
2212.0,-0.003891166236910326
2211.0,-0.0038481220342978517
2210.0,-0.0038481220342978517
2209.0,-0.0038481220342978517
2208.0,-0.003891166236910326
2207.0,-0.003934206173708432
2206.0,-0.003934206173708432
2205.0,-0.0039772418455368275
2204.0,-0.0039772418455368275
2203.0,-0.004063300397667113
2202.0,-0.004063300397667113
2201.0,-0.0039772418455368275
2200.0,-0.003891166236910326
2199.0,-0.003805073565025019
2198.0,-0.003762020828246282
2197.0,-0.003762020828246282
2196.0,-0.003805073565025019
2195.0,-0.003891166236910326
2194.0,-0.003934206173708432
2193.0,-0.0039772418455368275
2192.0,-0.0039772418455368275
2191.0,-0.0039772418455368275
2190.0,-0.0039772418455368275
2189.0,-0.003934206173708432
2188.0,-0.003891166236910326
2187.0,-0.0038481220342978517
2186.0,-0.003805073565025019
2185.0,-0.003805073565025019
2184.0,-0.0038481220342978517
2183.0,-0.003891166236910326
2182.0,-0.003934206173708432
2181.0,-0.003891166236910326
2180.0,-0.0038481220342978517
2179.0,-0.003805073565025019
2178.0,-0.003805073565025019
2177.0,-0.003762020828246282
2176.0,-0.0037189638231147626
2175.0,-0.0037189638231147626
2174.0,-0.003762020828246282
2173.0,-0.0038481220342978517
2172.0,-0.003891166236910326
2171.0,-0.0038481220342978517
2170.0,-0.003805073565025019
2169.0,-0.0037189638231147626
2168.0,-0.003762020828246282
2167.0,-0.003805073565025019
2166.0,-0.0038481220342978517
2165.0,-0.003891166236910326
2164.0,-0.003891166236910326
2163.0,-0.0038481220342978517
2162.0,-0.003891166236910326
2161.0,-0.003934206173708432
2160.0,-0.003934206173708432
2159.0,-0.003891166236910326
2158.0,-0.0038481220342978517
2157.0,-0.003762020828246282
2156.0,-0.003675902548784027
2155.0,-0.003675902548784027
2154.0,-0.003675902548784027
2153.0,-0.0037189638231147626
2152.0,-0.003762020828246282
2151.0,-0.003762020828246282
2150.0,-0.003805073565025019
2149.0,-0.0038481220342978517
2148.0,-0.003891166236910326
2147.0,-0.003891166236910326
2146.0,-0.003891166236910326
2145.0,-0.003805073565025019
2144.0,-0.003762020828246282
2143.0,-0.0037189638231147626
2142.0,-0.0037189638231147626
2141.0,-0.0037189638231147626
2140.0,-0.003762020828246282
2139.0,-0.003762020828246282
2138.0,-0.003762020828246282
2137.0,-0.003805073565025019
2136.0,-0.003805073565025019
2135.0,-0.003805073565025019
2134.0,-0.0038481220342978517
2133.0,-0.003891166236910326
2132.0,-0.003934206173708432
2131.0,-0.0039772418455368275
2130.0,-0.0039772418455368275
2129.0,-0.003934206173708432
2128.0,-0.003891166236910326
2127.0,-0.003891166236910326
2126.0,-0.003891166236910326
2125.0,-0.003934206173708432
2124.0,-0.003891166236910326
2123.0,-0.003891166236910326
2122.0,-0.003891166236910326
2121.0,-0.0038481220342978517
2120.0,-0.0038481220342978517
2119.0,-0.0038481220342978517
2118.0,-0.0038481220342978517
2117.0,-0.0038481220342978517
2116.0,-0.0038481220342978517
2115.0,-0.003805073565025019
2114.0,-0.003805073565025019
2113.0,-0.0038481220342978517
2112.0,-0.003891166236910326
2111.0,-0.0039772418455368275
2110.0,-0.004020273253241502
2109.0,-0.004063300397667113
2108.0,-0.004020273253241502
2107.0,-0.004020273253241502
2106.0,-0.004063300397667113
2105.0,-0.004020273253241502
2104.0,-0.003934206173708432
2103.0,-0.003805073565025019
2102.0,-0.0037189638231147626
2101.0,-0.003675902548784027
2100.0,-0.003675902548784027
2099.0,-0.0037189638231147626
2098.0,-0.003762020828246282
2097.0,-0.003762020828246282
2096.0,-0.003762020828246282
2095.0,-0.003762020828246282
2094.0,-0.003762020828246282
2093.0,-0.0037189638231147626
2092.0,-0.003632837004408529
2091.0,-0.003632837004408529
2090.0,-0.003632837004408529
2089.0,-0.003632837004408529
2088.0,-0.003632837004408529
2087.0,-0.003632837004408529
2086.0,-0.003675902548784027
2085.0,-0.0037189638231147626
2084.0,-0.003762020828246282
2083.0,-0.0038481220342978517
2082.0,-0.003891166236910326
2081.0,-0.003934206173708432
2080.0,-0.003934206173708432
2079.0,-0.0038481220342978517
2078.0,-0.003805073565025019
2077.0,-0.003762020828246282
2076.0,-0.003805073565025019
2075.0,-0.003891166236910326
2074.0,-0.0039772418455368275
2073.0,-0.0039772418455368275
2072.0,-0.003934206173708432
2071.0,-0.003934206173708432
2070.0,-0.003934206173708432
2069.0,-0.0039772418455368275
2068.0,-0.0039772418455368275
2067.0,-0.0039772418455368275
2066.0,-0.0039772418455368275
2065.0,-0.0039772418455368275
2064.0,-0.0039772418455368275
2063.0,-0.004020273253241502
2062.0,-0.004063300397667113
2061.0,-0.004106323279658319
2060.0,-0.004106323279658319
2059.0,-0.004106323279658319
2058.0,-0.004149341900058889
2057.0,-0.004192356259714369
2056.0,-0.0042353663594676405
2055.0,-0.0042783722001624724
2054.0,-0.0042783722001624724
2053.0,-0.0042783722001624724
2052.0,-0.0042783722001624724
2051.0,-0.0042353663594676405
2050.0,-0.0042353663594676405
2049.0,-0.0042353663594676405
2048.0,-0.004192356259714369
2047.0,-0.004149341900058889
2046.0,-0.004106323279658319
2045.0,-0.004063300397667113
2044.0,-0.004020273253241502
2043.0,-0.004020273253241502
2042.0,-0.004106323279658319
2041.0,-0.004192356259714369
2040.0,-0.0042353663594676405
2039.0,-0.004321373782642635
2038.0,-0.004364371107751008
2037.0,-0.004407364176330919
2036.0,-0.004364371107751008
2035.0,-0.004321373782642635
2034.0,-0.0042353663594676405
2033.0,-0.004192356259714369
2032.0,-0.004149341900058889
2031.0,-0.004106323279658319
2030.0,-0.004106323279658319
2029.0,-0.004106323279658319
2028.0,-0.004106323279658319
2027.0,-0.004149341900058889
2026.0,-0.004192356259714369
2025.0,-0.004192356259714369
2024.0,-0.0042353663594676405
2023.0,-0.0042353663594676405
2022.0,-0.0042353663594676405
2021.0,-0.0042783722001624724
2020.0,-0.0042783722001624724
2019.0,-0.0042783722001624724
2018.0,-0.0042783722001624724
2017.0,-0.004321373782642635
2016.0,-0.004321373782642635
2015.0,-0.004364371107751008
2014.0,-0.00445035298922436
2013.0,-0.004493337547274212
2012.0,-0.004493337547274212
2011.0,-0.004493337547274212
2010.0,-0.00445035298922436
2009.0,-0.004407364176330919
2008.0,-0.004364371107751008
2007.0,-0.004321373782642635
2006.0,-0.004321373782642635
2005.0,-0.004364371107751008
2004.0,-0.004321373782642635
2003.0,-0.004321373782642635
2002.0,-0.004321373782642635
2001.0,-0.004321373782642635
2000.0,-0.004364371107751008
1999.0,-0.004364371107751008
1998.0,-0.004364371107751008
1997.0,-0.004321373782642635
1996.0,-0.0042783722001624724
1995.0,-0.004321373782642635
1994.0,-0.004364371107751008
1993.0,-0.004407364176330919
1992.0,-0.004364371107751008
1991.0,-0.004321373782642635
1990.0,-0.0042783722001624724
1989.0,-0.0042353663594676405
1988.0,-0.004192356259714369
1987.0,-0.004192356259714369
1986.0,-0.004192356259714369
1985.0,-0.004192356259714369
1984.0,-0.004149341900058889
1983.0,-0.004106323279658319
1982.0,-0.004063300397667113
1981.0,-0.004063300397667113
1980.0,-0.004106323279658319
1979.0,-0.004149341900058889
1978.0,-0.004192356259714369
1977.0,-0.004149341900058889
1976.0,-0.004106323279658319
1975.0,-0.004063300397667113
1974.0,-0.004063300397667113
1973.0,-0.004063300397667113
1972.0,-0.004106323279658319
1971.0,-0.004106323279658319
1970.0,-0.004149341900058889
1969.0,-0.004149341900058889
1968.0,-0.004106323279658319
1967.0,-0.004063300397667113
1966.0,-0.004063300397667113
1965.0,-0.004063300397667113
1964.0,-0.004106323279658319
1963.0,-0.004149341900058889
1962.0,-0.004149341900058889
1961.0,-0.004149341900058889
1960.0,-0.004149341900058889
1959.0,-0.0042353663594676405
1958.0,-0.0042783722001624724
1957.0,-0.004321373782642635
1956.0,-0.004321373782642635
1955.0,-0.0042783722001624724
1954.0,-0.0042353663594676405
1953.0,-0.004192356259714369
1952.0,-0.004192356259714369
1951.0,-0.0042353663594676405
1950.0,-0.0042783722001624724
1949.0,-0.004321373782642635
1948.0,-0.0042783722001624724
1947.0,-0.0042783722001624724
1946.0,-0.0042783722001624724
1945.0,-0.004321373782642635
1944.0,-0.004321373782642635
1943.0,-0.004321373782642635
1942.0,-0.004321373782642635
1941.0,-0.004321373782642635
1940.0,-0.004321373782642635
1939.0,-0.004321373782642635
1938.0,-0.004364371107751008
1937.0,-0.004407364176330919
1936.0,-0.004407364176330919
1935.0,-0.004407364176330919
1934.0,-0.004364371107751008
1933.0,-0.004364371107751008
1932.0,-0.004364371107751008
1931.0,-0.004407364176330919
1930.0,-0.004407364176330919
1929.0,-0.004364371107751008
1928.0,-0.004321373782642635
1927.0,-0.004364371107751008
1926.0,-0.004364371107751008
1925.0,-0.004364371107751008
1924.0,-0.004321373782642635
1923.0,-0.0042783722001624724
1922.0,-0.0042783722001624724
1921.0,-0.004321373782642635
1920.0,-0.004321373782642635
1919.0,-0.004364371107751008
1918.0,-0.004321373782642635
1917.0,-0.004321373782642635
1916.0,-0.0042783722001624724
1915.0,-0.0042783722001624724
1914.0,-0.004321373782642635
1913.0,-0.004321373782642635
1912.0,-0.004321373782642635
1911.0,-0.004321373782642635
1910.0,-0.0042783722001624724
1909.0,-0.0042353663594676405
1908.0,-0.0042353663594676405
1907.0,-0.0042353663594676405
1906.0,-0.0042783722001624724
1905.0,-0.004321373782642635
1904.0,-0.004364371107751008
1903.0,-0.004364371107751008
1902.0,-0.004321373782642635
1901.0,-0.004321373782642635
1900.0,-0.0042783722001624724
1899.0,-0.0042353663594676405
1898.0,-0.004192356259714369
1897.0,-0.004149341900058889
1896.0,-0.004106323279658319
1895.0,-0.004149341900058889
1894.0,-0.004192356259714369
1893.0,-0.0042353663594676405
1892.0,-0.0042353663594676405
1891.0,-0.0042783722001624724
1890.0,-0.004321373782642635
1889.0,-0.004321373782642635
1888.0,-0.0042783722001624724
1887.0,-0.0042353663594676405
1886.0,-0.004192356259714369
1885.0,-0.0042353663594676405
1884.0,-0.0042783722001624724
1883.0,-0.004321373782642635
1882.0,-0.004364371107751008
1881.0,-0.004364371107751008
1880.0,-0.004364371107751008
1879.0,-0.004364371107751008
1878.0,-0.0042783722001624724
1877.0,-0.004192356259714369
1876.0,-0.004149341900058889
1875.0,-0.004106323279658319
1874.0,-0.004106323279658319
1873.0,-0.004106323279658319
1872.0,-0.004020273253241502
1871.0,-0.003934206173708432
1870.0,-0.0039772418455368275
1869.0,-0.004106323279658319
1868.0,-0.004192356259714369
1867.0,-0.0042353663594676405
1866.0,-0.0042353663594676405
1865.0,-0.004149341900058889
1864.0,-0.004020273253241502
1863.0,-0.0039772418455368275
1862.0,-0.003934206173708432
1861.0,-0.003934206173708432
1860.0,-0.003934206173708432
1859.0,-0.004020273253241502
1858.0,-0.004063300397667113
1857.0,-0.004063300397667113
1856.0,-0.004020273253241502
1855.0,-0.003934206173708432
1854.0,-0.003891166236910326
1853.0,-0.003891166236910326
1852.0,-0.0038481220342978517
1851.0,-0.003805073565025019
1850.0,-0.0038481220342978517
1849.0,-0.0038481220342978517
1848.0,-0.003805073565025019
1847.0,-0.003805073565025019
1846.0,-0.003805073565025019
1845.0,-0.003762020828246282
1844.0,-0.003762020828246282
1843.0,-0.0037189638231147626
1842.0,-0.0037189638231147626
1841.0,-0.003632837004408529
1840.0,-0.003546693102131737
1839.0,-0.003503614742536687
1838.0,-0.0034174452021935586
1837.0,-0.0033743540197499478
1836.0,-0.0032450548131470747
1835.0,-0.003158833950862139
1834.0,-0.003158833950862139
1833.0,-0.003115717099805959
1832.0,-0.0030725959676747294
1831.0,-0.0029863408567849525
1830.0,-0.002856926061120646
1829.0,-0.0027274726898296464
1828.0,-0.002684312989729598
1827.0,-0.0027274726898296464
1826.0,-0.0027706281011936618
1825.0,-0.0027274726898296464
1824.0,-0.0026411490000399773
1823.0,-0.0025548081484823015
1822.0,-0.0024684501283323
1821.0,-0.002338880892056583
1820.0,-0.0022092729880145434
1819.0,-0.0020364022595291686
1818.0,-0.0019499410842680476
1817.0,-0.0018634626925240205
1816.0,-0.0018202170383281313
1815.0,-0.001776967077439462
1814.0,-0.001776967077439462
1813.0,-0.0016904542321527494
1812.0,-0.0015173768235041685
1811.0,-0.0013875234866409514
1810.0,-0.0013009330204178937
1809.0,-0.00121432528617893
1808.0,-0.0010843812922201046
1807.0,-0.0009977303577937136
1806.0,-0.0009543984064577238
1805.0,-0.0008677215312267172
1804.0,-0.0006943158663546001
1803.0,-0.0005208409361854294
1802.0,-0.0003906892499099257
1801.0,-0.00021709297223004853
1800.0,-4.3427276862573194e-05
1799.0,0.0001303078917322953
1798.0,0.00026065489343207737
1797.0,0.00043451177401765406
1796.0,0.0006954276616513155
1795.0,0.0009565003968372565
1794.0,0.0012612837441823288
1793.0,0.0018714928717336043
1792.0,0.0027884171674950053
1791.0,0.0037510854308679953
1790.0,0.00458420145758498
1789.0,0.005462895701502157
1788.0,0.006387442061109638
1787.0,0.007490664932224611
1786.0,0.0087296108049002
1785.0,0.01023881228122181
1784.0,0.011887159731648111
1783.0,0.013496984613259544
1782.0,0.015202742910707112
1781.0,0.017231422748988034
1780.0,0.019360432556262852
1779.0,0.0211806132671577
1778.0,0.022733787572707387
1777.0,0.024200690320592466
1776.0,0.025672564576383117
1775.0,0.02710321556345563
1774.0,0.028677754757187035
1773.0,0.031003673351687855
1772.0,0.0338113190438627
1771.0,0.03625938114211591
1770.0,0.038199360808321536
1769.0,0.04038628892895613
1768.0,0.04315950984076644
1767.0,0.04609540658654021
1766.0,0.048808242065293994
1765.0,0.05134256785867963
1764.0,0.054186873412661596
1763.0,0.05799194697768684
1762.0,0.06258241852286206
1761.0,0.06712054217620067
1760.0,0.07063217075990047
1759.0,0.0734517753643813
1758.0,0.0763933569825408
1757.0,0.07992887570247587
1756.0,0.0832303157168639
1755.0,0.08539243222891946
1754.0,0.08645104209348209
1753.0,0.08740600224789441
1752.0,0.08878910686244668
1751.0,0.0905509530187334
1750.0,0.09210516458371698
1749.0,0.09312646527792956
1748.0,0.0935572061829677
1747.0,0.09318028453345462
1746.0,0.09215885741705532
1745.0,0.09076499663169257
1744.0,0.08889568219596411
1743.0,0.08650404038287651
1742.0,0.08354605145007499
1741.0,0.07992887570247587
1740.0,0.0756173227980268
1739.0,0.07124579782334672
1738.0,0.06737405597821788
1737.0,0.0636873663378068
1736.0,0.05953332233647113
1735.0,0.05438372077326825
1734.0,0.049245818406496555
1733.0,0.04541983725624266
1732.0,0.04248848854552012
1731.0,0.039719535563357944
1730.0,0.037062711569998186
1729.0,0.03465716443937783
1728.0,0.03249882527715853
1727.0,0.03067729388779794
1726.0,0.029141943003497595
1725.0,0.027750864037404455
1724.0,0.026456531467510258
1723.0,0.025350165561278004
1722.0,0.02438440203310499
1721.0,0.023466619608062178
1720.0,0.022413561996148967
1719.0,0.0211806132671577
1718.0,0.02013307743509718
1717.0,0.019315025636685412
1716.0,0.018543833477873584
1715.0,0.017774008325325275
1714.0,0.017050711425501408
1713.0,0.01632861713980338
1712.0,0.01547268665620738
1711.0,0.014618439768003144
1710.0,0.01385553528947936
1709.0,0.01322826573375524
1708.0,0.01260190086298274
1707.0,0.0119764380713403
1706.0,0.011441043121384498
1705.0,0.010950843561779777
1704.0,0.010416710688994968
1703.0,0.009883233932095559
1702.0,0.009261671492462709
1701.0,0.008773924307505121
1700.0,0.008419542825660153
1699.0,0.008198201155356077
1698.0,0.007932739972333236
1697.0,0.007667440952535687
1696.0,0.007313960837872058
1695.0,0.007004901568658406
1694.0,0.006828394969235152
1693.0,0.006607862550997545
1692.0,0.006387442061109638
1691.0,0.00621118618129457
1690.0,0.00612308505878878
1689.0,0.00612308505878878
1688.0,0.006035001804881146
1687.0,0.00590291041179003
1686.0,0.005726851026829571
1685.0,0.005638848091999105
1684.0,0.005594853310833647
1683.0,0.005506877116487674
1682.0,0.00537494623139545
1681.0,0.0052870145684298375
1680.0,0.005199100705396198
1679.0,0.005111204635089406
1678.0,0.005023326350308999
1677.0,0.00489154225525934
1676.0,0.004759798137184523
1675.0,0.004715892310740433
1674.0,0.004715892310740433
1673.0,0.004628093971837721
1672.0,0.004540313378935901
1671.0,0.0044964297349936455
1670.0,0.004671990922590297
1669.0,0.00484762310854614
1668.0,0.00489154225525934
1667.0,0.00489154225525934
1666.0,0.00484762310854614
1665.0,0.004759798137184523
1664.0,0.004671990922590297
1663.0,0.004628093971837721
1662.0,0.004628093971837721
1661.0,0.00458420145758498
1660.0,0.004540313378935901
1659.0,0.004540313378935901
1658.0,0.004540313378935901
1657.0,0.00458420145758498
1656.0,0.004540313378935901
1655.0,0.004540313378935901
1654.0,0.004671990922590297
1653.0,0.00484762310854614
1652.0,0.00484762310854614
1651.0,0.004759798137184523
1650.0,0.004759798137184523
1649.0,0.004803708402820517
1648.0,0.00489154225525934
1647.0,0.004979393875242044
1646.0,0.005023326350308999
1645.0,0.004935465843858511
1644.0,0.00489154225525934
1643.0,0.004803708402820517
1642.0,0.004759798137184523
1641.0,0.004671990922590297
1640.0,0.004628093971837721
1639.0,0.004540313378935901
1638.0,0.0044964297349936455
1637.0,0.004452550524862486
1636.0,0.004320939488377862
1635.0,0.004189368323957332
1634.0,0.004101676353562844
1633.0,0.0040578370074493275
1632.0,0.00401400208620073
1631.0,0.003926345514724705
1630.0,0.0038387066319929275
1629.0,0.003794893821675638
1628.0,0.0037510854308679953
1627.0,0.0036634819042162814
1626.0,0.0035758960449088217
1625.0,0.0035321097382827737
1624.0,0.003488327845821315
1623.0,0.0035758960449088217
1622.0,0.0036634819042162814
1621.0,0.003707281458678491
1620.0,0.0037510854308679953
1619.0,0.003707281458678491
1618.0,0.003707281458678491
1617.0,0.003707281458678491
1616.0,0.003707281458678491
1615.0,0.0036634819042162814
1614.0,0.0035758960449088217
1613.0,0.0034445503666347133
1612.0,0.0032257291386954545
1611.0,0.0030070181092942683
1610.0,0.0027884171674950053
1609.0,0.002613615602686581
1608.0,0.002351545103793873
1607.0,0.0021769192542746563
1606.0,0.0020023635919956817
1605.0,0.0018714928717336043
1604.0,0.0017406615763013722
1603.0,0.001609869681952425
1602.0,0.0014791171649619628
1601.0,0.0012612837441823288
1600.0,0.0010870956412141197
1599.0,0.0009565003968372565
1598.0,0.0008259444115150671
1597.0,0.0007389288868995258
1596.0,0.0006084382809090627
1595.0,0.0005649501236701937
1594.0,0.000521466320689834
1593.0,0.00043451177401765406
1592.0,0.0003475746339209884
1591.0,0.00026065489343207737
1590.0,0.00017375254558760211
1589.0,8.686758342868472e-05
1588.0,4.343161980746579e-05
1587.0,-4.3427276862573194e-05
1586.0,-0.00013026880522692963
1585.0,-0.00021709297223004853
1584.0,-0.0003472966853634851
1583.0,-0.0004774613744551459
1582.0,-0.0005208409361854294
1581.0,-0.0005642161653756084
1580.0,-0.0006075870628903246
1579.0,-0.0006509536295951079
1578.0,-0.0007376737740329986
1577.0,-0.0008677215312267172
1576.0,-0.0009543984064577238
1575.0,-0.0009110621312231615
1574.0,-0.0008243766056055257
1573.0,-0.0007810273534953893
1572.0,-0.0007376737740329986
1571.0,-0.0007810273534953893
1570.0,-0.0007810273534953893
1569.0,-0.0008243766056055257
1568.0,-0.0008677215312267172
1567.0,-0.0009110621312231615
1566.0,-0.0009543984064577238
1565.0,-0.0009543984064577238
1564.0,-0.0009977303577937136
1563.0,-0.0010843812922201046
1562.0,-0.0011277002770349043
1561.0,-0.0011277002770349043
1560.0,-0.0011710149414008164
1559.0,-0.0011710149414008164
1558.0,-0.0011710149414008164
1557.0,-0.00121432528617893
1556.0,-0.001257631312230778
1555.0,-0.0013009330204178937
1554.0,-0.0013009330204178937
1553.0,-0.0013009330204178937
1552.0,-0.001257631312230778
1551.0,-0.001257631312230778
1550.0,-0.00121432528617893
1549.0,-0.0011710149414008164
1548.0,-0.0011710149414008164
1547.0,-0.00121432528617893
1546.0,-0.00121432528617893
1545.0,-0.0011710149414008164
1544.0,-0.0011277002770349043
1543.0,-0.0011710149414008164
1542.0,-0.0011710149414008164
1541.0,-0.0011277002770349043
1540.0,-0.0010843812922201046
1539.0,-0.0010843812922201046
1538.0,-0.0010843812922201046
1537.0,-0.0009977303577937136
1536.0,-0.0009110621312231615
1535.0,-0.0009110621312231615
1534.0,-0.0009543984064577238
1533.0,-0.001041057986093552
1532.0,-0.0010843812922201046
1531.0,-0.0011277002770349043
1530.0,-0.0011277002770349043
1529.0,-0.0011277002770349043
1528.0,-0.001041057986093552
1527.0,-0.0009977303577937136
1526.0,-0.0009543984064577238
1525.0,-0.0009543984064577238
1524.0,-0.001041057986093552
1523.0,-0.0011277002770349043
1522.0,-0.00121432528617893
1521.0,-0.0013009330204178937
1520.0,-0.0013875234866409514
1519.0,-0.0014308122463981832
1518.0,-0.0014308122463981832
1517.0,-0.0013009330204178937
1516.0,-0.00121432528617893
1515.0,-0.0011277002770349043
1514.0,-0.0011277002770349043
1513.0,-0.00121432528617893
1512.0,-0.001257631312230778
1511.0,-0.001344230411601366
1510.0,-0.001344230411601366
1509.0,-0.0013009330204178937
1508.0,-0.0013009330204178937
1507.0,-0.0013009330204178937
1506.0,-0.0013875234866409514
1505.0,-0.0013875234866409514
1504.0,-0.001344230411601366
1503.0,-0.001257631312230778
1502.0,-0.0011710149414008164
1501.0,-0.001041057986093552
1500.0,-0.0009110621312231615
1499.0,-0.0009110621312231615
1498.0,-0.0009977303577937136
1497.0,-0.0011277002770349043
1496.0,-0.00121432528617893
1495.0,-0.00121432528617893
1494.0,-0.0011710149414008164
1493.0,-0.0010843812922201046
1492.0,-0.0010843812922201046
1491.0,-0.0010843812922201046
1490.0,-0.001041057986093552
1489.0,-0.0009543984064577238
1488.0,-0.0009110621312231615
1487.0,-0.0009110621312231615
1486.0,-0.0009110621312231615
1485.0,-0.0008677215312267172
1484.0,-0.0007810273534953893
1483.0,-0.0006943158663546001
1482.0,-0.0005642161653756084
1481.0,-0.00043407747931878404
1480.0,-0.00030389978481260016
1479.0,-0.00021709297223004853
1478.0,-4.3427276862573194e-05
1477.0,0.00017375254558760211
1476.0,0.0004779868710962365
1475.0,0.0007389288868995258
1474.0,0.0011306361176557367
1473.0,0.0018714928717336043
1472.0,0.0027884171674950053
1471.0,0.0036634819042162814
1470.0,0.004452550524862486
1469.0,0.005243055412371911
1468.0,0.006167133386013823
1467.0,0.007269796045857202
1466.0,0.008818242332126802
1465.0,0.010906307389674463
1464.0,0.013049212141483357
1463.0,0.014888020460646079
1462.0,0.016418813294209356
1461.0,0.01781925440359733
1460.0,0.0192242260373785
1459.0,0.02081596632558158
1458.0,0.023054249440757957
1457.0,0.025672564576383117
1456.0,0.027288159452933503
1455.0,0.027889771597169544
1454.0,0.02812138297373412
1453.0,0.02826040911222183
1452.0,0.028306761050139073
1451.0,0.028167720075074953
1450.0,0.027889771597169544
1449.0,0.027334407733889066
1448.0,0.026456531467510258
1447.0,0.02521206778644225
1446.0,0.023741750742954926
1445.0,0.021956506090037076
1444.0,0.01990568621470623
1443.0,0.017638298366853045
1442.0,0.015427684378367834
1441.0,0.013407393177789162
1440.0,0.011574829993696856
1439.0,0.009972101229705377
1438.0,0.008419542825660153
1437.0,0.006916639301937977
1436.0,0.005638848091999105
1435.0,0.004759798137184523
1434.0,0.004233220950025984
1433.0,0.0037510854308679953
1432.0,0.0033132443998284966
1431.0,0.0029195645282691363
1430.0,0.002569926202528716
1429.0,0.0022642234021015284
1428.0,0.0019587356365717845
1427.0,0.0017842676290416026
1426.0,0.0016970599014589638
1425.0,0.0015662811355310335
1424.0,0.0014791171649619628
1423.0,0.001348404001626502
1422.0,0.0012177301682640973
1421.0,0.0010435595295137379
1420.0,0.0009129773741116676
1419.0,0.0009129773741116676
1418.0,0.0009565003968372565
1417.0,0.0009129773741116676
1416.0,0.000869458712629001
1415.0,0.0008259444115150671
1414.0,0.0007824344698965646
1413.0,0.0008259444115150671
1412.0,0.000869458712629001
1411.0,0.0009565003968372565
1410.0,0.0009565003968372565
1409.0,0.000869458712629001
1408.0,0.0008259444115150671
1407.0,0.000869458712629001
1406.0,0.0010000277816797354
1405.0,0.0011306361176557367
1404.0,0.0012612837441823288
1403.0,0.0014355417390583547
1402.0,0.001609869681952425
1401.0,0.0018714928717336043
1400.0,0.0022642234021015284
1399.0,0.0028321285541661467
1398.0,0.0035321097382827737
1397.0,0.004277078004534696
1396.0,0.005243055412371911
1395.0,0.00656376950238835
1394.0,0.008109696063975047
1393.0,0.00966114521239847
1392.0,0.011129033935354915
1391.0,0.01264661126420652
1390.0,0.014169510141607944
1389.0,0.015832872853011715
1388.0,0.017774008325325275
1387.0,0.019769308608968306
1386.0,0.0214542995372613
1385.0,0.022642270454698687
1384.0,0.023466619608062178
1383.0,0.024017056287453542
1382.0,0.024246610963712723
1381.0,0.024017056287453542
1380.0,0.02342078135989012
1379.0,0.022413561996148967
1378.0,0.0211806132671577
1377.0,0.019996628416253603
1376.0,0.01899731005860028
1375.0,0.01845319495476394
1374.0,0.01845319495476394
1373.0,0.018861217359339655
1372.0,0.01949668180660491
1371.0,0.02022406727031445
1370.0,0.020952673052035298
1369.0,0.021728158389364705
1368.0,0.022367834754000393
1367.0,0.02282532397981263
1366.0,0.02314585342378117
1365.0,0.023374947949272418
1364.0,0.02365002099672653
1363.0,0.02406295751688936
1362.0,0.024430342106337877
1361.0,0.024706084643793647
1360.0,0.02484402159331056
1359.0,0.024798037742147727
1358.0,0.02461415101053266
1357.0,0.024430342106337877
1356.0,0.024108863598207186
1355.0,0.023604163388120325
1354.0,0.02300845469384938
1353.0,0.02227639471115217
1352.0,0.021499930688540836
1351.0,0.020724852408976924
1350.0,0.01990568621470623
1349.0,0.019178833355664393
1348.0,0.01840788278591865
1347.0,0.017728766960431575
1346.0,0.017050711425501408
1345.0,0.016373712875465518
1344.0,0.015742798294583915
1343.0,0.015112798935672522
1342.0,0.0144837121472845
1341.0,0.013945219230304673
1340.0,0.013496984613259544
1339.0,0.013093968619278806
1338.0,0.012691326268817527
1337.0,0.012378417874516323
1336.0,0.012065734767841452
1335.0,0.011797899741219142
1334.0,0.011530229790124524
1333.0,0.011262724711199823
1332.0,0.011039929609661936
1331.0,0.01086177578421088
1330.0,0.010728208358306901
1329.0,0.010639186223752484
1328.0,0.010550182333308289
1327.0,0.010416710688994968
1326.0,0.010327752376126709
1325.0,0.010327752376126709
1324.0,0.010327752376126709
1323.0,0.01037222925484893
1322.0,0.01046119667949763
1321.0,0.010505687227290839
1320.0,0.010505687227290839
1319.0,0.010505687227290839
1318.0,0.010505687227290839
1317.0,0.01046119667949763
1316.0,0.01046119667949763
1315.0,0.01046119667949763
1314.0,0.010505687227290839
1313.0,0.010550182333308289
1312.0,0.010594681998483901
1311.0,0.010594681998483901
1310.0,0.010639186223752484
1309.0,0.010683695010048622
1308.0,0.01077272626946324
1307.0,0.01086177578421088
1306.0,0.010906307389674463
1305.0,0.010906307389674463
1304.0,0.010906307389674463
1303.0,0.01086177578421088
1302.0,0.010817248744452446
1301.0,0.010728208358306901
1300.0,0.010550182333308289
1299.0,0.01037222925484893
1298.0,0.010105436281226954
1297.0,0.009883233932095559
1296.0,0.009572341514736404
1295.0,0.009261671492462709
1294.0,0.008951223547323472
1293.0,0.008685301823389224
1292.0,0.008463824699968647
1291.0,0.008375265465994541
1290.0,0.008463824699968647
1289.0,0.008685301823389224
1288.0,0.009039900317800775
1287.0,0.009616741093766423
1286.0,0.010327752376126709
1285.0,0.011218156546359825
1284.0,0.012199714248127602
1283.0,0.01322826573375524
1282.0,0.014349026309051105
1281.0,0.015562705203923999
1280.0,0.01677978535189717
1279.0,0.017909760704207134
1278.0,0.019042683770379876
1277.0,0.020178569969774962
1276.0,0.02122621566987748
1275.0,0.022230681908425698
1274.0,0.02314585342378117
1273.0,0.023971159908874107
1272.0,0.024660115394541604
1271.0,0.02521206778644225
1270.0,0.02562649291857677
1269.0,0.025856900097785074
1268.0,0.025995203102585407
1267.0,0.026041313893296225
1266.0,0.025949097207122573
1265.0,0.025810808881832736
1264.0,0.025672564576383117
1263.0,0.02544225514642018
1262.0,0.02512002699306959
1261.0,0.024706084643793647
1260.0,0.024246610963712723
1259.0,0.023741750742954926
1258.0,0.023283295636617574
1257.0,0.02282532397981263
1256.0,0.022413561996148967
1255.0,0.02204787879853809
1254.0,0.021636852916117055
1253.0,0.021271822861508305
1252.0,0.020952673052035298
1251.0,0.020724852408976924
1250.0,0.02058821736556471
1249.0,0.020497151212598652
1248.0,0.02045162529590483
1247.0,0.020406104151069693
1246.0,0.020406104151069693
1245.0,0.020497151212598652
1244.0,0.02067930261797568
1243.0,0.020861530453190058
1242.0,0.021089422824428272
1241.0,0.021317434843055594
1240.0,0.02168250325324883
1239.0,0.02200219004126036
1238.0,0.022367834754000393
1237.0,0.022733787572707387
1236.0,0.023191662661933732
1235.0,0.023695883447997224
1234.0,0.024292536462819925
1233.0,0.025028005701930978
1232.0,0.025856900097785074
1231.0,0.026733563891471412
1230.0,0.027658283674251827
1229.0,0.028677754757187035
1228.0,0.029746130405213123
1227.0,0.031003673351687855
1226.0,0.032311649546687526
1225.0,0.03371743783253667
1224.0,0.03522197797762394
1223.0,0.036779013477011624
1222.0,0.03838909190871931
1221.0,0.03995754427315856
1220.0,0.041627267521392675
1219.0,0.04325545471730896
1218.0,0.04488976902944808
1217.0,0.046481918555007384
1216.0,0.04803141550708934
1215.0,0.04948910701400333
1214.0,0.050805225762017736
1213.0,0.05207638016827354
1212.0,0.053203972728539606
1211.0,0.054186873412661596
1210.0,0.05502409158795207
1209.0,0.055764156206519866
1208.0,0.056406567231630955
1207.0,0.05685187064143715
1206.0,0.0571489934456626
1205.0,0.05749589383191922
1204.0,0.05789269101064454
1203.0,0.05824018618530458
1202.0,0.05868737463933793
1201.0,0.05933412752417122
1200.0,0.060131455540490375
1199.0,0.06108018775522828
1198.0,0.06218131530164395
1197.0,0.06343599486473406
1196.0,0.06489597884855036
1195.0,0.06661395809694559
1194.0,0.06859298644342648
1193.0,0.07078549626260622
1192.0,0.07329750581735506
1191.0,0.07608277688689435
1190.0,0.07904229404455076
1189.0,0.08228448344050654
1188.0,0.08576265223225898
1187.0,0.0892689019566193
1186.0,0.09274991711867164
1185.0,0.0960964733098364
1184.0,0.09919606518963042
1183.0,0.1017686154869033
1182.0,0.10341867249426717
1181.0,0.10408045468998406
1180.0,0.1033635694704158
1179.0,0.10116516193172598
1178.0,0.09750757884139638
1177.0,0.09269615116603047
1176.0,0.08692825969074924
1175.0,0.08045124103115198
1174.0,0.07370901311513656
1173.0,0.06706985716921054
1172.0,0.060880282351513104
1171.0,0.05522131887649295
1170.0,0.05012229596312534
1169.0,0.045564513671517703
1168.0,0.041483896576958834
1167.0,0.03782014709123227
1166.0,0.03461012978487776
1165.0,0.03189079887180224
1164.0,0.02960662792039992
1163.0,0.027612000892527133
1162.0,0.025902996205869
1161.0,0.02438440203310499
1160.0,0.02314585342378117
1159.0,0.022093572362881675
1158.0,0.021317434843055594
1157.0,0.020724852408976924
1156.0,0.020315076172974234
1155.0,0.02004210665933459
1154.0,0.01995115493504329
1153.0,0.020087589665283012
1152.0,0.020406104151069693
1151.0,0.020952673052035298
1150.0,0.021865152601710403
1149.0,0.02314585342378117
1148.0,0.024706084643793647
1147.0,0.026595025589939425
1146.0,0.028770552723758724
1145.0,0.03142366482450232
1144.0,0.03442204208947208
1143.0,0.03786753070176463
1142.0,0.04153168163305643
1141.0,0.04537162249272897
1140.0,0.049245818406496555
1139.0,0.05305672930217464
1138.0,0.0567528748621382
1137.0,0.060231224546650086
1136.0,0.06343599486473406
1135.0,0.0663102910421054
1134.0,0.06884736147670667
1133.0,0.07109230975604719
1132.0,0.07304051161972436
1131.0,0.07463633264589853
1130.0,0.07587584681417514
1129.0,0.07670415934449615
1128.0,0.07701518429111709
1127.0,0.07660053384128362
1126.0,0.07566901529132153
1125.0,0.07427547306393745
1124.0,0.07268097504034388
1123.0,0.07093887591523451
1122.0,0.06925467168888666
1121.0,0.06772922410050963
1120.0,0.06636088747507496
1119.0,0.06519865825346338
1118.0,0.06419054619006714
1117.0,0.06343599486473406
1116.0,0.06303410289212974
1115.0,0.06288348923294618
1114.0,0.0630843190547461
1113.0,0.06363708040225546
1112.0,0.06459351024765114
1111.0,0.0659562809644747
1110.0,0.06777998612288094
1109.0,0.07007043991541217
1108.0,0.07262963696097646
1107.0,0.07541061433058172
1106.0,0.07836553894629472
1105.0,0.08149786036382611
1104.0,0.08470571697731355
1103.0,0.08788427092114603
1102.0,0.0910326995816122
1101.0,0.09420411963213149
1100.0,0.09729018703012282
1099.0,0.10028890542885538
1098.0,0.10325338439259446
1097.0,0.1062937069352865
1096.0,0.10929960230112479
1095.0,0.11221396516162851
1094.0,0.1149782051377024
1093.0,0.11770319906234805
1092.0,0.1203880929341492
1091.0,0.12297438413275108
1090.0,0.12557616941349803
1089.0,0.1281352979118051
1088.0,0.1305922506177981
1087.0,0.13282724882135022
1086.0,0.134659094375416
1085.0,0.13626089265478303
1084.0,0.1375704438939911
1083.0,0.1384058553561347
1082.0,0.1387643813659596
1081.0,0.13864483980673992
1080.0,0.13816700234205515
1079.0,0.13739163603505822
1078.0,0.13620146131949973
1077.0,0.1345998818206986
1076.0,0.13259144347720886
1075.0,0.13006458935314003
1074.0,0.1270865583796048
1073.0,0.12372441132212098
1072.0,0.12004441487725082
1071.0,0.11594135290606156
1070.0,0.11165198982195101
1069.0,0.10734896612269962
1068.0,0.10303309806684524
1067.0,0.09859617317474823
1066.0,0.09431203228814788
1065.0,0.09039048950983108
1064.0,0.08698131625203986
1063.0,0.08412549714230844
1062.0,0.08186477383364066
1061.0,0.08024221949810584
1060.0,0.07930286553008004
1059.0,0.07899019850296574
1058.0,0.07914650387874067
1057.0,0.07966792846041071
1056.0,0.08039897621588898
1055.0,0.08113125661901543
1054.0,0.08186477383364066
1053.0,0.08280969148843575
1052.0,0.08407278830288423
1051.0,0.0854453014823664
1050.0,0.08687520961044104
1049.0,0.0881502035005799
1048.0,0.08932224525729482
1047.0,0.09039048950983108
1046.0,0.09140776115243066
1045.0,0.09242742120144909
1044.0,0.09318028453345462
1043.0,0.0935033402006471
1042.0,0.09334178232840018
1041.0,0.09274991711867164
1040.0,0.09189045960744768
1039.0,0.0908185240221473
1038.0,0.08942895151874142
1037.0,0.08783110394037297
1036.0,0.08602728844902896
1035.0,0.08407278830288423
1034.0,0.08196966321511989
1033.0,0.07987667370927598
1032.0,0.07789763319239285
1031.0,0.07608277688689435
1030.0,0.07448164182257
1029.0,0.07309189829456408
1028.0,0.0718090519612431
1027.0,0.07047889936889606
1026.0,0.06925467168888666
1025.0,0.06813548650796819
1024.0,0.06696850489759454
1023.0,0.06570359318059427
1022.0,0.06419054619006714
1021.0,0.06243196139961715
1020.0,0.06058059667068294
1019.0,0.05858795962645047
1018.0,0.05660442349104544
1017.0,0.054679159207724926
1016.0,0.05286048235717078
1015.0,0.05100054597304693
1014.0,0.04919717703534143
1013.0,0.04740126547022694
1012.0,0.04570923829887308
1011.0,0.044071843103049346
1010.0,0.04248848854552012
1009.0,0.041149548320321694
1008.0,0.03995754427315856
1007.0,0.038911280232103884
1006.0,0.03786753070176463
1005.0,0.03682628362474838
1004.0,0.03588185684851508
1003.0,0.03498654972775217
1002.0,0.034187046963396917
1001.0,0.03352973627071565
1000.0,0.03282657704446046
999.0,0.03217132066984485
998.0,0.03151705144606498
997.0,0.030957032694186815
996.0,0.030444315779156517
995.0,0.029978734171634214
994.0,0.029467170231675777
993.0,0.028956208163971375
992.0,0.028445846553939003
991.0,0.027936083991977778
990.0,0.02751945012352408
989.0,0.027195677663422346
988.0,0.027010773144651168
987.0,0.02677975314776626
986.0,0.026502691267936695
985.0,0.02617967564731627
984.0,0.025856900097785074
983.0,0.02553436426275746
982.0,0.02516604495145991
981.0,0.02484402159331056
980.0,0.024522236834125355
979.0,0.024292536462819925
978.0,0.02406295751688936
977.0,0.023695883447997224
976.0,0.023191662661933732
975.0,0.022733787572707387
974.0,0.022367834754000393
973.0,0.022139270735302752
972.0,0.021956506090037076
971.0,0.021865152601710403
970.0,0.021728158389364705
969.0,0.02159120737696063
968.0,0.02140867317992523
967.0,0.021135015652343103
966.0,0.0209982515252789
965.0,0.021089422824428272
964.0,0.02140867317992523
963.0,0.021865152601710403
962.0,0.022413561996148967
961.0,0.02296266477531872
960.0,0.02355831062115543
959.0,0.024108863598207186
958.0,0.02461415101053266
957.0,0.025028005701930978
956.0,0.025350165561278004
955.0,0.02544225514642018
954.0,0.025258095499050004
953.0,0.024936003904763915
952.0,0.024430342106337877
951.0,0.023925268380126097
950.0,0.023466619608062178
949.0,0.023054249440757957
948.0,0.022642270454698687
947.0,0.02227639471115217
946.0,0.021910826943857264
945.0,0.021636852916117055
944.0,0.0214542995372613
943.0,0.021363051615525652
942.0,0.021271822861508305
941.0,0.021135015652343103
940.0,0.020861530453190058
939.0,0.020542681902151694
938.0,0.020315076172974234
937.0,0.02026956933771462
936.0,0.020315076172974234
935.0,0.020315076172974234
934.0,0.02026956933771462
933.0,0.020178569969774962
932.0,0.02004210665933459
931.0,0.02004210665933459
930.0,0.020087589665283012
929.0,0.02022406727031445
928.0,0.02036058777709271
927.0,0.020497151212598652
926.0,0.02058821736556471
925.0,0.02067930261797568
924.0,0.020724852408976924
923.0,0.020724852408976924
922.0,0.020770406977844713
921.0,0.020907099361673565
920.0,0.0209982515252789
919.0,0.021089422824428272
918.0,0.021135015652343103
917.0,0.021135015652343103
916.0,0.021135015652343103
915.0,0.021135015652343103
914.0,0.021089422824428272
913.0,0.021089422824428272
912.0,0.021043834782408455
911.0,0.021043834782408455
910.0,0.020952673052035298
909.0,0.02081596632558158
908.0,0.020724852408976924
907.0,0.020633757603838898
906.0,0.02067930261797568
905.0,0.020724852408976924
904.0,0.020724852408976924
903.0,0.020633757603838898
902.0,0.020542681902151694
901.0,0.020542681902151694
900.0,0.02058821736556471
899.0,0.02067930261797568
898.0,0.020724852408976924
897.0,0.020724852408976924
896.0,0.02058821736556471
895.0,0.02045162529590483
894.0,0.020315076172974234
893.0,0.02022406727031445
892.0,0.02013307743509718
891.0,0.01995115493504329
890.0,0.019723858922159776
889.0,0.01940584422377989
888.0,0.019042683770379876
887.0,0.018770512579999288
886.0,0.018679826740892747
885.0,0.018815862601645694
884.0,0.019178833355664393
883.0,0.019814763052665052
882.0,0.02067930261797568
881.0,0.021773818325474092
880.0,0.02300845469384938
879.0,0.024430342106337877
878.0,0.026041313893296225
877.0,0.027843464140506313
876.0,0.02969962459782227
875.0,0.03147035562516054
874.0,0.033060836978886954
873.0,0.03456310022373987
872.0,0.03583468937826462
871.0,0.036873558918095295
870.0,0.03763066432997886
869.0,0.038057116858612794
868.0,0.038341651362284734
867.0,0.03838909190871931
866.0,0.03829421599749461
865.0,0.03800971255993524
864.0,0.037583306554248797
863.0,0.037062711569998186
862.0,0.03635381351515665
861.0,0.03545753392086315
860.0,0.03432802877989327
859.0,0.03301397488206215
858.0,0.03147035562516054
857.0,0.029932203450862893
856.0,0.028353117935693284
855.0,0.02696455931306696
854.0,0.025764722556973707
853.0,0.02484402159331056
852.0,0.024154774532432866
851.0,0.023695883447997224
850.0,0.023466619608062178
849.0,0.023466619608062178
848.0,0.023466619608062178
847.0,0.023329119375188556
846.0,0.02300845469384938
845.0,0.02245929405346514
844.0,0.021728158389364705
843.0,0.020861530453190058
842.0,0.02013307743509718
841.0,0.01958753839310856
840.0,0.0190880622231564
839.0,0.018543833477873584
838.0,0.017955020928509757
837.0,0.017457417697056554
836.0,0.017095882207371904
835.0,0.016824927962187042
834.0,0.016554142658660398
833.0,0.01628352608625061
832.0,0.015922966097169144
831.0,0.015652742414136167
830.0,0.01538268676325183
829.0,0.015292705517326866
828.0,0.015247721884586563
827.0,0.015202742910707112
826.0,0.015112798935672522
825.0,0.014932966849499074
824.0,0.014753209197138295
823.0,0.01452861671041239
822.0,0.014393916947563534
821.0,0.014304140310157809
820.0,0.014349026309051105
819.0,0.014393916947563534
818.0,0.014438812226654996
817.0,0.014304140310157809
816.0,0.014079779876432497
815.0,0.01385553528947936
814.0,0.01381070026317599
813.0,0.013900374944870508
812.0,0.013945219230304673
811.0,0.013900374944870508
810.0,0.013765869865004277
809.0,0.013631406429727155
808.0,0.013496984613259544
807.0,0.013407393177789162
806.0,0.013407393177789162
805.0,0.013496984613259544
804.0,0.013586594534531482
803.0,0.013676222949234651
802.0,0.01372104409400876
801.0,0.01372104409400876
800.0,0.01372104409400876
799.0,0.01381070026317599
798.0,0.013990068146738865
797.0,0.014259258949925524
796.0,0.014438812226654996
795.0,0.014438812226654996
794.0,0.014349026309051105
793.0,0.014349026309051105
792.0,0.014438812226654996
791.0,0.014573525916998342
790.0,0.014843078722943437
789.0,0.015292705517326866
788.0,0.015832872853011715
787.0,0.01632861713980338
786.0,0.016734647433454652
785.0,0.017095882207371904
784.0,0.017412209298337533
783.0,0.01781925440359733
782.0,0.018271974638383703
781.0,0.018770512579999288
780.0,0.019178833355664393
779.0,0.01954210772389997
778.0,0.019996628416253603
777.0,0.020542681902151694
776.0,0.0211806132671577
775.0,0.021728158389364705
774.0,0.02227639471115217
773.0,0.02296266477531872
772.0,0.023833499868024743
771.0,0.024798037742147727
770.0,0.025810808881832736
769.0,0.026872146400301444
768.0,0.02798240132598462
767.0,0.02904906565457588
766.0,0.030118356253500123
765.0,0.031190286087141805
764.0,0.032218091924200776
763.0,0.033201453616638954
762.0,0.03432802877989327
761.0,0.03578752703018084
760.0,0.03744126420403626
759.0,0.039006291057664066
758.0,0.04019568349166214
757.0,0.041197296600497646
756.0,0.042057664554595586
755.0,0.042775942156833
754.0,0.04320747962950522
753.0,0.043303435105349175
752.0,0.04301563225723992
751.0,0.04253638427006878
750.0,0.04200982159316968
749.0,0.041483896576958834
748.0,0.04091088563260792
747.0,0.0402909757535701
746.0,0.03981472339538916
745.0,0.03957679292217042
744.0,0.03943409718180235
743.0,0.039338992729018196
742.0,0.03914884628031379
741.0,0.038816290187564384
740.0,0.038151940981675736
739.0,0.03720463014276687
738.0,0.0360705779734416
737.0,0.03498654972775217
736.0,0.03399914237121604
735.0,0.033060836978886954
734.0,0.03207779326948268
733.0,0.030957032694186815
732.0,0.029653123769906697
731.0,0.028306761050139073
730.0,0.02724191609646076
729.0,0.026502691267936695
728.0,0.026041313893296225
727.0,0.025718641122169483
726.0,0.025718641122169483
725.0,0.025949097207122573
724.0,0.026271941311972746
723.0,0.02654885597506529
722.0,0.027010773144651168
721.0,0.028028723600243666
720.0,0.029467170231675777
719.0,0.030770520137356927
718.0,0.03175060589208267
717.0,0.03249882527715853
716.0,0.03310770413286357
715.0,0.033482823553208085
714.0,0.03371743783253667
713.0,0.034046110897937076
712.0,0.03442204208947208
711.0,0.03484535401307465
710.0,0.03522197797762394
709.0,0.03578752703018084
708.0,0.03658998431977123
707.0,0.037488606492403154
706.0,0.038199360808321536
705.0,0.03857890593355173
704.0,0.03857890593355173
703.0,0.03848398855105106
702.0,0.03829421599749461
701.0,0.038057116858612794
700.0,0.03782014709123227
699.0,0.03796231343498735
698.0,0.038721320914956836
697.0,0.03986232513620536
696.0,0.04043395336207234
695.0,0.039767126871487646
694.0,0.03838909190871931
693.0,0.037299268295658994
692.0,0.037299268295658994
691.0,0.038199360808321536
690.0,0.03952922246570112
689.0,0.04062466342415694
688.0,0.04076775094900409
687.0,0.03995754427315856
686.0,0.038911280232103884
685.0,0.038531444649213764
684.0,0.038721320914956836
683.0,0.03886378261277468
682.0,0.038816290187564384
681.0,0.03876880295533702
680.0,0.038816290187564384
679.0,0.038721320914956836
678.0,0.038341651362284734
677.0,0.03796231343498735
676.0,0.03786753070176463
675.0,0.03800971255993524
674.0,0.03829421599749461
673.0,0.03838909190871931
672.0,0.03800971255993524
671.0,0.03701541568300293
670.0,0.03555179208333925
669.0,0.03498654972775217
668.0,0.03644826642590382
667.0,0.03796231343498735
666.0,0.038341651362284734
665.0,0.03848398855105106
664.0,0.03876880295533702
663.0,0.03905380426616856
662.0,0.038911280232103884
661.0,0.03838909190871931
660.0,0.03772539537668518
659.0,0.0369681249461018
658.0,0.03635381351515665
657.0,0.03597620715996652
656.0,0.03583468937826462
655.0,0.035363296211498474
654.0,0.03461012978487776
653.0,0.03385826726096752
652.0,0.03352973627071565
651.0,0.03362357691107709
650.0,0.034187046963396917
649.0,0.03489241415094413
648.0,0.03522197797762394
647.0,0.03456310022373987
646.0,0.03334211579824231
645.0,0.03226486821611996
644.0,0.03179733185715028
643.0,0.031657169041054534
642.0,0.031563752288295444
641.0,0.03147035562516054
640.0,0.03161045815293173
639.0,0.032031037121307726
638.0,0.03273290844021437
637.0,0.03376437590141812
636.0,0.03489241415094413
635.0,0.03559892883726867
634.0,0.035693217696063595
633.0,0.03531618502395939
632.0,0.03465716443937783
631.0,0.03385826726096752
630.0,0.03310770413286357
629.0,0.03273290844021437
628.0,0.032686081712916426
627.0,0.03273290844021437
626.0,0.03263926003405038
625.0,0.032592443402527316
624.0,0.032686081712916426
623.0,0.0329671178412978
622.0,0.03352973627071565
621.0,0.03423403581731388
620.0,0.03484535401307465
619.0,0.03517488211661135
618.0,0.03531618502395939
617.0,0.03531618502395939
616.0,0.0349394793888016
615.0,0.033952178923546183
614.0,0.032873418923587305
613.0,0.03240522732811035
612.0,0.032686081712916426
611.0,0.033060836978886954
610.0,0.03338901331806565
609.0,0.03367050483612166
608.0,0.03385826726096752
607.0,0.03362357691107709
606.0,0.0329671178412978
605.0,0.03207779326948268
604.0,0.030957032694186815
603.0,0.02960662792039992
602.0,0.028863370523193765
601.0,0.029467170231675777
600.0,0.031190286087141805
