cm-1,A
4000.0,0.04402377775167454
3999.0,0.044071843103049346
3998.0,0.044071843103049346
3997.0,0.04411991377462465
3996.0,0.04411991377462465
3995.0,0.044167989767578186
3994.0,0.044167989767578186
3993.0,0.04402377775167454
3992.0,0.04383156952463674
3991.0,0.04368746915880539
3990.0,0.04363944632667782
3989.0,0.043735497301724546
3988.0,0.0439276630048171
3987.0,0.04411991377462465
3986.0,0.04421607108308856
3985.0,0.04426415772233416
3984.0,0.044167989767578186
3983.0,0.04411991377462465
3982.0,0.044071843103049346
3981.0,0.04411991377462465
3980.0,0.044167989767578186
3979.0,0.04421607108308856
3978.0,0.04426415772233416
3977.0,0.044312249686494276
3976.0,0.044360346976747955
3975.0,0.044456557540257124
3974.0,0.04455278942230456
3973.0,0.04464904263234004
3972.0,0.04474531717982
3971.0,0.044793462458058375
3970.0,0.04484161307420642
3969.0,0.044793462458058375
3968.0,0.04469717723830824
3967.0,0.04455278942230456
3966.0,0.04450467081587295
3965.0,0.044456557540257124
3964.0,0.04455278942230456
3963.0,0.04460091336073302
3962.0,0.04469717723830824
3961.0,0.04464904263234004
3960.0,0.04455278942230456
3959.0,0.04440844959427559
3958.0,0.04440844959427559
3957.0,0.04440844959427559
3956.0,0.044456557540257124
3955.0,0.044456557540257124
3954.0,0.04440844959427559
3953.0,0.044312249686494276
3952.0,0.044167989767578186
3951.0,0.044071843103049346
3950.0,0.04397571771932274
3949.0,0.044071843103049346
3948.0,0.04421607108308856
3947.0,0.04440844959427559
3946.0,0.04450467081587295
3945.0,0.04455278942230456
3944.0,0.04460091336073302
3943.0,0.04469717723830824
3942.0,0.044793462458058375
3941.0,0.04484161307420642
3940.0,0.044793462458058375
3939.0,0.044793462458058375
3938.0,0.04484161307420642
3937.0,0.04474531717982
3936.0,0.04455278942230456
3935.0,0.044360346976747955
3934.0,0.044167989767578186
3933.0,0.04411991377462465
3932.0,0.04421607108308856
3931.0,0.044360346976747955
3930.0,0.04464904263234004
3929.0,0.04488976902944808
3928.0,0.04503426894157925
3927.0,0.04503426894157925
3926.0,0.04503426894157925
3925.0,0.04503426894157925
3924.0,0.044986096961949995
3923.0,0.044937930324967956
3922.0,0.04488976902944808
3921.0,0.04488976902944808
3920.0,0.044937930324967956
3919.0,0.04488976902944808
3918.0,0.04488976902944808
3917.0,0.044937930324967956
3916.0,0.04508244626504121
3915.0,0.04513062893352182
3914.0,0.0451788169482068
3913.0,0.04527520902093718
3912.0,0.04537162249272897
3911.0,0.04541983725624266
3910.0,0.04541983725624266
3909.0,0.04537162249272897
3908.0,0.04527520902093718
3907.0,0.0451788169482068
3906.0,0.04503426894157925
3905.0,0.04488976902944808
3904.0,0.04474531717982
3903.0,0.04474531717982
3902.0,0.044793462458058375
3901.0,0.04508244626504121
3900.0,0.0454680573730859
3899.0,0.04570923829887308
3898.0,0.045660991397539874
3897.0,0.045516282844447975
3896.0,0.04541983725624266
3895.0,0.04541983725624266
3894.0,0.04537162249272897
3893.0,0.0451788169482068
3892.0,0.04508244626504121
3891.0,0.044937930324967956
3890.0,0.04464904263234004
3889.0,0.044360346976747955
3888.0,0.04440844959427559
3887.0,0.044937930324967956
3886.0,0.045516282844447975
3885.0,0.045612749855485024
3884.0,0.04522701031028298
3883.0,0.044793462458058375
3882.0,0.04484161307420642
3881.0,0.045323413081356456
3880.0,0.04570923829887308
3879.0,0.04570923829887308
3878.0,0.04537162249272897
3877.0,0.04522701031028298
3876.0,0.04541983725624266
3875.0,0.045660991397539874
3874.0,0.045660991397539874
3873.0,0.045323413081356456
3872.0,0.044986096961949995
3871.0,0.04503426894157925
3870.0,0.045516282844447975
3869.0,0.04575749056067524
3868.0,0.045516282844447975
3867.0,0.04527520902093718
3866.0,0.045516282844447975
3865.0,0.045902279520810385
3864.0,0.045902279520810385
3863.0,0.045660991397539874
3862.0,0.0454680573730859
3861.0,0.045516282844447975
3860.0,0.045660991397539874
3859.0,0.045660991397539874
3858.0,0.045516282844447975
3857.0,0.04527520902093718
3856.0,0.04503426894157925
3855.0,0.04503426894157925
3854.0,0.04541983725624266
3853.0,0.04599883231842972
3852.0,0.04585401117045196
3851.0,0.04508244626504121
3850.0,0.04513062893352182
3849.0,0.04585401117045196
3848.0,0.04633693625290869
3847.0,0.04624030826677128
3846.0,0.046047116768076934
3845.0,0.045902279520810385
3844.0,0.04585401117045196
3843.0,0.04580574818413763
3842.0,0.045564513671517703
3841.0,0.04527520902093718
3840.0,0.04522701031028298
3839.0,0.045660991397539874
3838.0,0.046192002334692894
3837.0,0.04638525830935958
3836.0,0.046192002334692894
3835.0,0.04595055323640551
3834.0,0.04599883231842972
3833.0,0.046192002334692894
3832.0,0.04628861957244457
3831.0,0.046192002334692894
3830.0,0.045902279520810385
3829.0,0.045612749855485024
3828.0,0.045564513671517703
3827.0,0.04570923829887308
3826.0,0.04575749056067524
3825.0,0.045516282844447975
3824.0,0.0451788169482068
3823.0,0.04508244626504121
3822.0,0.04537162249272897
3821.0,0.045902279520810385
3820.0,0.04609540658654021
3819.0,0.045660991397539874
3818.0,0.04537162249272897
3817.0,0.04580574818413763
3816.0,0.04643358574299339
3815.0,0.04667530361081473
3814.0,0.04638525830935958
3813.0,0.04628861957244457
3812.0,0.04667530361081473
3811.0,0.04701393480294458
3810.0,0.04686877481655505
3809.0,0.046481918555007384
3808.0,0.04638525830935958
3807.0,0.04662694927330402
3806.0,0.04672366333269573
3805.0,0.04633693625290869
3804.0,0.04585401117045196
3803.0,0.04580574818413763
3802.0,0.04609540658654021
3801.0,0.04633693625290869
3800.0,0.04609540658654021
3799.0,0.045564513671517703
3798.0,0.045612749855485024
3797.0,0.04624030826677128
3796.0,0.04662694927330402
3795.0,0.04657860031896477
3794.0,0.04638525830935958
3793.0,0.04633693625290869
3792.0,0.04657860031896477
3791.0,0.0469171560879138
3790.0,0.04711073508906982
3789.0,0.04715914332429838
3788.0,0.047062332249019345
3787.0,0.04686877481655505
3786.0,0.04672366333269573
3785.0,0.04677202844014605
3784.0,0.04686877481655505
3783.0,0.04686877481655505
3782.0,0.04682039893436585
3781.0,0.04682039893436585
3780.0,0.04682039893436585
3779.0,0.04677202844014605
3778.0,0.04667530361081473
3777.0,0.04662694927330402
3776.0,0.04682039893436585
3775.0,0.04715914332429838
3774.0,0.047352830241056854
3773.0,0.04715914332429838
3772.0,0.04682039893436585
3771.0,0.04657860031896477
3770.0,0.046481918555007384
3769.0,0.04643358574299339
3768.0,0.04633693625290869
3767.0,0.04643358574299339
3766.0,0.04682039893436585
3765.0,0.04725597598510167
3764.0,0.04740126547022694
3763.0,0.04725597598510167
3762.0,0.04715914332429838
3761.0,0.04725597598510167
3760.0,0.04730440041308315
3759.0,0.04725597598510167
3758.0,0.04711073508906982
3757.0,0.04686877481655505
3756.0,0.04662694927330402
3755.0,0.04638525830935958
3754.0,0.046143701775014145
3753.0,0.045902279520810385
3752.0,0.04585401117045196
3751.0,0.04633693625290869
3750.0,0.04720755695590784
3749.0,0.047643522676209304
3748.0,0.04744970610179822
3747.0,0.04725597598510167
3746.0,0.04744970610179822
3745.0,0.04803141550708934
3744.0,0.048468209457651845
3743.0,0.04803141550708934
3742.0,0.04711073508906982
3741.0,0.0469171560879138
3740.0,0.04725597598510167
3739.0,0.04725597598510167
3738.0,0.04682039893436585
3737.0,0.04643358574299339
3736.0,0.04633693625290869
3735.0,0.04628861957244457
3734.0,0.046143701775014145
3733.0,0.04624030826677128
3732.0,0.04653025674659861
3731.0,0.04677202844014605
3730.0,0.04667530361081473
3729.0,0.04653025674659861
3728.0,0.046481918555007384
3727.0,0.04657860031896477
3726.0,0.04657860031896477
3725.0,0.046481918555007384
3724.0,0.04643358574299339
3723.0,0.04653025674659861
3722.0,0.04677202844014605
3721.0,0.04696554274964315
3720.0,0.04711073508906982
3719.0,0.04730440041308315
3718.0,0.04744970610179822
3717.0,0.04740126547022694
3716.0,0.04715914332429838
3715.0,0.0469171560879138
3714.0,0.04672366333269573
3713.0,0.04667530361081473
3712.0,0.04662694927330402
3711.0,0.04667530361081473
3710.0,0.04662694927330402
3709.0,0.04662694927330402
3708.0,0.04672366333269573
3707.0,0.04701393480294458
3706.0,0.04720755695590784
3705.0,0.04730440041308315
3704.0,0.04730440041308315
3703.0,0.047352830241056854
3702.0,0.04754660357696672
3701.0,0.04774046340917959
3700.0,0.04774046340917959
3699.0,0.047691990337874746
3698.0,0.04774046340917959
3697.0,0.047885915093007325
3696.0,0.047982909952573705
3695.0,0.047982909952573705
3694.0,0.047885915093007325
3693.0,0.0478374257855374
3692.0,0.047691990337874746
3691.0,0.04749815213697639
3690.0,0.04730440041308315
3689.0,0.047352830241056854
3688.0,0.04749815213697639
3687.0,0.04749815213697639
3686.0,0.047691990337874746
3685.0,0.04817696468408794
3684.0,0.04871106272232795
3683.0,0.048905443158337114
3682.0,0.04871106272232795
3681.0,0.04837110616336182
3680.0,0.04817696468408794
3679.0,0.047934409814949674
3678.0,0.04778894189133087
3677.0,0.047982909952573705
3676.0,0.04866248120408234
3675.0,0.049294465226138895
3674.0,0.048905443158337114
3673.0,0.04807992647970649
3672.0,0.047982909952573705
3671.0,0.0486139051197072
3670.0,0.04934311749548925
3669.0,0.04968383607539972
3668.0,0.04953778109440221
3667.0,0.04934311749548925
3666.0,0.04963514562387683
3665.0,0.049927370249842395
3664.0,0.04997609347667353
3663.0,0.04982994019179987
3662.0,0.04963514562387683
3661.0,0.04944043838819989
3660.0,0.049245818406496555
3659.0,0.048954051864180226
3658.0,0.048808242065293994
3657.0,0.048905443158337114
3656.0,0.049245818406496555
3655.0,0.04944043838819989
3654.0,0.049294465226138895
3653.0,0.049148541111453614
3652.0,0.04905128560059957
3651.0,0.04875964967565971
3650.0,0.048565334467987054
3649.0,0.048954051864180226
3648.0,0.04958646063061889
3647.0,0.04997609347667353
3646.0,0.05021979163799939
3645.0,0.05051241005349638
3644.0,0.05085404758005607
3643.0,0.051098239029786274
3642.0,0.05114709380028648
3641.0,0.051049389754451946
3640.0,0.050805225762017736
3639.0,0.05065879322950262
3638.0,0.05051241005349638
3637.0,0.050463626623857394
3636.0,0.05036607620073763
3635.0,0.050414848673348
3634.0,0.05051241005349638
3633.0,0.05056119896349576
3632.0,0.05051241005349638
3631.0,0.050414848673348
3630.0,0.05056119896349576
3629.0,0.051098239029786274
3628.0,0.051684859310652254
3627.0,0.05173378011970464
3626.0,0.05163594401163074
3625.0,0.05192951848105887
3624.0,0.05217431555754937
3623.0,0.052027420754219955
3622.0,0.051684859310652254
3621.0,0.05153812993871654
3620.0,0.05163594401163074
3619.0,0.05188057561946402
3618.0,0.052027420754219955
3617.0,0.052027420754219955
3616.0,0.05207638016827354
3615.0,0.052419250695677544
3614.0,0.05290953578037816
3613.0,0.053351266093323746
3612.0,0.053646002773725554
3611.0,0.053842605077627725
3610.0,0.05403929642243144
3609.0,0.054186873412661596
3608.0,0.05433450056786593
3607.0,0.05438372077326825
3606.0,0.05438372077326825
3605.0,0.05443294655761144
3604.0,0.05448217792216048
3603.0,0.05438372077326825
3602.0,0.05423607688882637
3601.0,0.05413767551038262
3600.0,0.05423607688882637
3599.0,0.05443294655761144
3598.0,0.05453141486818014
3597.0,0.05453141486818014
3596.0,0.05443294655761144
3595.0,0.05443294655761144
3594.0,0.05462990550969615
3593.0,0.05477768336465916
3592.0,0.05477768336465916
3591.0,0.05462990550969615
3590.0,0.05453141486818014
3589.0,0.05462990550969615
3588.0,0.05502409158795207
3587.0,0.05546797900801881
3586.0,0.05561604235915585
3585.0,0.05551732784983132
3584.0,0.05541863577307371
3583.0,0.05546797900801881
3582.0,0.05551732784983132
3581.0,0.05546797900801881
3580.0,0.05536929814372171
3579.0,0.055270639696704205
3578.0,0.05522131887649295
3577.0,0.05531996611868961
3576.0,0.05546797900801881
3575.0,0.05571477931124735
3574.0,0.055961719945581745
3573.0,0.05610995175152733
3572.0,0.05610995175152733
3571.0,0.055912320584565744
3570.0,0.05566540802921782
3569.0,0.05551732784983132
3568.0,0.055566682299785564
3567.0,0.055912320584565744
3566.0,0.05630767289398331
3565.0,0.05630767289398331
3564.0,0.05620880107069848
3563.0,0.05625823416868636
3562.0,0.056456022846545606
3561.0,0.05670338543334519
3560.0,0.05685187064143715
3559.0,0.05680236993107379
3558.0,0.05670338543334519
3557.0,0.05655495097496965
3556.0,0.05655495097496965
3555.0,0.05655495097496965
3554.0,0.05650548409389744
3553.0,0.05650548409389744
3552.0,0.05650548409389744
3551.0,0.05665390164340933
3550.0,0.05690137699451481
3549.0,0.057198533682059516
3548.0,0.05749589383191922
3547.0,0.057743849580535134
3546.0,0.05789269101064454
3545.0,0.05804158346918653
3544.0,0.05809122563440061
3543.0,0.05814087347462649
3542.0,0.05814087347462649
3541.0,0.058190526991161784
3540.0,0.0582898510583536
3539.0,0.05843887976392925
3538.0,0.05848856736559682
3537.0,0.05848856736559682
3536.0,0.0583395216116076
3535.0,0.05824018618530458
3534.0,0.05814087347462649
3533.0,0.05804158346918653
3532.0,0.05789269101064454
3531.0,0.05769424710410598
3530.0,0.05764465029232335
3529.0,0.05769424710410598
3528.0,0.05789269101064454
3527.0,0.05809122563440061
3526.0,0.05824018618530458
3525.0,0.05824018618530458
3524.0,0.0582898510583536
3523.0,0.0583891978463662
3522.0,0.05843887976392925
3521.0,0.05843887976392925
3520.0,0.0583891978463662
3519.0,0.0583395216116076
3518.0,0.0583891978463662
3517.0,0.05858795962645047
3516.0,0.058836539841526925
3515.0,0.05898575629443026
3514.0,0.059035506507200575
3513.0,0.05898575629443026
3512.0,0.058936011780097886
3511.0,0.058936011780097886
3510.0,0.05898575629443026
3509.0,0.05908526241971446
3508.0,0.05918479134919874
3507.0,0.05923456436878238
3506.0,0.05923456436878238
3505.0,0.05918479134919874
3504.0,0.05918479134919874
3503.0,0.05928434309333741
3502.0,0.05938391766259232
3501.0,0.05943371350990989
3500.0,0.05938391766259232
3499.0,0.05933412752417122
3498.0,0.05928434309333741
3497.0,0.05933412752417122
3496.0,0.05948351506743288
3495.0,0.0595831353183347
3494.0,0.05968277842578207
3493.0,0.05973260855398799
3492.0,0.05978244440026481
3491.0,0.05978244440026481
3490.0,0.05968277842578207
3489.0,0.05948351506743288
3488.0,0.05933412752417122
3487.0,0.05918479134919874
3486.0,0.059135024033278416
3485.0,0.05923456436878238
3484.0,0.05948351506743288
3483.0,0.05968277842578207
3482.0,0.05988213325228142
3481.0,0.06003170944866376
3480.0,0.060081579630943294
3479.0,0.060131455540490375
3478.0,0.0601813371786204
3477.0,0.060231224546650086
3476.0,0.06033101647767336
3475.0,0.06048074738138154
3474.0,0.060530669156469985
3473.0,0.060530669156469985
3472.0,0.06048074738138154
3471.0,0.060530669156469985
3470.0,0.06058059667068294
3469.0,0.06068046892176193
3468.0,0.06068046892176193
3467.0,0.06063052992534024
3466.0,0.06048074738138154
3465.0,0.060430831344098435
3464.0,0.060430831344098435
3463.0,0.060530669156469985
3462.0,0.06068046892176193
3461.0,0.06083032037482261
3460.0,0.060880282351513104
3459.0,0.06083032037482261
3458.0,0.060730413661268745
3457.0,0.06058059667068294
3456.0,0.060530669156469985
3455.0,0.06068046892176193
3454.0,0.060880282351513104
3453.0,0.06103020277710969
3452.0,0.06108018775522828
3451.0,0.06093025007657582
3450.0,0.060730413661268745
3449.0,0.060530669156469985
3448.0,0.060430831344098435
3447.0,0.06038092104330195
3446.0,0.060430831344098435
3445.0,0.06048074738138154
3444.0,0.06058059667068294
3443.0,0.06063052992534024
3442.0,0.06068046892176193
3441.0,0.060730413661268745
3440.0,0.06083032037482261
3439.0,0.06098022355133348
3438.0,0.06103020277710969
3437.0,0.06093025007657582
3436.0,0.06078036414518184
3435.0,0.06063052992534024
3434.0,0.06063052992534024
3433.0,0.060730413661268745
3432.0,0.06083032037482261
3431.0,0.06093025007657582
3430.0,0.06098022355133348
3429.0,0.06098022355133348
3428.0,0.06103020277710969
3427.0,0.0611301784870133
3426.0,0.06133019897732073
3425.0,0.06153031163235467
3424.0,0.061680456657844385
3423.0,0.061780582187257016
3422.0,0.061780582187257016
3421.0,0.061830653609679764
3420.0,0.061880730805688344
3419.0,0.06193081377661436
3418.0,0.061880730805688344
3417.0,0.061680456657844385
3416.0,0.06143024377893891
3415.0,0.06128018521761747
3414.0,0.061380218497318895
3413.0,0.061580354206806964
3412.0,0.061780582187257016
3411.0,0.06193081377661436
3410.0,0.06193081377661436
3409.0,0.06193081377661436
3408.0,0.061880730805688344
3407.0,0.061880730805688344
3406.0,0.06193081377661436
3405.0,0.06203099704854709
3404.0,0.06203099704854709
3403.0,0.06193081377661436
3402.0,0.061780582187257016
3401.0,0.06163040254819374
3400.0,0.06163040254819374
3399.0,0.06163040254819374
3398.0,0.06163040254819374
3397.0,0.06163040254819374
3396.0,0.061680456657844385
3395.0,0.06173051653708872
3394.0,0.061830653609679764
3393.0,0.06193081377661436
3392.0,0.06198090252378963
3391.0,0.06203099704854709
3390.0,0.062131203436140536
3389.0,0.06223143295006417
3388.0,0.062131203436140536
3387.0,0.06193081377661436
3386.0,0.06173051653708872
3385.0,0.061680456657844385
3384.0,0.061780582187257016
3383.0,0.06203099704854709
3382.0,0.062131203436140536
3381.0,0.062131203436140536
3380.0,0.06208109735221967
3379.0,0.06198090252378963
3378.0,0.06193081377661436
3377.0,0.06193081377661436
3376.0,0.062131203436140536
3375.0,0.06243196139961715
3374.0,0.06268275223750575
3373.0,0.06283329628496737
3372.0,0.06278310913729457
3371.0,0.06268275223750575
3370.0,0.06258241852286206
3369.0,0.06253226035662252
3368.0,0.06253226035662252
3367.0,0.06248210798265341
3366.0,0.06243196139961715
3365.0,0.062331685600995
3364.0,0.062281556382736136
3363.0,0.06218131530164395
3362.0,0.062131203436140536
3361.0,0.06208109735221967
3360.0,0.06203099704854709
3359.0,0.06208109735221967
3358.0,0.06218131530164395
3357.0,0.062381820606176586
3356.0,0.06248210798265341
3355.0,0.06243196139961715
3354.0,0.062381820606176586
3353.0,0.06223143295006417
3352.0,0.062131203436140536
3351.0,0.06198090252378963
3350.0,0.061880730805688344
3349.0,0.061830653609679764
3348.0,0.061880730805688344
3347.0,0.06198090252378963
3346.0,0.06203099704854709
3345.0,0.06203099704854709
3344.0,0.06208109735221967
3343.0,0.06203099704854709
3342.0,0.06198090252378963
3341.0,0.06198090252378963
3340.0,0.06203099704854709
3339.0,0.062131203436140536
3338.0,0.06218131530164395
3337.0,0.062131203436140536
3336.0,0.06208109735221967
3335.0,0.062131203436140536
3334.0,0.062281556382736136
3333.0,0.062381820606176586
3332.0,0.062381820606176586
3331.0,0.06218131530164395
3330.0,0.06198090252378963
3329.0,0.061830653609679764
3328.0,0.061680456657844385
3327.0,0.06163040254819374
3326.0,0.06163040254819374
3325.0,0.061780582187257016
3324.0,0.06198090252378963
3323.0,0.06208109735221967
3322.0,0.06208109735221967
3321.0,0.06203099704854709
3320.0,0.06193081377661436
3319.0,0.06193081377661436
3318.0,0.061880730805688344
3317.0,0.061830653609679764
3316.0,0.061830653609679764
3315.0,0.06173051653708872
3314.0,0.06163040254819374
3313.0,0.06148027482350815
3312.0,0.06133019897732073
3311.0,0.06133019897732073
3310.0,0.06143024377893891
3309.0,0.06153031163235467
3308.0,0.061580354206806964
3307.0,0.06153031163235467
3306.0,0.06143024377893891
3305.0,0.06133019897732073
3304.0,0.06128018521761747
3303.0,0.06128018521761747
3302.0,0.06143024377893891
3301.0,0.061580354206806964
3300.0,0.061680456657844385
3299.0,0.061680456657844385
3298.0,0.06153031163235467
3297.0,0.06128018521761747
3296.0,0.06103020277710969
3295.0,0.06083032037482261
3294.0,0.060730413661268745
3293.0,0.060730413661268745
3292.0,0.06083032037482261
3291.0,0.060880282351513104
3290.0,0.06098022355133348
3289.0,0.06098022355133348
3288.0,0.06103020277710969
3287.0,0.06103020277710969
3286.0,0.06098022355133348
3285.0,0.06093025007657582
3284.0,0.06098022355133348
3283.0,0.06118017497378969
3282.0,0.06143024377893891
3281.0,0.06163040254819374
3280.0,0.061580354206806964
3279.0,0.06143024377893891
3278.0,0.06123017721688262
3277.0,0.0611301784870133
3276.0,0.0611301784870133
3275.0,0.06118017497378969
3274.0,0.06128018521761747
3273.0,0.06128018521761747
3272.0,0.0611301784870133
3271.0,0.06098022355133348
3270.0,0.06098022355133348
3269.0,0.06103020277710969
3268.0,0.06108018775522828
3267.0,0.0611301784870133
3266.0,0.06103020277710969
3265.0,0.060880282351513104
3264.0,0.060730413661268745
3263.0,0.06063052992534024
3262.0,0.06063052992534024
3261.0,0.06063052992534024
3260.0,0.06063052992534024
3259.0,0.06063052992534024
3258.0,0.06063052992534024
3257.0,0.060530669156469985
3256.0,0.06033101647767336
3255.0,0.060231224546650086
3254.0,0.060231224546650086
3253.0,0.06038092104330195
3252.0,0.06058059667068294
3251.0,0.06068046892176193
3250.0,0.06058059667068294
3249.0,0.06033101647767336
3248.0,0.06003170944866376
3247.0,0.05978244440026481
3246.0,0.05968277842578207
3245.0,0.05968277842578207
3244.0,0.05973260855398799
3243.0,0.05973260855398799
3242.0,0.05973260855398799
3241.0,0.05983228596592505
3240.0,0.05988213325228142
3239.0,0.05998184499233683
3238.0,0.060081579630943294
3237.0,0.0601813371786204
3236.0,0.060231224546650086
3235.0,0.060231224546650086
3234.0,0.060131455540490375
3233.0,0.060081579630943294
3232.0,0.06003170944866376
3231.0,0.05993198626064755
3230.0,0.05983228596592505
3229.0,0.05978244440026481
3228.0,0.05973260855398799
3227.0,0.05973260855398799
3226.0,0.05973260855398799
3225.0,0.05978244440026481
3224.0,0.05983228596592505
3223.0,0.05983228596592505
3222.0,0.05973260855398799
3221.0,0.05953332233647113
3220.0,0.05938391766259232
3219.0,0.05928434309333741
3218.0,0.05928434309333741
3217.0,0.05933412752417122
3216.0,0.05933412752417122
3215.0,0.05928434309333741
3214.0,0.05928434309333741
3213.0,0.05938391766259232
3212.0,0.05948351506743288
3211.0,0.05953332233647113
3210.0,0.05948351506743288
3209.0,0.05943371350990989
3208.0,0.05938391766259232
3207.0,0.05933412752417122
3206.0,0.05933412752417122
3205.0,0.05933412752417122
3204.0,0.05928434309333741
3203.0,0.05918479134919874
3202.0,0.05908526241971446
3201.0,0.058936011780097886
3200.0,0.058737090681050264
3199.0,0.058538260652670315
3198.0,0.05843887976392925
3197.0,0.0583395216116076
3196.0,0.0583891978463662
3195.0,0.0583891978463662
3194.0,0.05843887976392925
3193.0,0.05848856736559682
3192.0,0.0583891978463662
3191.0,0.05824018618530458
3190.0,0.05799194697768684
3189.0,0.05779345772290467
3188.0,0.0575950591438934
3187.0,0.05754547365752294
3186.0,0.0575950591438934
3185.0,0.05769424710410598
3184.0,0.05779345772290467
3183.0,0.05784307153250956
3182.0,0.05784307153250956
3181.0,0.057743849580535134
3180.0,0.0575950591438934
3179.0,0.05744631966579017
3178.0,0.057396751157843484
3177.0,0.05744631966579017
3176.0,0.05754547365752294
3175.0,0.05754547365752294
3174.0,0.05749589383191922
3173.0,0.057396751157843484
3172.0,0.05729763111133224
3171.0,0.0571489934456626
3170.0,0.057049929922901255
3169.0,0.057000406633959555
3168.0,0.057000406633959555
3167.0,0.057000406633959555
3166.0,0.056950888991593285
3165.0,0.05680236993107379
3164.0,0.05660442349104544
3163.0,0.056456022846545606
3162.0,0.056406567231630955
3161.0,0.056456022846545606
3160.0,0.05660442349104544
3159.0,0.05670338543334519
3158.0,0.05670338543334519
3157.0,0.05665390164340933
3156.0,0.05655495097496965
3155.0,0.056406567231630955
3154.0,0.05620880107069848
3153.0,0.05610995175152733
3152.0,0.05610995175152733
3151.0,0.05610995175152733
3150.0,0.056159373598738904
3149.0,0.05610995175152733
3148.0,0.05606053552778367
3147.0,0.055961719945581745
3146.0,0.055912320584565744
3145.0,0.05586292684190197
3144.0,0.055764156206519866
3143.0,0.05566540802921782
3142.0,0.05551732784983132
3141.0,0.05536929814372171
3140.0,0.055270639696704205
3139.0,0.055270639696704205
3138.0,0.05531996611868961
3137.0,0.05536929814372171
3136.0,0.05541863577307371
3135.0,0.05541863577307371
3134.0,0.05531996611868961
3133.0,0.055172003656783764
3132.0,0.0549747987575373
3131.0,0.05477768336465916
3130.0,0.054679159207724926
3129.0,0.05462990550969615
3128.0,0.054679159207724926
3127.0,0.054679159207724926
3126.0,0.054728418492290265
3125.0,0.054728418492290265
3124.0,0.054728418492290265
3123.0,0.054679159207724926
3122.0,0.05462990550969615
3121.0,0.05458065739693696
3120.0,0.05448217792216048
3119.0,0.05438372077326825
3118.0,0.05428528594013993
3117.0,0.05413767551038262
3116.0,0.05389176956309405
3115.0,0.053646002773725554
3114.0,0.05340037498486727
3113.0,0.053351266093323746
3112.0,0.053449489430144714
3111.0,0.053596866100945384
3110.0,0.05369514500652506
3109.0,0.053646002773725554
3108.0,0.05354773498692689
3107.0,0.05340037498486727
3106.0,0.053351266093323746
3105.0,0.05330216275425803
3104.0,0.05325306496641513
3103.0,0.0531548860393769
3102.0,0.05300765925162776
3101.0,0.05295859474477971
3100.0,0.05295859474477971
3099.0,0.05295859474477971
3098.0,0.05300765925162776
3097.0,0.05305672930217464
3096.0,0.05300765925162776
3095.0,0.05290953578037816
3094.0,0.05271335532220167
3093.0,0.05256627811294923
3092.0,0.05256627811294923
3091.0,0.05256627811294923
3090.0,0.05256627811294923
3089.0,0.0525172634430815
3088.0,0.05237025261564554
3087.0,0.05217431555754937
3086.0,0.05212534510230182
3085.0,0.05217431555754937
3084.0,0.05227227303668425
3083.0,0.05232126006306337
3082.0,0.05222329153526162
3081.0,0.05207638016827354
3080.0,0.05188057561946402
3079.0,0.05178270644002936
3078.0,0.05173378011970464
3077.0,0.051684859310652254
3076.0,0.05163594401163074
3075.0,0.05148923116234294
3074.0,0.05144033789103841
3073.0,0.05139145012356372
3072.0,0.05139145012356372
3071.0,0.05129369109514803
3070.0,0.05114709380028648
3069.0,0.051098239029786274
3068.0,0.051049389754451946
3067.0,0.051098239029786274
3066.0,0.051049389754451946
3065.0,0.05100054597304693
3064.0,0.050902874887084115
3063.0,0.050805225762017736
3062.0,0.050707598587974356
3061.0,0.05056119896349576
3060.0,0.050414848673348
3059.0,0.05021979163799939
3058.0,0.05002482217034632
3057.0,0.04982994019179987
3056.0,0.04968383607539972
3055.0,0.04963514562387683
3054.0,0.04963514562387683
3053.0,0.04973253198641148
3052.0,0.04973253198641148
3051.0,0.04968383607539972
3050.0,0.04958646063061889
3049.0,0.04948910701400333
3048.0,0.04939177521576932
3047.0,0.049294465226138895
3046.0,0.049148541111453614
3045.0,0.04900266601119507
3044.0,0.048905443158337114
3043.0,0.048808242065293994
3042.0,0.04875964967565971
3041.0,0.04871106272232795
3040.0,0.04866248120408234
3039.0,0.04851676924770687
3038.0,0.04837110616336182
3037.0,0.04817696468408794
3036.0,0.04803141550708934
3035.0,0.047885915093007325
3034.0,0.04774046340917959
3033.0,0.047691990337874746
3032.0,0.047595060422975566
3031.0,0.04744970610179822
3030.0,0.04725597598510167
3029.0,0.047062332249019345
3028.0,0.04686877481655505
3027.0,0.04677202844014605
3026.0,0.04672366333269573
3025.0,0.04672366333269573
3024.0,0.04662694927330402
3023.0,0.046481918555007384
3022.0,0.046192002334692894
3021.0,0.04595055323640551
3020.0,0.04570923829887308
3019.0,0.0454680573730859
3018.0,0.04522701031028298
3017.0,0.044937930324967956
3016.0,0.04469717723830824
3015.0,0.044456557540257124
3014.0,0.044312249686494276
3013.0,0.04421607108308856
3012.0,0.044167989767578186
3011.0,0.044167989767578186
3010.0,0.04411991377462465
3009.0,0.04397571771932274
3008.0,0.04363944632667782
3007.0,0.04325545471730896
3006.0,0.042967683653061695
3005.0,0.04282386959515394
3004.0,0.04272802000705722
3003.0,0.042584285277331047
3002.0,0.042392712939904875
3001.0,0.04210551278710151
3000.0,0.04181850243505214
2999.0,0.041627267521392675
2998.0,0.041436116778032606
2997.0,0.04129280891271536
2996.0,0.04105406750606355
2995.0,0.04081545726880842
2994.0,0.04062466342415694
2993.0,0.040481623027001756
2992.0,0.040338629726504704
2991.0,0.040005161671583744
2990.0,0.03957679292217042
2989.0,0.03914884628031379
2988.0,0.038721320914956836
2987.0,0.03838909190871931
2986.0,0.038057116858612794
2985.0,0.03782014709123227
2984.0,0.03772539537668518
2983.0,0.03767802727041558
2982.0,0.03763066432997886
2981.0,0.037488606492403154
2980.0,0.037299268295658994
2979.0,0.037062711569998186
2978.0,0.036779013477011624
2977.0,0.036542739883292485
2976.0,0.03630659476198117
2975.0,0.036117771071222604
2974.0,0.03592902944204468
2973.0,0.035740369803151095
2972.0,0.03550466044490741
2971.0,0.03526907894637077
2970.0,0.03517488211661135
2969.0,0.03508070571335731
2968.0,0.03503362516890207
2967.0,0.0349394793888016
2966.0,0.03479829897408804
2965.0,0.03479829897408804
2964.0,0.03479829897408804
2963.0,0.03484535401307465
2962.0,0.03489241415094413
2961.0,0.0349394793888016
2960.0,0.03503362516890207
2959.0,0.03508070571335731
2958.0,0.03508070571335731
2957.0,0.03503362516890207
2956.0,0.0349394793888016
2955.0,0.03484535401307465
2954.0,0.03461012978487776
2953.0,0.03423403581731388
2952.0,0.033905220553829274
2951.0,0.03357665405630694
2950.0,0.033482823553208085
2949.0,0.03357665405630694
2948.0,0.033905220553829274
2947.0,0.03442204208947208
2946.0,0.03517488211661135
2945.0,0.03625938114211591
2944.0,0.03767802727041558
2943.0,0.03952922246570112
2942.0,0.04172287445230238
2941.0,0.044360346976747955
2940.0,0.04730440041308315
2939.0,0.0506099933550872
2938.0,0.054186873412661596
2937.0,0.058190526991161784
2936.0,0.06263258248271053
2935.0,0.06752623532284674
2934.0,0.07288638806623937
2933.0,0.07878187880504961
2932.0,0.08528671302637614
2931.0,0.09242742120144909
2930.0,0.10028890542885538
2929.0,0.10896458468468917
2928.0,0.11827306462358211
2927.0,0.12842706445412122
2926.0,0.13960209487268727
2925.0,0.15224231160766877
2924.0,0.16647041824135633
2923.0,0.18250073813224166
2922.0,0.20017716900668026
2921.0,0.21917882414652712
2920.0,0.2393513804186438
2919.0,0.2599532759485059
2918.0,0.2798406965940432
2917.0,0.29739715865957295
2916.0,0.3104247842400618
2915.0,0.31713320433767533
2914.0,0.3169529617611504
2913.0,0.3106911408763797
2912.0,0.3005091547277956
2911.0,0.2886146209015483
2910.0,0.2766264329810155
2909.0,0.2654401784205238
2908.0,0.255237762934422
2907.0,0.24618721643529784
2906.0,0.23814730553361696
2905.0,0.23113999915704286
2904.0,0.2251182341812037
2903.0,0.21975471613464737
2902.0,0.21502629004559926
2901.0,0.2107013888405589
2900.0,0.20683847075444928
2899.0,0.2033562962148836
2898.0,0.20010831534313467
2897.0,0.19715788726092565
2896.0,0.19422736806433094
2895.0,0.19145144875959463
2894.0,0.1886261029461067
2893.0,0.185819018959813
2892.0,0.18283142761894444
2891.0,0.17979854051435984
2890.0,0.1765909851074554
2889.0,0.17340694606595197
2888.0,0.1701175535565067
2887.0,0.1667891197173912
2886.0,0.163359458427226
2885.0,0.15989390554324223
2884.0,0.1562690348879079
2883.0,0.1527358982292355
2882.0,0.1491088158640761
2881.0,0.14545106418704923
2880.0,0.14170347546611461
2879.0,0.13792828062000573
2878.0,0.13418561983203192
2877.0,0.13035765534840538
2876.0,0.12656313677796316
2875.0,0.12285911021517903
2874.0,0.11935787359571504
2873.0,0.11616828667054757
2872.0,0.11322735694556196
2871.0,0.11041819785037621
2870.0,0.10779405402422748
2869.0,0.10529634739076998
2868.0,0.10297804393963661
2867.0,0.10100072911021085
2866.0,0.09935981601739963
2865.0,0.09821485469640057
2864.0,0.0975619438013351
2863.0,0.09750757884139638
2862.0,0.09816040794877057
2861.0,0.09968750301627338
2860.0,0.1022080180607754
2859.0,0.10612732120491852
2858.0,0.1117081546434846
2857.0,0.11947222180119477
2856.0,0.12971317100740865
2855.0,0.14284849731250704
2854.0,0.15932943866659088
2853.0,0.17947015147648027
2852.0,0.20328693671910347
2851.0,0.2298847052128985
2850.0,0.2569608451950669
2849.0,0.2807516015520539
2848.0,0.29739715865957295
2847.0,0.3042557248026767
2846.0,0.301377570297902
2845.0,0.2912392763096834
2844.0,0.2771193893130608
2843.0,0.261774551857495
2842.0,0.2467234298155816
2841.0,0.23284413391781955
2840.0,0.22054781659593825
2839.0,0.20971483596675822
2838.0,0.20031490909089955
2837.0,0.1921268679966679
2836.0,0.1848873418101875
2835.0,0.17842097208799124
2834.0,0.1726953589102651
2833.0,0.1675549588258891
2832.0,0.16298005145909156
2831.0,0.1588909155318461
2830.0,0.15527437202677397
2829.0,0.15205736115477642
2828.0,0.14917004015146906
2827.0,0.14648430324307138
2826.0,0.1438755557576996
2825.0,0.1414628024303608
2824.0,0.13918303613546223
2823.0,0.13721290176465573
2822.0,0.13537027545448765
2821.0,0.1337717526203528
2820.0,0.1322379753497993
2819.0,0.13076828026902376
2818.0,0.12930354201075
2817.0,0.12784372725170723
2816.0,0.12650501774383094
2815.0,0.12522836281570182
2814.0,0.12407101507707297
2813.0,0.12297438413275108
2812.0,0.12193801870998744
2811.0,0.12090412049992727
2810.0,0.11992991593593283
2809.0,0.1190150095132465
2808.0,0.11815903167507247
2807.0,0.11741854644554883
2806.0,0.11667932161702477
2805.0,0.11594135290606156
2804.0,0.11514801725400226
2803.0,0.11435612816423602
2802.0,0.1136220932414278
2801.0,0.112945621949043
2800.0,0.11238269966426384
2799.0,0.11193288659256306
2798.0,0.1114835389250548
2797.0,0.11097857790477517
2796.0,0.11041819785037621
2795.0,0.10980261378997125
2794.0,0.10918790104487552
2793.0,0.10851829616048003
2792.0,0.10784972209863586
2791.0,0.10718217569042365
2790.0,0.10662666975397506
2789.0,0.1061827760325369
2788.0,0.10573933555301185
2787.0,0.1052410056281079
2786.0,0.10468797552421272
2785.0,0.10402526764093545
2784.0,0.1033635694704158
2783.0,0.1028679566179056
2782.0,0.10248287059947447
2781.0,0.1022080180607754
2780.0,0.10193333935836524
2779.0,0.10171372141087698
2778.0,0.10138450258381404
2777.0,0.10111034407341357
2776.0,0.10078158214862709
2775.0,0.10034361969436434
2774.0,0.09990609845660159
2773.0,0.09941441335003853
2772.0,0.09903237608087578
2771.0,0.09881421986284966
2770.0,0.09865067458435761
2769.0,0.09848719087006019
2768.0,0.09821485469640057
2767.0,0.09794268919153337
2766.0,0.09761631556752848
2765.0,0.09729018703012282
2764.0,0.09696430321150284
2763.0,0.09674718310604158
2762.0,0.09658441423091357
2761.0,0.09642170633694569
2760.0,0.09625905937846135
2759.0,0.0960964733098364
2758.0,0.09582563171583658
2757.0,0.09550084460218011
2756.0,0.09517630019905599
2755.0,0.09485199814398393
2754.0,0.09452793807529569
2753.0,0.09431203228814788
2752.0,0.09409623378338305
2751.0,0.09393445524476318
2750.0,0.09382663635595145
2749.0,0.09366495819490939
2748.0,0.09344948089854999
2747.0,0.09323411045927221
2746.0,0.09301884677114591
2745.0,0.09291125492570451
2744.0,0.09280368972839836
2743.0,0.09274991711867164
2742.0,0.09269615116603047
2741.0,0.09258863922541383
2740.0,0.09248115389337075
2739.0,0.09237369515673355
2738.0,0.0922125568893839
2737.0,0.09205147838772776
2736.0,0.0919441259012328
2735.0,0.09189045960744768
2734.0,0.0917831469106074
2733.0,0.09167586072382083
2732.0,0.09151498112135026
2731.0,0.09140776115243066
2730.0,0.09119340059432579
2729.0,0.09097914578884403
2728.0,0.09076499663169257
2727.0,0.0905509530187334
2726.0,0.09039048950983108
2725.0,0.09023008526723086
2724.0,0.0900697402471693
2723.0,0.0900163050601559
2722.0,0.0900163050601559
2721.0,0.0900697402471693
2720.0,0.0900697402471693
2719.0,0.0900163050601559
2718.0,0.08990945440593179
2717.0,0.08985603893548699
2716.0,0.08980263003399913
2715.0,0.08969583193143116
2714.0,0.08958906008531176
2713.0,0.08937559511079884
2712.0,0.0892155652071629
2711.0,0.08910891135547172
2710.0,0.08910891135547172
2709.0,0.08910891135547172
2708.0,0.08905559425002108
2707.0,0.08900228368935714
2706.0,0.08884239126002336
2705.0,0.08873582900163002
2704.0,0.0885227828938977
2703.0,0.08825662214406838
2702.0,0.08804381092731295
2701.0,0.08788427092114603
2700.0,0.0877779434675845
2699.0,0.0877779434675845
2698.0,0.08772478950118767
2697.0,0.08772478950118767
2696.0,0.08772478950118767
2695.0,0.08772478950118767
2694.0,0.08767164203958999
2693.0,0.08761850108119962
2692.0,0.08745911720936239
2691.0,0.08735289378168276
2690.0,0.0872466963286771
2689.0,0.08719360733870762
2688.0,0.08708744882390307
2687.0,0.08708744882390307
2686.0,0.0870343792958963
2685.0,0.08708744882390307
2684.0,0.08708744882390307
2683.0,0.08708744882390307
2682.0,0.0870343792958963
2681.0,0.08698131625203986
2680.0,0.08682216600953208
2679.0,0.0867160982395816
2678.0,0.08661005636824437
2677.0,0.08655704514060414
2676.0,0.08650404038287651
2675.0,0.08650404038287651
2674.0,0.08661005636824437
2673.0,0.08666307406737683
2672.0,0.0867160982395816
2671.0,0.08666307406737683
2670.0,0.08655704514060414
2669.0,0.08650404038287651
2668.0,0.08645104209348209
2667.0,0.08650404038287651
2666.0,0.08655704514060414
2665.0,0.08655704514060414
2664.0,0.08650404038287651
2663.0,0.08639805027084257
2662.0,0.08634506491338012
2661.0,0.08639805027084257
2660.0,0.08650404038287651
2659.0,0.08661005636824437
2658.0,0.08666307406737683
2657.0,0.08661005636824437
2656.0,0.08645104209348209
2655.0,0.08634506491338012
2654.0,0.086239113587677
2653.0,0.086239113587677
2652.0,0.086239113587677
2651.0,0.086239113587677
2650.0,0.086239113587677
2649.0,0.086239113587677
2648.0,0.08618614761628329
2647.0,0.0861331881037608
2646.0,0.08602728844902896
2645.0,0.08597434830367123
2644.0,0.08597434830367123
2643.0,0.08597434830367123
2642.0,0.08597434830367123
2641.0,0.08602728844902896
2640.0,0.0861331881037608
2639.0,0.08618614761628329
2638.0,0.086239113587677
2637.0,0.08618614761628329
2636.0,0.08618614761628329
2635.0,0.0861331881037608
2634.0,0.08608023504853413
2633.0,0.08602728844902896
2632.0,0.08602728844902896
2631.0,0.08608023504853413
2630.0,0.08608023504853413
2629.0,0.08602728844902896
2628.0,0.08597434830367123
2627.0,0.08586848736910624
2626.0,0.08581556657675371
2625.0,0.08570974433405087
2624.0,0.0856568428805593
2623.0,0.08560394787021397
2622.0,0.08555105930144569
2621.0,0.0854453014823664
2620.0,0.08533956941077814
2619.0,0.08523386307414738
2618.0,0.08518101955252688
2617.0,0.08518101955252688
2616.0,0.08512818245994969
2615.0,0.08507535179485148
2614.0,0.08496970974083906
2613.0,0.08486409337798806
2612.0,0.08475850269380558
2611.0,0.08465293767580806
2610.0,0.08454739831152125
2609.0,0.08460016478773014
2608.0,0.08465293767580806
2607.0,0.08465293767580806
2606.0,0.08460016478773014
2605.0,0.08444188458847957
2604.0,0.08428366205400617
2603.0,0.08417821237960132
2602.0,0.08423093401631587
2601.0,0.08428366205400617
2600.0,0.08438913733853282
2599.0,0.08438913733853282
2598.0,0.08438913733853282
2597.0,0.08438913733853282
2596.0,0.08433639649422697
2595.0,0.08423093401631587
2594.0,0.08417821237960132
2593.0,0.08407278830288423
2592.0,0.08407278830288423
2591.0,0.08407278830288423
2590.0,0.08402008585977572
2589.0,0.08396738981143059
2588.0,0.0839147001562972
2587.0,0.0838620168928248
2586.0,0.08380934001946239
2585.0,0.08370400543686918
2584.0,0.08365134772453975
2583.0,0.08359869639612438
2582.0,0.08359869639612438
2581.0,0.08365134772453975
2580.0,0.08365134772453975
2579.0,0.08365134772453975
2578.0,0.08359869639612438
2577.0,0.08349341288484435
2576.0,0.08344078069888616
2575.0,0.08333553545860273
2574.0,0.08333553545860273
2573.0,0.08333553545860273
2572.0,0.08344078069888616
2571.0,0.08349341288484435
2570.0,0.08344078069888616
2569.0,0.08328292240118751
2568.0,0.08317771540408803
2567.0,0.08317771540408803
2566.0,0.0832303157168639
2565.0,0.08328292240118751
2564.0,0.08328292240118751
2563.0,0.08317771540408803
2562.0,0.0830725338870073
2561.0,0.08301995267961781
2560.0,0.08296737783760655
2559.0,0.08301995267961781
2558.0,0.08312512146131668
2557.0,0.08317771540408803
2556.0,0.08312512146131668
2555.0,0.08291480935943274
2554.0,0.08265206237222844
2553.0,0.08249449044745338
2552.0,0.08244197917456386
2551.0,0.08244197917456386
2550.0,0.08254700807033655
2549.0,0.08275714209253371
2548.0,0.08291480935943274
2547.0,0.08301995267961781
2546.0,0.08301995267961781
2545.0,0.08296737783760655
2544.0,0.08291480935943274
2543.0,0.08286224724355584
2542.0,0.08280969148843575
2541.0,0.08270459905431071
2540.0,0.08254700807033655
2539.0,0.08244197917456386
2538.0,0.08244197917456386
2537.0,0.08254700807033655
2536.0,0.08265206237222844
2535.0,0.08270459905431071
2534.0,0.08265206237222844
2533.0,0.08254700807033655
2532.0,0.08249449044745338
2531.0,0.08249449044745338
2530.0,0.08254700807033655
2529.0,0.08259953204474924
2528.0,0.08265206237222844
2527.0,0.08270459905431071
2526.0,0.08270459905431071
2525.0,0.08275714209253371
2524.0,0.08286224724355584
2523.0,0.08286224724355584
2522.0,0.08280969148843575
2521.0,0.08275714209253371
2520.0,0.08265206237222844
2519.0,0.08259953204474924
2518.0,0.08265206237222844
2517.0,0.08265206237222844
2516.0,0.08259953204474924
2515.0,0.08249449044745338
2514.0,0.08244197917456386
2513.0,0.08244197917456386
2512.0,0.08249449044745338
2511.0,0.08254700807033655
2510.0,0.08265206237222844
2509.0,0.08270459905431071
2508.0,0.08270459905431071
2507.0,0.08259953204474924
2506.0,0.08249449044745338
2505.0,0.08244197917456386
2504.0,0.08238947425013277
2503.0,0.0823369756726251
2502.0,0.0823369756726251
2501.0,0.08238947425013277
2500.0,0.08244197917456386
2499.0,0.08249449044745338
2498.0,0.08249449044745338
2497.0,0.08254700807033655
2496.0,0.08259953204474924
2495.0,0.08259953204474924
2494.0,0.08259953204474924
2493.0,0.08254700807033655
2492.0,0.08244197917456386
2491.0,0.0823369756726251
2490.0,0.08223199755224364
2489.0,0.08217951800630297
2488.0,0.08223199755224364
2487.0,0.08223199755224364
2486.0,0.08228448344050654
2485.0,0.08244197917456386
2484.0,0.08254700807033655
2483.0,0.08265206237222844
2482.0,0.08270459905431071
2481.0,0.08270459905431071
2480.0,0.08265206237222844
2479.0,0.08259953204474924
2478.0,0.08259953204474924
2477.0,0.08265206237222844
2476.0,0.08259953204474924
2475.0,0.08254700807033655
2474.0,0.08249449044745338
2473.0,0.08244197917456386
2472.0,0.08244197917456386
2471.0,0.08249449044745338
2470.0,0.08244197917456386
2469.0,0.08244197917456386
2468.0,0.08244197917456386
2467.0,0.08249449044745338
2466.0,0.08259953204474924
2465.0,0.08265206237222844
2464.0,0.08265206237222844
2463.0,0.08259953204474924
2462.0,0.08249449044745338
2461.0,0.08238947425013277
2460.0,0.08238947425013277
2459.0,0.08238947425013277
2458.0,0.08238947425013277
2457.0,0.08238947425013277
2456.0,0.08238947425013277
2455.0,0.08238947425013277
2454.0,0.08238947425013277
2453.0,0.08238947425013277
2452.0,0.08244197917456386
2451.0,0.08254700807033655
2450.0,0.08265206237222844
2449.0,0.08280969148843575
2448.0,0.08280969148843575
2447.0,0.08275714209253371
2446.0,0.08265206237222844
2445.0,0.08265206237222844
2444.0,0.08265206237222844
2443.0,0.08259953204474924
2442.0,0.08254700807033655
2441.0,0.08254700807033655
2440.0,0.08265206237222844
2439.0,0.08275714209253371
2438.0,0.08280969148843575
2437.0,0.08286224724355584
2436.0,0.08280969148843575
2435.0,0.08275714209253371
2434.0,0.08270459905431071
2433.0,0.08275714209253371
2432.0,0.08286224724355584
2431.0,0.08296737783760655
2430.0,0.08301995267961781
2429.0,0.08301995267961781
2428.0,0.08296737783760655
2427.0,0.08286224724355584
2426.0,0.08280969148843575
2425.0,0.08286224724355584
2424.0,0.08296737783760655
2423.0,0.0830725338870073
2422.0,0.08312512146131668
2421.0,0.08312512146131668
2420.0,0.08312512146131668
2419.0,0.08301995267961781
2418.0,0.08291480935943274
2417.0,0.08286224724355584
2416.0,0.08286224724355584
2415.0,0.08291480935943274
2414.0,0.08296737783760655
2413.0,0.08301995267961781
2412.0,0.0830725338870073
2411.0,0.0830725338870073
2410.0,0.0830725338870073
2409.0,0.0830725338870073
2408.0,0.0830725338870073
2407.0,0.08317771540408803
2406.0,0.0832303157168639
2405.0,0.08328292240118751
2404.0,0.08328292240118751
2403.0,0.0832303157168639
2402.0,0.0832303157168639
2401.0,0.08328292240118751
2400.0,0.08333553545860273
2399.0,0.08333553545860273
2398.0,0.08328292240118751
2397.0,0.08333553545860273
2396.0,0.08333553545860273
2395.0,0.0833881548906541
2394.0,0.08344078069888616
2393.0,0.08349341288484435
2392.0,0.08349341288484435
2391.0,0.08349341288484435
2390.0,0.0833881548906541
2389.0,0.08328292240118751
2388.0,0.0832303157168639
2387.0,0.08317771540408803
2386.0,0.0830725338870073
2385.0,0.08286224724355584
2384.0,0.08265206237222844
2383.0,0.08244197917456386
2382.0,0.08228448344050654
2381.0,0.08212704480115218
2380.0,0.08191721535781271
2379.0,0.08165507103772507
2378.0,0.08139308485501817
2377.0,0.0812359689720008
2376.0,0.0812883346176787
2375.0,0.08149786036382611
2374.0,0.08191721535781271
2373.0,0.0823369756726251
2372.0,0.08244197917456386
2371.0,0.08196966321511989
2370.0,0.08092190762392604
2369.0,0.07987667370927598
2368.0,0.07935499859321249
2367.0,0.07930286553008004
2366.0,0.07956359344924135
2365.0,0.07982447798997727
2364.0,0.07987667370927598
2363.0,0.07987667370927598
2362.0,0.08013774644446192
2361.0,0.08060807322614072
2360.0,0.08092190762392604
2359.0,0.08092190762392604
2358.0,0.0809742354126397
2357.0,0.0812359689720008
2356.0,0.08170748724464438
2355.0,0.08202211740709164
2354.0,0.08217951800630297
2353.0,0.08223199755224364
2352.0,0.08207457793525874
2351.0,0.08181233864107451
2350.0,0.08144546944972642
2349.0,0.08139308485501817
2348.0,0.08149786036382611
2347.0,0.08144546944972642
2346.0,0.08102656950704579
2345.0,0.08039897621588898
2344.0,0.07982447798997727
2343.0,0.0794592834975203
2342.0,0.0794071379151915
2341.0,0.0794592834975203
2340.0,0.0794071379151915
2339.0,0.0794592834975203
2338.0,0.07998108397108505
2337.0,0.08102656950704579
2336.0,0.08207457793525874
2335.0,0.08270459905431071
2334.0,0.08286224724355584
2333.0,0.08280969148843575
2332.0,0.08270459905431071
2331.0,0.08275714209253371
2330.0,0.08291480935943274
2329.0,0.08344078069888616
2328.0,0.08402008585977572
2327.0,0.08449463824562353
2326.0,0.08475850269380558
2325.0,0.08470571697731355
2324.0,0.08438913733853282
2323.0,0.08396738981143059
2322.0,0.08380934001946239
2321.0,0.08412549714230844
2320.0,0.08470571697731355
2319.0,0.08512818245994969
2318.0,0.08512818245994969
2317.0,0.08486409337798806
2316.0,0.08449463824562353
2315.0,0.08428366205400617
2314.0,0.08423093401631587
2313.0,0.08433639649422697
2312.0,0.08433639649422697
2311.0,0.08417821237960132
2310.0,0.08407278830288423
2309.0,0.08412549714230844
2308.0,0.08428366205400617
2307.0,0.08438913733853282
2306.0,0.08438913733853282
2305.0,0.08433639649422697
2304.0,0.08433639649422697
2303.0,0.08444188458847957
2302.0,0.08460016478773014
2301.0,0.08475850269380558
2300.0,0.08475850269380558
2299.0,0.08470571697731355
2298.0,0.08465293767580806
2297.0,0.08460016478773014
2296.0,0.08454739831152125
2295.0,0.08454739831152125
2294.0,0.08460016478773014
2293.0,0.08460016478773014
2292.0,0.08460016478773014
2291.0,0.08460016478773014
2290.0,0.08465293767580806
2289.0,0.08486409337798806
2288.0,0.08512818245994969
2287.0,0.0854453014823664
2286.0,0.0856568428805593
2285.0,0.08576265223225898
2284.0,0.08576265223225898
2283.0,0.0856568428805593
2282.0,0.08560394787021397
2281.0,0.08560394787021397
2280.0,0.08555105930144569
2279.0,0.08549817717268593
2278.0,0.0854453014823664
2277.0,0.0854453014823664
2276.0,0.0854453014823664
2275.0,0.0854453014823664
2274.0,0.08539243222891946
2273.0,0.08539243222891946
2272.0,0.0854453014823664
2271.0,0.08555105930144569
2270.0,0.08555105930144569
2269.0,0.08555105930144569
2268.0,0.08549817717268593
2267.0,0.08555105930144569
2266.0,0.0856568428805593
2265.0,0.08576265223225898
2264.0,0.08586848736910624
2263.0,0.08586848736910624
2262.0,0.08581556657675371
2261.0,0.08570974433405087
2260.0,0.08560394787021397
2259.0,0.08549817717268593
2258.0,0.08549817717268593
2257.0,0.08555105930144569
2256.0,0.0856568428805593
2255.0,0.08576265223225898
2254.0,0.08581556657675371
2253.0,0.08581556657675371
2252.0,0.08581556657675371
2251.0,0.08581556657675371
2250.0,0.08586848736910624
2249.0,0.08602728844902896
2248.0,0.08618614761628329
2247.0,0.086239113587677
2246.0,0.086239113587677
2245.0,0.086239113587677
2244.0,0.086239113587677
2243.0,0.086239113587677
2242.0,0.086239113587677
2241.0,0.0862920860195171
2240.0,0.08634506491338012
2239.0,0.08634506491338012
2238.0,0.08634506491338012
2237.0,0.08634506491338012
2236.0,0.08634506491338012
2235.0,0.08634506491338012
2234.0,0.08639805027084257
2233.0,0.08645104209348209
2232.0,0.08650404038287651
2231.0,0.08650404038287651
2230.0,0.08645104209348209
2229.0,0.08639805027084257
2228.0,0.08639805027084257
2227.0,0.08645104209348209
2226.0,0.08655704514060414
2225.0,0.08666307406737683
2224.0,0.0867691288864394
2223.0,0.08687520961044104
2222.0,0.08692825969074924
2221.0,0.08692825969074924
2220.0,0.08687520961044104
2219.0,0.08682216600953208
2218.0,0.0867691288864394
2217.0,0.0867691288864394
2216.0,0.0867691288864394
2215.0,0.08682216600953208
2214.0,0.08682216600953208
2213.0,0.08687520961044104
2212.0,0.08692825969074924
2211.0,0.08698131625203986
2210.0,0.08692825969074924
2209.0,0.08692825969074924
2208.0,0.08692825969074924
2207.0,0.08692825969074924
2206.0,0.08692825969074924
2205.0,0.08692825969074924
2204.0,0.08687520961044104
2203.0,0.08687520961044104
2202.0,0.08698131625203986
2201.0,0.08708744882390307
2200.0,0.08719360733870762
2199.0,0.08714052483764512
2198.0,0.0870343792958963
2197.0,0.08698131625203986
2196.0,0.08692825969074924
2195.0,0.08692825969074924
2194.0,0.08692825969074924
2193.0,0.08692825969074924
2192.0,0.08692825969074924
2191.0,0.08692825969074924
2190.0,0.08698131625203986
2189.0,0.0870343792958963
2188.0,0.0870343792958963
2187.0,0.08692825969074924
2186.0,0.08687520961044104
2185.0,0.08692825969074924
2184.0,0.0870343792958963
2183.0,0.08719360733870762
2182.0,0.0872997918091396
2181.0,0.08740600224789441
2180.0,0.08751223866767632
2179.0,0.08751223866767632
2178.0,0.08751223866767632
2177.0,0.08751223866767632
2176.0,0.08745911720936239
2175.0,0.08735289378168276
2174.0,0.0872997918091396
2173.0,0.0872997918091396
2172.0,0.08735289378168276
2171.0,0.08745911720936239
2170.0,0.08756536662442538
2169.0,0.08767164203958999
2168.0,0.08772478950118767
2167.0,0.08772478950118767
2166.0,0.08767164203958999
2165.0,0.08761850108119962
2164.0,0.08767164203958999
2163.0,0.08772478950118767
2162.0,0.0877779434675845
2161.0,0.08788427092114603
2160.0,0.08799062441302175
2159.0,0.08804381092731295
2158.0,0.08804381092731295
2157.0,0.08799062441302175
2156.0,0.08799062441302175
2155.0,0.08799062441302175
2154.0,0.08799062441302175
2153.0,0.08804381092731295
2152.0,0.0881502035005799
2151.0,0.08825662214406838
2150.0,0.08836306687055773
2149.0,0.08836306687055773
2148.0,0.0884695376928375
2147.0,0.08857603462370545
2146.0,0.08862929288386212
2145.0,0.08862929288386212
2144.0,0.08857603462370545
2143.0,0.08841629901892434
2142.0,0.08825662214406838
2141.0,0.08825662214406838
2140.0,0.08836306687055773
2139.0,0.0885227828938977
2138.0,0.08862929288386212
2137.0,0.08862929288386212
2136.0,0.08857603462370545
2135.0,0.0885227828938977
2134.0,0.0884695376928375
2133.0,0.0885227828938977
2132.0,0.08868255767596933
2131.0,0.08884239126002336
2130.0,0.08889568219596411
2129.0,0.08889568219596411
2128.0,0.08884239126002336
2127.0,0.08889568219596411
2126.0,0.08889568219596411
2125.0,0.08894897967187343
2124.0,0.08889568219596411
2123.0,0.08889568219596411
2122.0,0.08889568219596411
2121.0,0.08894897967187343
2120.0,0.08894897967187343
2119.0,0.08894897967187343
2118.0,0.08889568219596411
2117.0,0.08878910686244668
2116.0,0.08873582900163002
2115.0,0.08878910686244668
2114.0,0.08873582900163002
2113.0,0.08868255767596933
2112.0,0.08862929288386212
2111.0,0.0885227828938977
2110.0,0.0885227828938977
2109.0,0.08862929288386212
2108.0,0.08873582900163002
2107.0,0.08884239126002336
2106.0,0.08889568219596411
2105.0,0.08900228368935714
2104.0,0.08905559425002108
2103.0,0.08910891135547172
2102.0,0.08916223500731646
2101.0,0.0892155652071629
2100.0,0.0892155652071629
2099.0,0.0892155652071629
2098.0,0.08916223500731646
2097.0,0.08916223500731646
2096.0,0.08910891135547172
2095.0,0.08910891135547172
2094.0,0.08916223500731646
2093.0,0.08932224525729482
2092.0,0.08948231448273347
2091.0,0.08958906008531176
2090.0,0.08964244272712252
2089.0,0.08964244272712252
2088.0,0.08964244272712252
2087.0,0.08964244272712252
2086.0,0.08958906008531176
2085.0,0.08958906008531176
2084.0,0.08958906008531176
2083.0,0.08964244272712252
2082.0,0.08964244272712252
2081.0,0.08969583193143116
2080.0,0.08974922769985194
2079.0,0.08980263003399913
2078.0,0.08980263003399913
2077.0,0.08974922769985194
2076.0,0.08969583193143116
2075.0,0.08964244272712252
2074.0,0.08958906008531176
2073.0,0.08958906008531176
2072.0,0.08964244272712252
2071.0,0.08964244272712252
2070.0,0.08964244272712252
2069.0,0.08969583193143116
2068.0,0.08974922769985194
2067.0,0.08969583193143116
2066.0,0.08964244272712252
2065.0,0.08958906008531176
2064.0,0.08958906008531176
2063.0,0.08964244272712252
2062.0,0.08974922769985194
2061.0,0.08985603893548699
2060.0,0.08996287644694911
2059.0,0.0900163050601559
2058.0,0.0900163050601559
2057.0,0.08996287644694911
2056.0,0.08990945440593179
2055.0,0.08985603893548699
2054.0,0.08985603893548699
2053.0,0.08996287644694911
2052.0,0.09012318200960712
2051.0,0.09033701484598189
2050.0,0.09049745859458458
2049.0,0.09049745859458458
2048.0,0.09049745859458458
2047.0,0.09044397075882471
2046.0,0.09044397075882471
2045.0,0.09039048950983108
2044.0,0.09033701484598189
2043.0,0.09028354676565531
2042.0,0.09028354676565531
2041.0,0.09033701484598189
2040.0,0.09039048950983108
2039.0,0.09044397075882471
2038.0,0.09044397075882471
2037.0,0.09044397075882471
2036.0,0.09044397075882471
2035.0,0.09049745859458458
2034.0,0.0905509530187334
2033.0,0.09065796163869155
2032.0,0.09076499663169257
2031.0,0.09087205801073917
2030.0,0.09092559859909577
2029.0,0.09097914578884403
2028.0,0.09097914578884403
2027.0,0.09097914578884403
2026.0,0.09092559859909577
2025.0,0.09092559859909577
2024.0,0.09097914578884403
2023.0,0.09108625997902897
2022.0,0.09113982698272349
2021.0,0.09124698081546634
2020.0,0.09130056764777605
2019.0,0.09124698081546634
2018.0,0.09113982698272349
2017.0,0.09119340059432579
2016.0,0.09130056764777605
2015.0,0.09140776115243066
2014.0,0.09140776115243066
2013.0,0.09135416109288674
2012.0,0.09124698081546634
2011.0,0.09113982698272349
2010.0,0.09108625997902897
2009.0,0.09113982698272349
2008.0,0.09119340059432579
2007.0,0.09119340059432579
2006.0,0.09113982698272349
2005.0,0.09108625997902897
2004.0,0.09097914578884403
2003.0,0.09092559859909577
2002.0,0.09092559859909577
2001.0,0.09097914578884403
2000.0,0.09108625997902897
1999.0,0.09113982698272349
1998.0,0.09119340059432579
1997.0,0.09124698081546634
1996.0,0.09124698081546634
1995.0,0.09124698081546634
1994.0,0.09113982698272349
1993.0,0.0910326995816122
1992.0,0.09097914578884403
1991.0,0.0910326995816122
1990.0,0.09108625997902897
1989.0,0.09119340059432579
1988.0,0.09130056764777605
1987.0,0.09135416109288674
1986.0,0.09135416109288674
1985.0,0.09130056764777605
1984.0,0.09135416109288674
1983.0,0.09140776115243066
1982.0,0.09151498112135026
1981.0,0.0916222275676053
1980.0,0.09167586072382083
1979.0,0.09167586072382083
1978.0,0.09167586072382083
1977.0,0.0916222275676053
1976.0,0.0916222275676053
1975.0,0.09156860103399356
1974.0,0.09146136782804049
1973.0,0.09140776115243066
1972.0,0.09140776115243066
1971.0,0.09151498112135026
1970.0,0.09156860103399356
1969.0,0.09156860103399356
1968.0,0.09156860103399356
1967.0,0.09167586072382083
1966.0,0.0917831469106074
1965.0,0.09189045960744768
1964.0,0.0919977988274463
1963.0,0.09205147838772776
1962.0,0.09210516458371698
1961.0,0.09205147838772776
1960.0,0.0919977988274463
1959.0,0.0919441259012328
1958.0,0.09189045960744768
1957.0,0.09189045960744768
1956.0,0.0919441259012328
1955.0,0.09205147838772776
1954.0,0.09210516458371698
1953.0,0.09215885741705532
1952.0,0.09215885741705532
1951.0,0.09215885741705532
1950.0,0.09215885741705532
1949.0,0.0922125568893839
1948.0,0.09231997575758011
1947.0,0.09237369515673355
1946.0,0.09237369515673355
1945.0,0.09237369515673355
1944.0,0.09237369515673355
1943.0,0.09242742120144909
1942.0,0.09237369515673355
1941.0,0.09231997575758011
1940.0,0.09226626300234453
1939.0,0.09231997575758011
1938.0,0.09248115389337075
1937.0,0.09264239186882706
1936.0,0.09269615116603047
1935.0,0.09274991711867164
1934.0,0.09274991711867164
1933.0,0.09280368972839836
1932.0,0.09296504751658308
1931.0,0.09307265269104414
1930.0,0.09318028453345462
1929.0,0.09312646527792956
1928.0,0.09301884677114591
1927.0,0.09291125492570451
1926.0,0.09280368972839836
1925.0,0.09269615116603047
1924.0,0.09269615116603047
1923.0,0.09269615116603047
1922.0,0.09274991711867164
1921.0,0.09280368972839836
1920.0,0.09285746899685954
1919.0,0.09291125492570451
1918.0,0.09296504751658308
1917.0,0.09301884677114591
1916.0,0.09296504751658308
1915.0,0.09301884677114591
1914.0,0.09301884677114591
1913.0,0.09301884677114591
1912.0,0.09296504751658308
1911.0,0.09291125492570451
1910.0,0.09285746899685954
1909.0,0.09291125492570451
1908.0,0.09301884677114591
1907.0,0.09312646527792956
1906.0,0.09323411045927221
1905.0,0.09334178232840018
1904.0,0.09344948089854999
1903.0,0.09361107884716913
1902.0,0.09366495819490939
1901.0,0.0937727369476411
1900.0,0.09388054245443844
1899.0,0.09398837472858723
1898.0,0.09409623378338305
1897.0,0.09415017335768128
1896.0,0.09420411963213149
1895.0,0.09425807260839858
1894.0,0.09436599867304518
1893.0,0.09436599867304518
1892.0,0.09431203228814788
1891.0,0.09425807260839858
1890.0,0.09420411963213149
1889.0,0.09415017335768128
1888.0,0.09415017335768128
1887.0,0.09404230090757282
1886.0,0.09398837472858723
1885.0,0.09398837472858723
1884.0,0.09404230090757282
1883.0,0.09415017335768128
1882.0,0.09420411963213149
1881.0,0.09415017335768128
1880.0,0.09409623378338305
1879.0,0.09404230090757282
1878.0,0.09404230090757282
1877.0,0.09404230090757282
1876.0,0.09409623378338305
1875.0,0.09415017335768128
1874.0,0.09415017335768128
1873.0,0.09409623378338305
1872.0,0.09398837472858723
1871.0,0.09388054245443844
1870.0,0.09382663635595145
1869.0,0.09393445524476318
1868.0,0.09404230090757282
1867.0,0.09415017335768128
1866.0,0.09431203228814788
1865.0,0.09441997176475758
1864.0,0.09452793807529569
1863.0,0.09447395156495153
1862.0,0.09436599867304518
1861.0,0.09431203228814788
1860.0,0.09425807260839858
1859.0,0.09425807260839858
1858.0,0.09420411963213149
1857.0,0.09425807260839858
1856.0,0.09431203228814788
1855.0,0.09436599867304518
1854.0,0.09441997176475758
1853.0,0.09458193129745807
1852.0,0.09468993788391455
1851.0,0.09474395125154866
1850.0,0.09474395125154866
1849.0,0.09474395125154866
1848.0,0.09463593123310776
1847.0,0.09447395156495153
1846.0,0.09436599867304518
1845.0,0.09431203228814788
1844.0,0.09441997176475758
1843.0,0.09458193129745807
1842.0,0.09463593123310776
1841.0,0.09468993788391455
1840.0,0.09474395125154866
1839.0,0.09474395125154866
1838.0,0.09474395125154866
1837.0,0.09479797133768142
1836.0,0.09490603167212863
1835.0,0.09490603167212863
1834.0,0.09485199814398393
1833.0,0.09479797133768142
1832.0,0.09474395125154866
1831.0,0.09468993788391455
1830.0,0.09474395125154866
1829.0,0.09485199814398393
1828.0,0.09490603167212863
1827.0,0.0950141189006366
1826.0,0.09517630019905599
1825.0,0.09523037409340485
1824.0,0.09528445472131919
1823.0,0.09528445472131919
1822.0,0.09539263618455207
1821.0,0.09550084460218011
1820.0,0.09560907998763835
1819.0,0.09566320779750503
1818.0,0.09566320779750503
1817.0,0.09566320779750503
1816.0,0.09566320779750503
1815.0,0.09560907998763835
1814.0,0.0955549589230904
1813.0,0.09550084460218011
1812.0,0.09544673702322726
1811.0,0.09539263618455207
1810.0,0.09533854208447545
1809.0,0.09539263618455207
1808.0,0.09550084460218011
1807.0,0.09560907998763835
1806.0,0.09566320779750503
1805.0,0.09566320779750503
1804.0,0.09566320779750503
1803.0,0.09571734235437201
1802.0,0.09571734235437201
1801.0,0.0957714836599215
1800.0,0.09582563171583658
1799.0,0.09582563171583658
1798.0,0.09582563171583658
1797.0,0.09587978652380036
1796.0,0.09593394808549704
1795.0,0.09593394808549704
1794.0,0.09593394808549704
1793.0,0.09598811640261173
1792.0,0.0960964733098364
1791.0,0.096150661903319
1790.0,0.0960964733098364
1789.0,0.096150661903319
1788.0,0.09625905937846135
1787.0,0.09625905937846135
1786.0,0.09625905937846135
1785.0,0.09631326826349751
1784.0,0.09631326826349751
1783.0,0.09636748391576244
1782.0,0.09636748391576244
1781.0,0.09642170633694569
1780.0,0.09636748391576244
1779.0,0.09636748391576244
1778.0,0.09636748391576244
1777.0,0.09642170633694569
1776.0,0.09642170633694569
1775.0,0.09631326826349751
1774.0,0.096150661903319
1773.0,0.09620485725896466
1772.0,0.09642170633694569
1771.0,0.09658441423091357
1770.0,0.09669292003582619
1769.0,0.09685572959046151
1768.0,0.09707290398273716
1767.0,0.09718153191774648
1766.0,0.09718153191774648
1765.0,0.0972358560759139
1764.0,0.09734452478207412
1763.0,0.09739886933346864
1762.0,0.09745322068600859
1761.0,0.09745322068600859
1760.0,0.09745322068600859
1759.0,0.0975619438013351
1758.0,0.09772507952549825
1757.0,0.09783387072894878
1756.0,0.09794268919153337
1755.0,0.09794268919153337
1754.0,0.09799710864927058
1753.0,0.09810596802617932
1752.0,0.09821485469640057
1751.0,0.09832376867362447
1750.0,0.09832376867362447
1749.0,0.09832376867362447
1748.0,0.09843270997155007
1747.0,0.09859617317474823
1746.0,0.09865067458435761
1745.0,0.09870518283443275
1744.0,0.09875969792669093
1743.0,0.09881421986284966
1742.0,0.09892328427374508
1741.0,0.09903237608087578
1740.0,0.09930522554760213
1739.0,0.09957824654226233
1738.0,0.09968750301627338
1737.0,0.09979678698310646
1736.0,0.09985143928065598
1735.0,0.09985143928065598
1734.0,0.09979678698310646
1733.0,0.09968750301627338
1732.0,0.09957824654226233
1731.0,0.09968750301627338
1730.0,0.09990609845660159
1729.0,0.10007011727213588
1728.0,0.10017949757290379
1727.0,0.10023419805561384
1726.0,0.10028890542885538
1725.0,0.10028890542885538
1724.0,0.10023419805561384
1723.0,0.10023419805561384
1722.0,0.10023419805561384
1721.0,0.10028890542885538
1720.0,0.10045306890913297
1719.0,0.1005625457138224
1718.0,0.10067205012234592
1717.0,0.10072681268239614
1716.0,0.10072681268239614
1715.0,0.10078158214862709
1714.0,0.10089114180660053
1713.0,0.10105553313349058
1712.0,0.10116516193172598
1711.0,0.10116516193172598
1710.0,0.10116516193172598
1709.0,0.10111034407341357
1708.0,0.10105553313349058
1707.0,0.10100072911021085
1706.0,0.10100072911021085
1705.0,0.10105553313349058
1704.0,0.1012199867101744
1703.0,0.10149421446564144
1702.0,0.10182351650232357
1701.0,0.10231793820358015
1700.0,0.10281292341984649
1699.0,0.1028679566179056
1698.0,0.10275789719463457
1697.0,0.1028679566179056
1696.0,0.10308815917397474
1695.0,0.10297804393963661
1694.0,0.10281292341984649
1693.0,0.10297804393963661
1692.0,0.10341867249426717
1691.0,0.10363915453068362
1690.0,0.10369429253391926
1689.0,0.10374943753836186
1688.0,0.10385974855798041
1687.0,0.10402526764093545
1686.0,0.10408045468998406
1685.0,0.10413564875270076
1684.0,0.10441172433373724
1683.0,0.10452220372428545
1682.0,0.10452220372428545
1681.0,0.10485381062400778
1680.0,0.1052410056281079
1679.0,0.10551778498990938
1678.0,0.10573933555301185
1677.0,0.10601643278815298
1676.0,0.1063491830140364
1675.0,0.10657115822045493
1674.0,0.10651565378151395
1673.0,0.1063491830140364
1672.0,0.1062937069352865
1671.0,0.10640466618011679
1670.0,0.10657115822045493
1669.0,0.10684878687013422
1668.0,0.10707101764479421
1667.0,0.10729336219433439
1666.0,0.10746019534136453
1665.0,0.10757145305477
1664.0,0.10768273927751948
1663.0,0.10784972209863586
1662.0,0.10796107965870849
1661.0,0.10801676914803293
1660.0,0.10801676914803293
1659.0,0.10812816955441629
1658.0,0.10812816955441629
1657.0,0.10801676914803293
1656.0,0.10784972209863586
1655.0,0.10773839308446487
1654.0,0.10790539730951965
1653.0,0.10868560061785693
1652.0,0.10868560061785693
1651.0,0.1082953237608173
1650.0,0.10835105612944096
1649.0,0.10846254232743546
1648.0,0.10840679565103484
1647.0,0.10857405715200596
1646.0,0.10874138309586101
1645.0,0.10879717273970457
1644.0,0.10890877353227624
1643.0,0.10902040301031102
1642.0,0.10902040301031102
1641.0,0.10890877353227624
1640.0,0.10874138309586101
1639.0,0.10851829616048003
1638.0,0.1082953237608173
1637.0,0.10835105612944096
1636.0,0.10885296955122903
1635.0,0.10941133229451272
1634.0,0.10952309103982927
1633.0,0.10952309103982927
1632.0,0.10957898119908571
1631.0,0.10957898119908571
1630.0,0.10952309103982927
1629.0,0.10952309103982927
1628.0,0.10963487855187593
1627.0,0.10969078310005154
1626.0,0.10974669484546551
1625.0,0.10963487855187593
1624.0,0.10946720807225518
1623.0,0.10941133229451272
1622.0,0.10941133229451272
1621.0,0.10941133229451272
1620.0,0.10941133229451272
1619.0,0.10946720807225518
1618.0,0.10946720807225518
1617.0,0.10952309103982927
1616.0,0.10941133229451272
1615.0,0.10913206118855912
1614.0,0.10896458468468917
1613.0,0.10890877353227624
1612.0,0.10874138309586101
1611.0,0.10846254232743546
1610.0,0.1081838804751396
1609.0,0.10801676914803293
1608.0,0.10784972209863586
1607.0,0.10773839308446487
1606.0,0.10768273927751948
1605.0,0.10762709260156367
1604.0,0.10757145305477
1603.0,0.10746019534136453
1602.0,0.10734896612269962
1601.0,0.10718217569042365
1600.0,0.10701544928928342
1599.0,0.10690433390377163
1598.0,0.10690433390377163
1597.0,0.10695988804288215
1596.0,0.10701544928928342
1595.0,0.10707101764479421
1594.0,0.10701544928928342
1593.0,0.10695988804288215
1592.0,0.10684878687013422
1591.0,0.10679324694015202
1590.0,0.10662666975397506
1589.0,0.10651565378151395
1588.0,0.10646015643533868
1587.0,0.10651565378151395
1586.0,0.10657115822045493
1585.0,0.10662666975397506
1584.0,0.10662666975397506
1583.0,0.10651565378151395
1582.0,0.10646015643533868
1581.0,0.1063491830140364
1580.0,0.10623823794205656
1579.0,0.10612732120491852
1578.0,0.10601643278815298
1577.0,0.10601643278815298
1576.0,0.1060718734573931
1575.0,0.10601643278815298
1574.0,0.10596099919539115
1573.0,0.1060718734573931
1572.0,0.1061827760325369
1571.0,0.1061827760325369
1570.0,0.1060718734573931
1569.0,0.10601643278815298
1568.0,0.10601643278815298
1567.0,0.10601643278815298
1566.0,0.10612732120491852
1565.0,0.10612732120491852
1564.0,0.10612732120491852
1563.0,0.10612732120491852
1562.0,0.1061827760325369
1561.0,0.10612732120491852
1560.0,0.1060718734573931
1559.0,0.10679324694015202
1558.0,0.10707101764479421
1557.0,0.10657115822045493
1556.0,0.10657115822045493
1555.0,0.10657115822045493
1554.0,0.10640466618011679
1553.0,0.10623823794205656
1552.0,0.10623823794205656
1551.0,0.1062937069352865
1550.0,0.1063491830140364
1549.0,0.10646015643533868
1548.0,0.10646015643533868
1547.0,0.10646015643533868
1546.0,0.10623823794205656
1545.0,0.10596099919539115
1544.0,0.10579474085791629
1543.0,0.10573933555301185
1542.0,0.10562854614376227
1541.0,0.10573933555301185
1540.0,0.10623823794205656
1539.0,0.10623823794205656
1538.0,0.10585015323207791
1537.0,0.10573933555301185
1536.0,0.10579474085791629
1535.0,0.10568393731556158
1534.0,0.10535169620648288
1533.0,0.10507502264045665
1532.0,0.10496440254767725
1531.0,0.10496440254767725
1530.0,0.10496440254767725
1529.0,0.10490910306560064
1528.0,0.10479852522110678
1527.0,0.1047432468551055
1526.0,0.10463271122663809
1525.0,0.10457745396059215
1524.0,0.10452220372428545
1523.0,0.10430127304069425
1522.0,0.10391491457671487
1521.0,0.10363915453068362
1520.0,0.10358402352687701
1519.0,0.10363915453068362
1518.0,0.10363915453068362
1517.0,0.10363915453068362
1516.0,0.10369429253391926
1515.0,0.10369429253391926
1514.0,0.10363915453068362
1513.0,0.10352889952072264
1512.0,0.10330847343711591
1511.0,0.10292299679057959
1510.0,0.10237290870955862
1509.0,0.10193333935836524
1508.0,0.10187842445889239
1507.0,0.10253786198693682
1506.0,0.1028679566179056
1505.0,0.10264786565568684
1504.0,0.10259286033841963
1503.0,0.10242788617426934
1502.0,0.10204318999304807
1501.0,0.10160395406999112
1500.0,0.10127481841050656
1499.0,0.10100072911021085
1498.0,0.10067205012234592
1497.0,0.10045306890913297
1496.0,0.10028890542885538
1495.0,0.10001543745060903
1494.0,0.09963287134352972
1493.0,0.09930522554760213
1492.0,0.09903237608087578
1491.0,0.09865067458435761
1490.0,0.09799710864927058
1489.0,0.09745322068600859
1488.0,0.09707290398273716
1487.0,0.09663866374468144
1486.0,0.09598811640261173
1485.0,0.09533854208447545
1484.0,0.09474395125154866
1483.0,0.09398837472858723
1482.0,0.09291125492570451
1481.0,0.09183679994445204
1480.0,0.09108625997902897
1479.0,0.09071147583774919
1478.0,0.09113982698272349
1477.0,0.0937727369476411
1476.0,0.1005078038618683
1475.0,0.11260778102815316
1474.0,0.1311205537629121
1473.0,0.1545918603782066
1472.0,0.17282465170130723
1471.0,0.17730898922394545
1470.0,0.17411970106382046
1469.0,0.17031035910102887
1468.0,0.1675549588258891
1467.0,0.166151950468852
1466.0,0.16774662980299215
1465.0,0.17496355877864622
1464.0,0.18681946741398825
1463.0,0.19715788726092565
1462.0,0.20169471797802352
1461.0,0.19997064075586568
1460.0,0.19314197048118253
1459.0,0.182963773949971
1458.0,0.17153345264732156
1457.0,0.16178077809237412
1456.0,0.15558495952617557
1455.0,0.15218065270476067
1454.0,0.14984407757790774
1453.0,0.14764201633217278
1452.0,0.14526898278605782
1451.0,0.14302956651750764
1450.0,0.14122226269455074
1449.0,0.13978181533124334
1448.0,0.13846558914096208
1447.0,0.13727247168202528
1446.0,0.1363797797296844
1445.0,0.13572630319562085
1444.0,0.13513308567147386
1443.0,0.134659094375416
1442.0,0.13418561983203192
1441.0,0.1337717526203528
1440.0,0.13329924395750092
1439.0,0.13282724882135022
1438.0,0.13241467345296387
1437.0,0.13200248965504868
1436.0,0.13141433344123432
1435.0,0.13076828026902376
1434.0,0.13024040521758962
1433.0,0.12977172098820566
1432.0,0.12912810493225724
1431.0,0.12842706445412122
1430.0,0.1277271537757949
1429.0,0.1270865583796048
1428.0,0.12644690648638135
1427.0,0.12586622117202761
1426.0,0.12534426740189897
1425.0,0.12482294018529605
1424.0,0.12424442074194553
1423.0,0.12383991517437187
1422.0,0.12360893818081231
1421.0,0.12343578601615435
1420.0,0.12320502379929943
1419.0,0.12285911021517903
1418.0,0.12257105921178035
1417.0,0.12234075588839133
1416.0,0.12216810850710624
1415.0,0.1219955297319748
1414.0,0.12176553132495593
1413.0,0.12153565465853111
1412.0,0.1213058996038916
1411.0,0.12107626603243293
1410.0,0.12090412049992727
1409.0,0.1207320431753871
1408.0,0.12050271275057156
1407.0,0.12033079436794658
1406.0,0.1202162199095842
1405.0,0.1201016756699902
1404.0,0.11987267778337518
1403.0,0.11970100857424737
1402.0,0.11952940719622163
1401.0,0.11935787359571504
1400.0,0.11918640771920863
1399.0,0.1190150095132465
1398.0,0.11895789180659433
1397.0,0.11895789180659433
1396.0,0.11890078161098283
1395.0,0.11884367892443626
1394.0,0.11884367892443626
1393.0,0.11872949607064243
1392.0,0.11861534322942724
1391.0,0.11850122038501709
1390.0,0.11844417020668851
1389.0,0.1183871275216517
1388.0,0.1183871275216517
1387.0,0.11850122038501709
1386.0,0.11855827805860697
1385.0,0.11855827805860697
1384.0,0.11850122038501709
1383.0,0.11855827805860697
1382.0,0.11872949607064243
1381.0,0.1190150095132465
1380.0,0.11935787359571504
1379.0,0.11970100857424737
1378.0,0.1199871616332282
1377.0,0.1201016756699902
1376.0,0.12004441487725082
1375.0,0.12004441487725082
1374.0,0.12027350336042275
1373.0,0.12067469921519258
1372.0,0.12119106764079435
1371.0,0.12170805075020397
1370.0,0.12211057462851604
1369.0,0.12239832027072817
1368.0,0.12257105921178035
1367.0,0.12268625668776156
1366.0,0.12274386688641381
1365.0,0.12262865413022594
1364.0,0.12251347193039863
1363.0,0.12234075588839133
1362.0,0.12228319913502328
1361.0,0.12216810850710624
1360.0,0.1219955297319748
1359.0,0.12182301950849372
1358.0,0.12170805075020397
1357.0,0.12165057778222454
1356.0,0.12165057778222454
1355.0,0.12170805075020397
1354.0,0.12188051530283239
1353.0,0.12211057462851604
1352.0,0.12222565000860186
1351.0,0.12234075588839133
1350.0,0.12234075588839133
1349.0,0.12228319913502328
1348.0,0.12216810850710624
1347.0,0.12205304837081177
1346.0,0.1219955297319748
1345.0,0.12193801870998744
1344.0,0.12193801870998744
1343.0,0.12193801870998744
1342.0,0.12188051530283239
1341.0,0.12182301950849372
1340.0,0.12170805075020397
1339.0,0.12159311241900439
1338.0,0.12142076193778073
1337.0,0.1213058996038916
1336.0,0.12124847982699793
1335.0,0.12119106764079435
1334.0,0.12124847982699793
1333.0,0.12124847982699793
1332.0,0.12124847982699793
1331.0,0.12113366304327466
1330.0,0.12107626603243293
1329.0,0.12107626603243293
1328.0,0.12113366304327466
1327.0,0.12119106764079435
1326.0,0.12124847982699793
1325.0,0.1213058996038916
1324.0,0.12136332697348307
1323.0,0.12136332697348307
1322.0,0.12147820449879343
1321.0,0.12159311241900439
1320.0,0.12182301950849372
1319.0,0.12205304837081177
1318.0,0.12234075588839133
1317.0,0.12251347193039863
1316.0,0.12257105921178035
1315.0,0.12262865413022594
1314.0,0.12268625668776156
1313.0,0.12285911021517903
1312.0,0.12308968865537295
1311.0,0.1233203895807995
1310.0,0.12355121312165873
1309.0,0.12378215940835768
1308.0,0.12389767862220635
1307.0,0.12412880927263426
1306.0,0.12436006299583169
1305.0,0.12453358413361437
1304.0,0.12470717462899183
1303.0,0.12482294018529605
1302.0,0.1249387366082999
1301.0,0.124996646399959
1300.0,0.1251124891538875
1299.0,0.12517042212027807
1298.0,0.1252863112422209
1297.0,0.12540223129680017
1296.0,0.12540223129680017
1295.0,0.12546020292898974
1294.0,0.12551818230053358
1293.0,0.12551818230053358
1292.0,0.12557616941349803
1291.0,0.12551818230053358
1290.0,0.12551818230053358
1289.0,0.12546020292898974
1288.0,0.12546020292898974
1287.0,0.12546020292898974
1286.0,0.12551818230053358
1285.0,0.12563416426995122
1284.0,0.12575017722159698
1283.0,0.12586622117202761
1282.0,0.12598229613781387
1281.0,0.1260984021355387
1280.0,0.12621453918179926
1279.0,0.12627261935332057
1278.0,0.12638880300353272
1277.0,0.12644690648638135
1276.0,0.12650501774383094
1275.0,0.126621263590859
1274.0,0.12667939818460128
1273.0,0.1267375405612734
1272.0,0.1267375405612734
1271.0,0.12685384867174432
1270.0,0.12691201440971422
1269.0,0.12702836926155658
1268.0,0.12714475529518965
1267.0,0.12720296001040166
1266.0,0.12726117252733116
1265.0,0.12731939284807026
1264.0,0.12726117252733116
1263.0,0.12726117252733116
1262.0,0.12720296001040166
1261.0,0.12720296001040166
1260.0,0.12720296001040166
1259.0,0.12726117252733116
1258.0,0.12743585690934855
1257.0,0.1276688787697493
1256.0,0.12778543660241448
1255.0,0.12778543660241448
1254.0,0.12778543660241448
1253.0,0.1277271537757949
1252.0,0.1276688787697493
1251.0,0.1277271537757949
1250.0,0.12790202572577325
1249.0,0.1280769681176266
1248.0,0.1281352979118051
1247.0,0.12819363554127072
1246.0,0.12819363554127072
1245.0,0.12819363554127072
1244.0,0.1282519810081284
1243.0,0.1283103343144847
1242.0,0.12842706445412122
1241.0,0.1286022185125162
1240.0,0.1287190271420271
1239.0,0.12883586719705065
1238.0,0.12895273869450063
1237.0,0.1290696416513042
1236.0,0.12918657608440243
1235.0,0.12924505510985984
1234.0,0.12930354201075
1233.0,0.12942053944731513
1232.0,0.12953756841108
1231.0,0.12971317100740865
1230.0,0.12994741830645506
1229.0,0.13018179202067182
1228.0,0.13041629228657614
1227.0,0.13053358991913355
1226.0,0.13070959579060148
1225.0,0.1308269726783169
1224.0,0.13100309751286465
1223.0,0.13123804178794973
1222.0,0.13153190097901324
1221.0,0.1318847946727828
1220.0,0.132179091954427
1219.0,0.13247358880025661
1218.0,0.13270933014511588
1217.0,0.13294519952329842
1216.0,0.1331221856625011
1215.0,0.13329924395750092
1214.0,0.13341732293645103
1213.0,0.13365357725039817
1212.0,0.13394907599072514
1211.0,0.13436311230037123
1210.0,0.13483678049391368
1209.0,0.13537027545448765
1208.0,0.13590442657575252
1207.0,0.1363797797296844
1206.0,0.13685565374733244
1205.0,0.13727247168202528
1204.0,0.13768969004572962
1203.0,0.13816700234205515
1202.0,0.13864483980673992
1201.0,0.13918303613546223
1200.0,0.13978181533124334
1199.0,0.1404414273739465
1198.0,0.14110204276799654
1197.0,0.14176366457048695
1196.0,0.1423660148499919
1195.0,0.14296920172737604
1194.0,0.14363367634075197
1193.0,0.14442027749828212
1192.0,0.14532966810466452
1191.0,0.14630178822382556
1190.0,0.14733705565543076
1189.0,0.14831368455757254
1188.0,0.1493537648169334
1187.0,0.15045774799498335
1186.0,0.1515645446685292
1185.0,0.1527358982292355
1184.0,0.15391041964201602
1183.0,0.15515019919336104
1182.0,0.15639352807548912
1181.0,0.1576404266693252
1180.0,0.15895353459069628
1179.0,0.1602706247936121
1178.0,0.16152872092807113
1177.0,0.1627904721987936
1176.0,0.16392919108485815
1175.0,0.16500739626697003
1174.0,0.16602462872009371
1173.0,0.16698045292346864
1172.0,0.16793838540927308
1171.0,0.16883436609055757
1170.0,0.16960382351653092
1169.0,0.17031035910102887
1168.0,0.17088928984470542
1167.0,0.1714045436282976
1166.0,0.17179138553205453
1165.0,0.1721785723171978
1164.0,0.17256610459922084
1163.0,0.17288931253398876
1162.0,0.1730833528150797
1161.0,0.17314805217935603
1160.0,0.17314805217935603
1159.0,0.1730833528150797
1158.0,0.1730833528150797
1157.0,0.17314805217935603
1156.0,0.173212761183708
1155.0,0.173212761183708
1154.0,0.173212761183708
1153.0,0.1730833528150797
1152.0,0.1730186630880064
1151.0,0.17295398299526576
1150.0,0.17276000049435458
1149.0,0.17263072694617465
1148.0,0.1725014918665413
1147.0,0.1724368887452763
1146.0,0.17237229523256659
1145.0,0.17224313702138327
1144.0,0.17198493577602325
1143.0,0.17172688794793012
1142.0,0.1714689933548985
1141.0,0.1712756728612086
1140.0,0.1711468403233598
1139.0,0.17088928984470542
1138.0,0.17056756638240134
1137.0,0.17018181256112253
1136.0,0.16973219906635828
1135.0,0.1693471862025755
1134.0,0.16896251435997467
1133.0,0.16857818293497795
1132.0,0.16819419132560887
1131.0,0.16787445746599094
1130.0,0.1674910872937636
1129.0,0.16723569505946845
1128.0,0.16691666582165698
1127.0,0.1666616110606025
1126.0,0.16647041824135633
1125.0,0.16634300310712757
1124.0,0.16621562534352097
1123.0,0.16602462872009371
1122.0,0.1657700971483227
1121.0,0.16551571466519466
1120.0,0.16538857927731287
1119.0,0.16545214231905137
1118.0,0.16545214231905137
1117.0,0.16538857927731287
1116.0,0.165261481096159
1115.0,0.16519794595130088
1114.0,0.16519794595130088
1113.0,0.165261481096159
1112.0,0.16532502553725603
1111.0,0.165261481096159
1110.0,0.16519794595130088
1109.0,0.16513442009996204
1108.0,0.16494389827988365
1107.0,0.1646899991309374
1106.0,0.16424603248061653
1105.0,0.16386585053462532
1104.0,0.16361258067358908
1103.0,0.163359458427226
1102.0,0.16310648362356628
1101.0,0.16285365609093994
1100.0,0.16247469055039865
1099.0,0.16209605540705763
1098.0,0.16159172150581314
1097.0,0.16102504504453208
1096.0,0.16045910703103106
1095.0,0.159956669396506
1094.0,0.15945481236316117
1093.0,0.15901616267962204
1092.0,0.15864052954514496
1091.0,0.15832774992636556
1090.0,0.15795271149036205
1089.0,0.15757799664235028
1088.0,0.15701652987778258
1087.0,0.15639352807548912
1086.0,0.15570925674565683
1085.0,0.1550260618531123
1084.0,0.15434394001645568
1083.0,0.1537866361206126
1082.0,0.15323004646278116
1081.0,0.1527358982292355
1080.0,0.1523039792658345
1079.0,0.15181088300860135
1078.0,0.15131834597604965
1077.0,0.15088783381542248
1076.0,0.15045774799498335
1075.0,0.15002808767114995
1074.0,0.14953756723848333
1073.0,0.14917004015146906
1072.0,0.14874165128092476
1071.0,0.1482525808667361
1070.0,0.14776406058811253
1069.0,0.1472760892087941
1068.0,0.14697138528701026
1067.0,0.14672777597931685
1066.0,0.14648430324307138
1065.0,0.1461193498754576
1064.0,0.1456939581989194
1063.0,0.14526898278605782
1062.0,0.14490504884137811
1061.0,0.14466259553045968
1060.0,0.1446020033459312
1059.0,0.1446020033459312
1058.0,0.1446020033459312
1057.0,0.14454141961396383
1056.0,0.14442027749828212
1055.0,0.14423862766005224
1054.0,0.14405705376768396
1053.0,0.14393604666690019
1052.0,0.14375459920994582
1051.0,0.14369413356670102
1050.0,0.14363367634075197
1049.0,0.14369413356670102
1048.0,0.14369413356670102
1047.0,0.14363367634075197
1046.0,0.14345235514325205
1045.0,0.14333151638846497
1044.0,0.1432711096171173
1043.0,0.14321071124668383
1042.0,0.1430899396992138
1041.0,0.14296920172737604
1040.0,0.14290884532648618
1039.0,0.1427881576831076
1038.0,0.1427278264359586
1037.0,0.1427278264359586
1036.0,0.1427881576831076
1035.0,0.14284849731250704
1034.0,0.14290884532648618
1033.0,0.14296920172737604
1032.0,0.14302956651750764
1031.0,0.14296920172737604
1030.0,0.14290884532648618
1029.0,0.14284849731250704
1028.0,0.1427881576831076
1027.0,0.1427278264359586
1026.0,0.14260718907909875
1025.0,0.1425468829647336
1024.0,0.14248658522331015
1023.0,0.14260718907909875
1022.0,0.14284849731250704
1021.0,0.14315032127482774
1020.0,0.14339193156306385
1019.0,0.14351278713136928
1018.0,0.14339193156306385
1017.0,0.1432711096171173
1016.0,0.14333151638846497
1015.0,0.14351278713136928
1014.0,0.14369413356670102
1013.0,0.14375459920994582
1012.0,0.14363367634075197
1011.0,0.14357322752975565
1010.0,0.14357322752975565
1009.0,0.14363367634075197
1008.0,0.14381507327283027
1007.0,0.14393604666690019
1006.0,0.143996546002779
1005.0,0.1441175699639643
1004.0,0.14429916916456276
1003.0,0.14448084433219988
1002.0,0.14454141961396383
1001.0,0.14454141961396383
1000.0,0.14442027749828212
999.0,0.14417809459397013
998.0,0.14381507327283027
997.0,0.14357322752975565
996.0,0.14345235514325205
995.0,0.14345235514325205
994.0,0.14357322752975565
993.0,0.14381507327283027
992.0,0.14405705376768396
991.0,0.14423862766005224
990.0,0.14417809459397013
989.0,0.143996546002779
988.0,0.14381507327283027
987.0,0.1438755557576996
986.0,0.14417809459397013
985.0,0.14442027749828212
984.0,0.14454141961396383
983.0,0.14454141961396383
982.0,0.14448084433219988
981.0,0.14448084433219988
980.0,0.1446020033459312
979.0,0.14466259553045968
978.0,0.14466259553045968
977.0,0.14472319616990825
976.0,0.14484442282300614
975.0,0.14502632627358292
974.0,0.14526898278605782
973.0,0.1455724942121388
972.0,0.14587621789883287
971.0,0.14618015414323682
970.0,0.1463626180414057
969.0,0.1465451586319333
968.0,0.1465451586319333
967.0,0.1465451586319333
966.0,0.1466060225493342
965.0,0.14666689499766483
964.0,0.146788665496683
963.0,0.14691047014813452
962.0,0.14697138528701026
961.0,0.14703230897118158
960.0,0.14703230897118158
959.0,0.14697138528701026
958.0,0.14703230897118158
957.0,0.1471541819850033
956.0,0.14733705565543076
955.0,0.14752000636314366
954.0,0.1475810070629986
953.0,0.14764201633217278
952.0,0.14764201633217278
951.0,0.1475810070629986
950.0,0.1475810070629986
949.0,0.14764201633217278
948.0,0.1475810070629986
947.0,0.14745901423020125
946.0,0.1472760892087941
945.0,0.1472151313194523
944.0,0.14733705565543076
943.0,0.14752000636314366
942.0,0.14764201633217278
941.0,0.14764201633217278
940.0,0.14764201633217278
939.0,0.1477030341730745
938.0,0.1478861391502384
937.0,0.1480693213597324
936.0,0.1482525808667361
935.0,0.14831368455757254
934.0,0.14837479684669086
933.0,0.14837479684669086
932.0,0.14831368455757254
931.0,0.14831368455757254
930.0,0.14837479684669086
929.0,0.14855818532794496
928.0,0.14874165128092476
927.0,0.14880282382583943
926.0,0.14880282382583943
925.0,0.14874165128092476
924.0,0.14861933203440336
923.0,0.14861933203440336
922.0,0.14868048735125483
921.0,0.1489251947711132
920.0,0.14923127307111983
919.0,0.14941502364796855
918.0,0.1494762911210057
917.0,0.14941502364796855
916.0,0.14929251462546267
915.0,0.14923127307111983
914.0,0.1493537648169334
913.0,0.1495988520028415
912.0,0.1499667423102311
911.0,0.15027355580367208
910.0,0.15058058620310066
909.0,0.15082636690117335
908.0,0.1509493094304879
907.0,0.15101079374883275
906.0,0.15101079374883275
905.0,0.15107228677292173
904.0,0.15125681810431635
903.0,0.1515029819096334
902.0,0.15187248943212528
901.0,0.15211900255462485
900.0,0.15224231160766877
899.0,0.15218065270476067
898.0,0.15211900255462485
897.0,0.15211900255462485
896.0,0.15211900255462485
895.0,0.15218065270476067
894.0,0.15224231160766877
893.0,0.1523039792658345
892.0,0.1524890347967518
891.0,0.1527358982292355
890.0,0.15292113793428452
889.0,0.15304467498017615
888.0,0.1531682471767426
887.0,0.15323004646278116
886.0,0.15323004646278116
885.0,0.15323004646278116
884.0,0.1532918545439932
883.0,0.15335367142288248
882.0,0.1534154971019539
881.0,0.1535391748706676
880.0,0.1535391748706676
879.0,0.15360102696532518
878.0,0.15366288787019466
877.0,0.15391041964201602
876.0,0.15415809257824264
875.0,0.15434394001645568
874.0,0.15440590683997568
873.0,0.15440590683997568
872.0,0.15440590683997568
871.0,0.15446788250642451
870.0,0.15465386258859137
869.0,0.15490195998574308
868.0,0.15496400648658493
867.0,0.15477789357098626
866.0,0.15440590683997568
865.0,0.1540961611012175
864.0,0.15403423845451636
863.0,0.1540961611012175
862.0,0.1542200328881107
861.0,0.15434394001645568
860.0,0.15440590683997568
859.0,0.15440590683997568
858.0,0.15440590683997568
857.0,0.15452986701832638
856.0,0.15471587365200845
855.0,0.1548399223480541
854.0,0.1548399223480541
853.0,0.15477789357098626
852.0,0.15477789357098626
851.0,0.15471587365200845
850.0,0.15446788250642451
849.0,0.15415809257824264
848.0,0.15397232463562127
847.0,0.15403423845451636
846.0,0.15434394001645568
845.0,0.15496400648658493
844.0,0.15558495952617557
843.0,0.1560823619936076
842.0,0.15639352807548912
841.0,0.1565803347950816
840.0,0.1565803347950816
839.0,0.15645578805436489
838.0,0.15633127702085625
837.0,0.1565180569600424
836.0,0.15682953548010214
835.0,0.15720360482441986
834.0,0.157390760389438
833.0,0.157390760389438
832.0,0.15745316350498495
831.0,0.15745316350498495
830.0,0.15745316350498495
829.0,0.157390760389438
828.0,0.15720360482441986
827.0,0.15682953548010214
826.0,0.15664262156204445
825.0,0.15682953548010214
824.0,0.15720360482441986
823.0,0.15757799664235028
822.0,0.1577028656719348
821.0,0.1577028656719348
820.0,0.1576404266693252
819.0,0.15757799664235028
818.0,0.15751557558842988
817.0,0.15757799664235028
816.0,0.15776531365276036
815.0,0.15807768832054925
814.0,0.1582027011256446
813.0,0.1582027011256446
812.0,0.15826522102525642
811.0,0.15845283474344662
810.0,0.15857795559764076
809.0,0.15857795559764076
808.0,0.15864052954514496
807.0,0.158765704493959
806.0,0.15901616267962204
805.0,0.15914144595812063
804.0,0.15914144595812063
803.0,0.15895353459069628
802.0,0.158765704493959
801.0,0.15882830550046778
800.0,0.15920410115290617
799.0,0.15958022226351387
798.0,0.15970566838856382
797.0,0.159517512786558
796.0,0.15926676538819318
795.0,0.1590787998012282
794.0,0.1590787998012282
793.0,0.15901616267962204
792.0,0.15882830550046778
791.0,0.15864052954514496
790.0,0.15864052954514496
789.0,0.15901616267962204
788.0,0.15964294079664376
787.0,0.1602706247936121
786.0,0.1605219526258017
785.0,0.1605219526258017
784.0,0.1603334431175667
783.0,0.16020781555467067
782.0,0.16020781555467067
781.0,0.16045910703103106
780.0,0.16077342598656452
779.0,0.16096212661169407
778.0,0.16102504504453208
777.0,0.16102504504453208
776.0,0.16108797259400132
775.0,0.16127680996862814
774.0,0.16152872092807113
773.0,0.16152872092807113
772.0,0.16127680996862814
771.0,0.16096212661169407
770.0,0.16083631708534996
769.0,0.16096212661169407
768.0,0.16121385505340546
767.0,0.16127680996862814
766.0,0.16127680996862814
765.0,0.16121385505340546
764.0,0.16127680996862814
763.0,0.1614027471833437
762.0,0.1614027471833437
761.0,0.16108797259400132
760.0,0.16064767110457878
759.0,0.1600194423216572
758.0,0.15945481236316117
757.0,0.1590787998012282
756.0,0.15901616267962204
755.0,0.15920410115290617
754.0,0.15939212099070987
753.0,0.15964294079664376
752.0,0.15970566838856382
751.0,0.15939212099070987
750.0,0.15882830550046778
749.0,0.15801519540988607
748.0,0.15707887924001773
747.0,0.1562690348879079
746.0,0.1559579579589836
745.0,0.15639352807548912
744.0,0.15707887924001773
743.0,0.15701652987778258
742.0,0.1559579579589836
741.0,0.1542200328881107
740.0,0.1523039792658345
739.0,0.1503963419175529
738.0,0.14849704722945534
737.0,0.14684956355215717
736.0,0.14551177495556966
735.0,0.14502632627358292
734.0,0.14733705565543076
733.0,0.15508812608785938
732.0,0.16947548590274142
731.0,0.18782222584124608
730.0,0.20432849405397824
729.0,0.2135325232597176
728.0,0.21424320003735708
727.0,0.20964445358561346
726.0,0.2040505010971967
725.0,0.20003947259401644
724.0,0.1987335295103798
723.0,0.2014874669686484
722.0,0.2102078322693246
721.0,0.22592119924748122
720.0,0.2454987706130829
719.0,0.2613779720820575
718.0,0.2675258227188064
717.0,0.2645607967485186
716.0,0.25633347855378696
715.0,0.24649354300903004
714.0,0.23694655970038525
713.0,0.2287800980504664
712.0,0.222500680409635
711.0,0.21788585252092885
710.0,0.21417208000413446
709.0,0.21063084640851826
708.0,0.20753826865304936
707.0,0.20502425594886842
706.0,0.2032175882986922
705.0,0.20176382363206424
704.0,0.200246033588114
703.0,0.1983905119726812
702.0,0.19633807676377568
701.0,0.19436323369406505
700.0,0.1928033392890527
699.0,0.19165396425960513
698.0,0.19077707831057822
697.0,0.19044028536473223
696.0,0.19057497120296585
695.0,0.19084446825281964
694.0,0.19070969882368427
693.0,0.18970025895983111
692.0,0.18829097330380895
691.0,0.18681946741398825
690.0,0.18588564387087447
689.0,0.18555262147751228
688.0,0.18588564387087447
687.0,0.18635230465310326
686.0,0.1866191932661443
685.0,0.18655245573517876
684.0,0.18635230465310326
683.0,0.18601892436352818
682.0,0.18561920553006184
681.0,0.18508681872492616
680.0,0.18455508375564977
679.0,0.1840903491132253
678.0,0.18362611124763806
677.0,0.18336105510153855
676.0,0.1831623690979649
675.0,0.18283142761894444
674.0,0.1818401136028147
673.0,0.18045606445813123
672.0,0.17901082358395048
671.0,0.17842097208799124
670.0,0.17933886535640453
669.0,0.18283142761894444
668.0,0.18775530319963063
667.0,0.19064232978889417
666.0,0.19037295810595034
665.0,0.18815699382352258
664.0,0.18615224577114575
663.0,0.1851533313955367
662.0,0.18448866263723573
661.0,0.1838250095711984
660.0,0.18329481633348466
659.0,0.18283142761894444
658.0,0.18203819546800593
657.0,0.18111458540599013
656.0,0.18071935302751885
655.0,0.1812464095022832
654.0,0.18236853280948462
653.0,0.18336105510153855
652.0,0.18362611124763806
651.0,0.18302996224270052
650.0,0.1818401136028147
649.0,0.18071935302751885
648.0,0.18039026724841478
647.0,0.18065351591954726
646.0,0.18085105719286587
645.0,0.18071935302751885
644.0,0.18025870272698952
643.0,0.17999569319168218
642.0,0.18032448000570733
641.0,0.18111458540599013
640.0,0.18190613085336405
639.0,0.18243463044021913
638.0,0.1827652695745019
637.0,0.18415670933673334
636.0,0.18742084459095332
635.0,0.19151894343404896
634.0,0.19388788983090888
633.0,0.1928033392890527
632.0,0.189767482004916
631.0,0.18695303483989223
630.0,0.1851533313955367
629.0,0.1838913292600961
628.0,0.18302996224270052
627.0,0.18289759574307696
626.0,0.18349356295364294
625.0,0.18448866263723573
624.0,0.18535293054814383
623.0,0.18575240426807982
622.0,0.18541948398968144
621.0,0.18369240056806024
620.0,0.18065351591954726
619.0,0.1775703762206431
618.0,0.17639537164484187
617.0,0.1778973313530796
616.0,0.18065351591954726
615.0,0.18309616062433975
614.0,0.18482086986058133
613.0,0.18635230465310326
612.0,0.18748771571001743
611.0,0.18735398376688117
610.0,0.18601892436352818
609.0,0.1842894602110372
608.0,0.18309616062433975
607.0,0.18250073813224166
606.0,0.18236853280948462
605.0,0.1827652695745019
604.0,0.1838250095711984
603.0,0.18535293054814383
602.0,0.18722029299103604
601.0,0.18922998876563635
600.0,0.19091186865365373
