cm-1,A
4000.0,-0.0088
3999.0,-0.0088
3998.0,-0.0088
3997.0,-0.0089
3996.0,-0.0089
3995.0,-0.0089
3994.0,-0.009
3993.0,-0.009
3992.0,-0.009
3991.0,-0.0089
3990.0,-0.0089
3989.0,-0.009
3988.0,-0.009
3987.0,-0.0091
3986.0,-0.0092
3985.0,-0.0092
3984.0,-0.0092
3983.0,-0.0091
3982.0,-0.009
3981.0,-0.009
3980.0,-0.009
3979.0,-0.009
3978.0,-0.009
3977.0,-0.009
3976.0,-0.009
3975.0,-0.0091
3974.0,-0.0091
3973.0,-0.0091
3972.0,-0.0091
3971.0,-0.0091
3970.0,-0.009
3969.0,-0.009
3968.0,-0.0089
3967.0,-0.0089
3966.0,-0.0088
3965.0,-0.0088
3964.0,-0.0088
3963.0,-0.0089
3962.0,-0.0089
3961.0,-0.009
3960.0,-0.009
3959.0,-0.0091
3958.0,-0.0091
3957.0,-0.0091
3956.0,-0.0091
3955.0,-0.0091
3954.0,-0.009
3953.0,-0.009
3952.0,-0.0089
3951.0,-0.0089
3950.0,-0.0089
3949.0,-0.009
3948.0,-0.009
3947.0,-0.009
3946.0,-0.0091
3945.0,-0.0091
3944.0,-0.0092
3943.0,-0.0093
3942.0,-0.0093
3941.0,-0.0093
3940.0,-0.0091
3939.0,-0.009
3938.0,-0.0089
3937.0,-0.0089
3936.0,-0.0089
3935.0,-0.009
3934.0,-0.0091
3933.0,-0.0091
3932.0,-0.0092
3931.0,-0.0092
3930.0,-0.0093
3929.0,-0.0093
3928.0,-0.0093
3927.0,-0.0093
3926.0,-0.0092
3925.0,-0.0091
3924.0,-0.009
3923.0,-0.009
3922.0,-0.0091
3921.0,-0.0091
3920.0,-0.0092
3919.0,-0.0091
3918.0,-0.0091
3917.0,-0.0091
3916.0,-0.0091
3915.0,-0.0091
3914.0,-0.0091
3913.0,-0.0092
3912.0,-0.0092
3911.0,-0.0092
3910.0,-0.0092
3909.0,-0.0093
3908.0,-0.0092
3907.0,-0.0092
3906.0,-0.0091
3905.0,-0.0091
3904.0,-0.0092
3903.0,-0.0092
3902.0,-0.0092
3901.0,-0.0092
3900.0,-0.0091
3899.0,-0.009
3898.0,-0.009
3897.0,-0.0091
3896.0,-0.0092
3895.0,-0.0092
3894.0,-0.0092
3893.0,-0.0092
3892.0,-0.0091
3891.0,-0.009
3890.0,-0.009
3889.0,-0.009
3888.0,-0.0091
3887.0,-0.0091
3886.0,-0.0091
3885.0,-0.009
3884.0,-0.0089
3883.0,-0.0089
3882.0,-0.0089
3881.0,-0.0089
3880.0,-0.0089
3879.0,-0.0089
3878.0,-0.0089
3877.0,-0.009
3876.0,-0.009
3875.0,-0.0091
3874.0,-0.0091
3873.0,-0.0092
3872.0,-0.0092
3871.0,-0.0092
3870.0,-0.0091
3869.0,-0.0091
3868.0,-0.0092
3867.0,-0.0093
3866.0,-0.0093
3865.0,-0.0092
3864.0,-0.0091
3863.0,-0.009
3862.0,-0.009
3861.0,-0.0091
3860.0,-0.0092
3859.0,-0.0092
3858.0,-0.0092
3857.0,-0.0092
3856.0,-0.0092
3855.0,-0.0092
3854.0,-0.0092
3853.0,-0.0093
3852.0,-0.0092
3851.0,-0.0092
3850.0,-0.0092
3849.0,-0.0093
3848.0,-0.0093
3847.0,-0.0092
3846.0,-0.0092
3845.0,-0.0091
3844.0,-0.009
3843.0,-0.0089
3842.0,-0.0088
3841.0,-0.0088
3840.0,-0.0088
3839.0,-0.009
3838.0,-0.0092
3837.0,-0.0093
3836.0,-0.0093
3835.0,-0.0092
3834.0,-0.0092
3833.0,-0.0092
3832.0,-0.0092
3831.0,-0.0093
3830.0,-0.0094
3829.0,-0.0095
3828.0,-0.0095
3827.0,-0.0095
3826.0,-0.0094
3825.0,-0.0094
3824.0,-0.0095
3823.0,-0.0095
3822.0,-0.0095
3821.0,-0.0094
3820.0,-0.0093
3819.0,-0.0094
3818.0,-0.0094
3817.0,-0.0095
3816.0,-0.0093
3815.0,-0.0092
3814.0,-0.0092
3813.0,-0.0093
3812.0,-0.0094
3811.0,-0.0094
3810.0,-0.0094
3809.0,-0.0095
3808.0,-0.0095
3807.0,-0.0096
3806.0,-0.0096
3805.0,-0.0096
3804.0,-0.0097
3803.0,-0.0099
3802.0,-0.0099
3801.0,-0.0099
3800.0,-0.0098
3799.0,-0.0097
3798.0,-0.0097
3797.0,-0.0096
3796.0,-0.0096
3795.0,-0.0097
3794.0,-0.0097
3793.0,-0.0098
3792.0,-0.0098
3791.0,-0.0097
3790.0,-0.0097
3789.0,-0.0097
3788.0,-0.0097
3787.0,-0.0097
3786.0,-0.0098
3785.0,-0.0098
3784.0,-0.0098
3783.0,-0.0098
3782.0,-0.0099
3781.0,-0.0099
3780.0,-0.0099
3779.0,-0.0098
3778.0,-0.0097
3777.0,-0.0097
3776.0,-0.0097
3775.0,-0.0097
3774.0,-0.0097
3773.0,-0.0096
3772.0,-0.0096
3771.0,-0.0096
3770.0,-0.0096
3769.0,-0.0096
3768.0,-0.0096
3767.0,-0.0096
3766.0,-0.0096
3765.0,-0.0096
3764.0,-0.0096
3763.0,-0.0096
3762.0,-0.0096
3761.0,-0.0097
3760.0,-0.0097
3759.0,-0.0097
3758.0,-0.0098
3757.0,-0.0098
3756.0,-0.0098
3755.0,-0.0098
3754.0,-0.0098
3753.0,-0.0097
3752.0,-0.0096
3751.0,-0.0095
3750.0,-0.0095
3749.0,-0.0096
3748.0,-0.0097
3747.0,-0.0097
3746.0,-0.0098
3745.0,-0.0097
3744.0,-0.0097
3743.0,-0.0097
3742.0,-0.0098
3741.0,-0.0099
3740.0,-0.0099
3739.0,-0.0099
3738.0,-0.0099
3737.0,-0.0099
3736.0,-0.01
3735.0,-0.01
3734.0,-0.0101
3733.0,-0.0101
3732.0,-0.01
3731.0,-0.01
3730.0,-0.0101
3729.0,-0.0102
3728.0,-0.0104
3727.0,-0.0104
3726.0,-0.0103
3725.0,-0.0101
3724.0,-0.0101
3723.0,-0.0101
3722.0,-0.0102
3721.0,-0.0103
3720.0,-0.0103
3719.0,-0.0104
3718.0,-0.0104
3717.0,-0.0104
3716.0,-0.0104
3715.0,-0.0104
3714.0,-0.0103
3713.0,-0.0101
3712.0,-0.0101
3711.0,-0.0101
3710.0,-0.0102
3709.0,-0.0103
3708.0,-0.0104
3707.0,-0.0104
3706.0,-0.0103
3705.0,-0.0103
3704.0,-0.0103
3703.0,-0.0104
3702.0,-0.0106
3701.0,-0.0107
3700.0,-0.0107
3699.0,-0.0107
3698.0,-0.0108
3697.0,-0.0108
3696.0,-0.0109
3695.0,-0.0109
3694.0,-0.0109
3693.0,-0.011
3692.0,-0.011
3691.0,-0.011
3690.0,-0.011
3689.0,-0.0111
3688.0,-0.011
3687.0,-0.0109
3686.0,-0.0109
3685.0,-0.0109
3684.0,-0.0109
3683.0,-0.0109
3682.0,-0.0109
3681.0,-0.0108
3680.0,-0.0108
3679.0,-0.0108
3678.0,-0.011
3677.0,-0.0112
3676.0,-0.0114
3675.0,-0.0114
3674.0,-0.0113
3673.0,-0.0112
3672.0,-0.0112
3671.0,-0.0113
3670.0,-0.0113
3669.0,-0.0113
3668.0,-0.0113
3667.0,-0.0114
3666.0,-0.0115
3665.0,-0.0116
3664.0,-0.0117
3663.0,-0.0118
3662.0,-0.0118
3661.0,-0.0119
3660.0,-0.0119
3659.0,-0.012
3658.0,-0.012
3657.0,-0.0121
3656.0,-0.0121
3655.0,-0.0121
3654.0,-0.0121
3653.0,-0.0121
3652.0,-0.0121
3651.0,-0.012
3650.0,-0.0122
3649.0,-0.0124
3648.0,-0.0127
3647.0,-0.0127
3646.0,-0.0127
3645.0,-0.0127
3644.0,-0.0127
3643.0,-0.0128
3642.0,-0.0129
3641.0,-0.013
3640.0,-0.0131
3639.0,-0.0132
3638.0,-0.0131
3637.0,-0.0131
3636.0,-0.013
3635.0,-0.0131
3634.0,-0.0131
3633.0,-0.0131
3632.0,-0.0132
3631.0,-0.0133
3630.0,-0.0134
3629.0,-0.0135
3628.0,-0.0136
3627.0,-0.0137
3626.0,-0.0138
3625.0,-0.0138
3624.0,-0.0137
3623.0,-0.0137
3622.0,-0.0137
3621.0,-0.0137
3620.0,-0.0138
3619.0,-0.0139
3618.0,-0.0138
3617.0,-0.0137
3616.0,-0.0137
3615.0,-0.0137
3614.0,-0.0138
3613.0,-0.0138
3612.0,-0.0138
3611.0,-0.0138
3610.0,-0.0139
3609.0,-0.014
3608.0,-0.0142
3607.0,-0.0143
3606.0,-0.0144
3605.0,-0.0144
3604.0,-0.0144
3603.0,-0.0144
3602.0,-0.0145
3601.0,-0.0145
3600.0,-0.0145
3599.0,-0.0146
3598.0,-0.0146
3597.0,-0.0146
3596.0,-0.0146
3595.0,-0.0148
3594.0,-0.015
3593.0,-0.0152
3592.0,-0.0152
3591.0,-0.0152
3590.0,-0.015
3589.0,-0.0147
3588.0,-0.0146
3587.0,-0.0147
3586.0,-0.015
3585.0,-0.0152
3584.0,-0.0152
3583.0,-0.0153
3582.0,-0.0153
3581.0,-0.0152
3580.0,-0.0152
3579.0,-0.0151
3578.0,-0.0151
3577.0,-0.0151
3576.0,-0.0152
3575.0,-0.0152
3574.0,-0.0153
3573.0,-0.0153
3572.0,-0.0152
3571.0,-0.0152
3570.0,-0.0151
3569.0,-0.0152
3568.0,-0.0152
3567.0,-0.0153
3566.0,-0.0152
3565.0,-0.0151
3564.0,-0.015
3563.0,-0.0149
3562.0,-0.0148
3561.0,-0.0147
3560.0,-0.0147
3559.0,-0.0147
3558.0,-0.0148
3557.0,-0.0148
3556.0,-0.0147
3555.0,-0.0146
3554.0,-0.0145
3553.0,-0.0145
3552.0,-0.0145
3551.0,-0.0144
3550.0,-0.0143
3549.0,-0.0143
3548.0,-0.0142
3547.0,-0.0142
3546.0,-0.0142
3545.0,-0.0142
3544.0,-0.0141
3543.0,-0.014
3542.0,-0.0139
3541.0,-0.0138
3540.0,-0.0137
3539.0,-0.0137
3538.0,-0.0137
3537.0,-0.0136
3536.0,-0.0135
3535.0,-0.0133
3534.0,-0.0131
3533.0,-0.013
3532.0,-0.0128
3531.0,-0.0126
3530.0,-0.0125
3529.0,-0.0123
3528.0,-0.0121
3527.0,-0.012
3526.0,-0.0119
3525.0,-0.0118
3524.0,-0.0116
3523.0,-0.0115
3522.0,-0.0113
3521.0,-0.0112
3520.0,-0.011
3519.0,-0.0109
3518.0,-0.0106
3517.0,-0.0104
3516.0,-0.0102
3515.0,-0.01
3514.0,-0.0098
3513.0,-0.0096
3512.0,-0.0093
3511.0,-0.009
3510.0,-0.0088
3509.0,-0.0085
3508.0,-0.0083
3507.0,-0.0081
3506.0,-0.0079
3505.0,-0.0076
3504.0,-0.0074
3503.0,-0.0071
3502.0,-0.0069
3501.0,-0.0067
3500.0,-0.0064
3499.0,-0.0062
3498.0,-0.0059
3497.0,-0.0057
3496.0,-0.0053
3495.0,-0.005
3494.0,-0.0046
3493.0,-0.0041
3492.0,-0.0037
3491.0,-0.0033
3490.0,-0.0029
3489.0,-0.0026
3488.0,-0.0021
3487.0,-0.0017
3486.0,-0.0012
3485.0,-0.0008
3484.0,-0.0004
3483.0,0.0001
3482.0,0.0007
3481.0,0.0012
3480.0,0.0016
3479.0,0.002
3478.0,0.0023
3477.0,0.0027
3476.0,0.0034
3475.0,0.0041
3474.0,0.0049
3473.0,0.0055
3472.0,0.006
3471.0,0.0064
3470.0,0.0068
3469.0,0.0073
3468.0,0.0079
3467.0,0.0086
3466.0,0.0091
3465.0,0.0097
3464.0,0.0103
3463.0,0.011
3462.0,0.0118
3461.0,0.0126
3460.0,0.0134
3459.0,0.0141
3458.0,0.0147
3457.0,0.0152
3456.0,0.0158
3455.0,0.0164
3454.0,0.017
3453.0,0.0176
3452.0,0.0181
3451.0,0.0186
3450.0,0.0192
3449.0,0.0199
3448.0,0.0208
3447.0,0.0218
3446.0,0.0226
3445.0,0.0233
3444.0,0.024
3443.0,0.0248
3442.0,0.0257
3441.0,0.0267
3440.0,0.0277
3439.0,0.0287
3438.0,0.0297
3437.0,0.0307
3436.0,0.0316
3435.0,0.0326
3434.0,0.0336
3433.0,0.0348
3432.0,0.0361
3431.0,0.0376
3430.0,0.0391
3429.0,0.0406
3428.0,0.042
3427.0,0.0435
3426.0,0.0449
3425.0,0.0465
3424.0,0.0482
3423.0,0.0501
3422.0,0.0521
3421.0,0.0542
3420.0,0.0563
3419.0,0.0582
3418.0,0.0601
3417.0,0.0619
3416.0,0.0638
3415.0,0.0658
3414.0,0.0677
3413.0,0.0696
3412.0,0.0714
3411.0,0.0731
3410.0,0.0749
3409.0,0.0769
3408.0,0.0789
3407.0,0.081
3406.0,0.0831
3405.0,0.085
3404.0,0.0869
3403.0,0.0886
3402.0,0.0903
3401.0,0.0919
3400.0,0.0937
3399.0,0.0955
3398.0,0.0975
3397.0,0.0996
3396.0,0.1015
3395.0,0.1032
3394.0,0.1049
3393.0,0.1067
3392.0,0.1085
3391.0,0.1102
3390.0,0.1115
3389.0,0.1126
3388.0,0.1134
3387.0,0.1142
3386.0,0.115
3385.0,0.1157
3384.0,0.1164
3383.0,0.117
3382.0,0.1174
3381.0,0.1176
3380.0,0.1176
3379.0,0.1173
3378.0,0.1167
3377.0,0.116
3376.0,0.1152
3375.0,0.1145
3374.0,0.1138
3373.0,0.113
3372.0,0.1121
3371.0,0.111
3370.0,0.1098
3369.0,0.1084
3368.0,0.1069
3367.0,0.1054
3366.0,0.1039
3365.0,0.1022
3364.0,0.1005
3363.0,0.0988
3362.0,0.0969
3361.0,0.0951
3360.0,0.0933
3359.0,0.0916
3358.0,0.09
3357.0,0.0885
3356.0,0.0869
3355.0,0.0853
3354.0,0.0834
3353.0,0.0814
3352.0,0.0794
3351.0,0.0775
3350.0,0.0755
3349.0,0.0737
3348.0,0.072
3347.0,0.0703
3346.0,0.0686
3345.0,0.0669
3344.0,0.0651
3343.0,0.0635
3342.0,0.0619
3341.0,0.0602
3340.0,0.0585
3339.0,0.0569
3338.0,0.0553
3337.0,0.0536
3336.0,0.052
3335.0,0.0503
3334.0,0.0486
3333.0,0.0469
3332.0,0.0454
3331.0,0.0439
3330.0,0.0423
3329.0,0.0407
3328.0,0.0391
3327.0,0.0377
3326.0,0.0363
3325.0,0.0351
3324.0,0.0338
3323.0,0.0326
3322.0,0.0313
3321.0,0.03
3320.0,0.0288
3319.0,0.0274
3318.0,0.026
3317.0,0.0246
3316.0,0.0232
3315.0,0.022
3314.0,0.0209
3313.0,0.0199
3312.0,0.0189
3311.0,0.018
3310.0,0.017
3309.0,0.016
3308.0,0.0151
3307.0,0.0142
3306.0,0.0132
3305.0,0.0122
3304.0,0.0112
3303.0,0.0104
3302.0,0.0097
3301.0,0.0091
3300.0,0.0083
3299.0,0.0075
3298.0,0.0067
3297.0,0.0059
3296.0,0.0051
3295.0,0.0045
3294.0,0.0039
3293.0,0.0034
3292.0,0.0028
3291.0,0.0022
3290.0,0.0015
3289.0,0.0008
3288.0,0.0003
3287.0,-0.0001
3286.0,-0.0004
3285.0,-0.0008
3284.0,-0.0012
3283.0,-0.0016
3282.0,-0.0022
3281.0,-0.0028
3280.0,-0.0034
3279.0,-0.0038
3278.0,-0.0042
3277.0,-0.0045
3276.0,-0.0049
3275.0,-0.0052
3274.0,-0.0055
3273.0,-0.0057
3272.0,-0.0057
3271.0,-0.0056
3270.0,-0.0055
3269.0,-0.0054
3268.0,-0.0055
3267.0,-0.0056
3266.0,-0.0056
3265.0,-0.0054
3264.0,-0.005
3263.0,-0.0045
3262.0,-0.0039
3261.0,-0.0034
3260.0,-0.0029
3259.0,-0.0024
3258.0,-0.0019
3257.0,-0.0014
3256.0,-0.0008
3255.0,-0.0002
3254.0,0.0005
3253.0,0.0013
3252.0,0.0019
3251.0,0.0026
3250.0,0.0031
3249.0,0.0036
3248.0,0.004
3247.0,0.0045
3246.0,0.005
3245.0,0.0054
3244.0,0.0056
3243.0,0.0056
3242.0,0.0054
3241.0,0.0052
3240.0,0.0049
3239.0,0.0045
3238.0,0.004
3237.0,0.0034
3236.0,0.0028
3235.0,0.0021
3234.0,0.0012
3233.0,0.0004
3232.0,-0.0005
3231.0,-0.0013
3230.0,-0.0021
3229.0,-0.0029
3228.0,-0.0037
3227.0,-0.0045
3226.0,-0.0052
3225.0,-0.006
3224.0,-0.0069
3223.0,-0.0078
3222.0,-0.0088
3221.0,-0.0097
3220.0,-0.0107
3219.0,-0.0115
3218.0,-0.0123
3217.0,-0.013
3216.0,-0.0138
3215.0,-0.0146
3214.0,-0.0155
3213.0,-0.0163
3212.0,-0.017
3211.0,-0.0175
3210.0,-0.0179
3209.0,-0.0183
3208.0,-0.0188
3207.0,-0.0192
3206.0,-0.0197
3205.0,-0.0202
3204.0,-0.0207
3203.0,-0.0212
3202.0,-0.0217
3201.0,-0.0221
3200.0,-0.0224
3199.0,-0.0226
3198.0,-0.0228
3197.0,-0.0229
3196.0,-0.023
3195.0,-0.0231
3194.0,-0.0233
3193.0,-0.0235
3192.0,-0.0237
3191.0,-0.024
3190.0,-0.0242
3189.0,-0.0243
3188.0,-0.0243
3187.0,-0.0243
3186.0,-0.0244
3185.0,-0.0245
3184.0,-0.0247
3183.0,-0.0248
3182.0,-0.0249
3181.0,-0.0249
3180.0,-0.0248
3179.0,-0.0248
3178.0,-0.0247
3177.0,-0.0248
3176.0,-0.0249
3175.0,-0.025
3174.0,-0.0251
3173.0,-0.0252
3172.0,-0.0252
3171.0,-0.0252
3170.0,-0.0252
3169.0,-0.0252
3168.0,-0.0251
3167.0,-0.025
3166.0,-0.0249
3165.0,-0.025
3164.0,-0.0251
3163.0,-0.0251
3162.0,-0.0251
3161.0,-0.0249
3160.0,-0.0248
3159.0,-0.0248
3158.0,-0.0248
3157.0,-0.0248
3156.0,-0.0248
3155.0,-0.0247
3154.0,-0.0246
3153.0,-0.0245
3152.0,-0.0245
3151.0,-0.0244
3150.0,-0.0244
3149.0,-0.0244
3148.0,-0.0244
3147.0,-0.0244
3146.0,-0.0242
3145.0,-0.0241
3144.0,-0.0239
3143.0,-0.0238
3142.0,-0.0237
3141.0,-0.0236
3140.0,-0.0236
3139.0,-0.0236
3138.0,-0.0236
3137.0,-0.0236
3136.0,-0.0235
3135.0,-0.0234
3134.0,-0.0233
3133.0,-0.0233
3132.0,-0.0232
3131.0,-0.0231
3130.0,-0.023
3129.0,-0.0228
3128.0,-0.0226
3127.0,-0.0225
3126.0,-0.0225
3125.0,-0.0225
3124.0,-0.0224
3123.0,-0.0222
3122.0,-0.022
3121.0,-0.0218
3120.0,-0.0217
3119.0,-0.0217
3118.0,-0.0217
3117.0,-0.0216
3116.0,-0.0214
3115.0,-0.0212
3114.0,-0.021
3113.0,-0.021
3112.0,-0.021
3111.0,-0.0211
3110.0,-0.021
3109.0,-0.0208
3108.0,-0.0207
3107.0,-0.0206
3106.0,-0.0205
3105.0,-0.0204
3104.0,-0.0203
3103.0,-0.0201
3102.0,-0.02
3101.0,-0.0199
3100.0,-0.0197
3099.0,-0.0196
3098.0,-0.0195
3097.0,-0.0194
3096.0,-0.0192
3095.0,-0.0191
3094.0,-0.019
3093.0,-0.019
3092.0,-0.0189
3091.0,-0.0188
3090.0,-0.0187
3089.0,-0.0186
3088.0,-0.0186
3087.0,-0.0185
3086.0,-0.0184
3085.0,-0.0182
3084.0,-0.018
3083.0,-0.0179
3082.0,-0.0179
3081.0,-0.0178
3080.0,-0.0178
3079.0,-0.0177
3078.0,-0.0175
3077.0,-0.0173
3076.0,-0.0171
3075.0,-0.017
3074.0,-0.0169
3073.0,-0.0169
3072.0,-0.0168
3071.0,-0.0167
3070.0,-0.0165
3069.0,-0.0164
3068.0,-0.0162
3067.0,-0.0161
3066.0,-0.016
3065.0,-0.0159
3064.0,-0.0159
3063.0,-0.0158
3062.0,-0.0157
3061.0,-0.0157
3060.0,-0.0156
3059.0,-0.0154
3058.0,-0.0153
3057.0,-0.0152
3056.0,-0.0151
3055.0,-0.015
3054.0,-0.015
3053.0,-0.0148
3052.0,-0.0147
3051.0,-0.0145
3050.0,-0.0144
3049.0,-0.0142
3048.0,-0.0141
3047.0,-0.0141
3046.0,-0.0141
3045.0,-0.0141
3044.0,-0.0141
3043.0,-0.014
3042.0,-0.0138
3041.0,-0.0137
3040.0,-0.0136
3039.0,-0.0136
3038.0,-0.0135
3037.0,-0.0134
3036.0,-0.0133
3035.0,-0.0132
3034.0,-0.0132
3033.0,-0.0131
3032.0,-0.0131
3031.0,-0.0131
3030.0,-0.013
3029.0,-0.013
3028.0,-0.0129
3027.0,-0.0127
3026.0,-0.0126
3025.0,-0.0125
3024.0,-0.0123
3023.0,-0.0122
3022.0,-0.0122
3021.0,-0.012
3020.0,-0.0119
3019.0,-0.0119
3018.0,-0.0118
3017.0,-0.0118
3016.0,-0.0118
3015.0,-0.0118
3014.0,-0.0117
3013.0,-0.0116
3012.0,-0.0116
3011.0,-0.0115
3010.0,-0.0114
3009.0,-0.0113
3008.0,-0.0112
3007.0,-0.0111
3006.0,-0.011
3005.0,-0.0109
3004.0,-0.0108
3003.0,-0.0108
3002.0,-0.0108
3001.0,-0.0107
3000.0,-0.0107
2999.0,-0.0106
2998.0,-0.0106
2997.0,-0.0105
2996.0,-0.0103
2995.0,-0.0103
2994.0,-0.0102
2993.0,-0.0102
2992.0,-0.0101
2991.0,-0.01
2990.0,-0.0099
2989.0,-0.0098
2988.0,-0.0098
2987.0,-0.0098
2986.0,-0.0097
2985.0,-0.0096
2984.0,-0.0095
2983.0,-0.0094
2982.0,-0.0094
2981.0,-0.0093
2980.0,-0.0092
2979.0,-0.0091
2978.0,-0.009
2977.0,-0.0089
2976.0,-0.0088
2975.0,-0.0087
2974.0,-0.0087
2973.0,-0.0086
2972.0,-0.0086
2971.0,-0.0086
2970.0,-0.0085
2969.0,-0.0084
2968.0,-0.0084
2967.0,-0.0083
2966.0,-0.0082
2965.0,-0.0081
2964.0,-0.008
2963.0,-0.0079
2962.0,-0.0079
2961.0,-0.0078
2960.0,-0.0076
2959.0,-0.0075
2958.0,-0.0074
2957.0,-0.0073
2956.0,-0.0073
2955.0,-0.0072
2954.0,-0.007
2953.0,-0.0069
2952.0,-0.0069
2951.0,-0.0068
2950.0,-0.0068
2949.0,-0.0068
2948.0,-0.0069
2947.0,-0.0069
2946.0,-0.0068
2945.0,-0.0068
2944.0,-0.0067
2943.0,-0.0066
2942.0,-0.0066
2941.0,-0.0065
2940.0,-0.0065
2939.0,-0.0064
2938.0,-0.0064
2937.0,-0.0064
2936.0,-0.0064
2935.0,-0.0065
2934.0,-0.0065
2933.0,-0.0065
2932.0,-0.0066
2931.0,-0.0065
2930.0,-0.0064
2929.0,-0.0063
2928.0,-0.0062
2927.0,-0.0062
2926.0,-0.0062
2925.0,-0.0062
2924.0,-0.0062
2923.0,-0.0061
2922.0,-0.0061
2921.0,-0.0061
2920.0,-0.006
2919.0,-0.006
2918.0,-0.0059
2917.0,-0.0059
2916.0,-0.0059
2915.0,-0.0059
2914.0,-0.006
2913.0,-0.006
2912.0,-0.0059
2911.0,-0.0059
2910.0,-0.0058
2909.0,-0.0057
2908.0,-0.0057
2907.0,-0.0057
2906.0,-0.0057
2905.0,-0.0056
2904.0,-0.0055
2903.0,-0.0055
2902.0,-0.0055
2901.0,-0.0055
2900.0,-0.0055
2899.0,-0.0055
2898.0,-0.0056
2897.0,-0.0056
2896.0,-0.0056
2895.0,-0.0056
2894.0,-0.0055
2893.0,-0.0054
2892.0,-0.0054
2891.0,-0.0053
2890.0,-0.0052
2889.0,-0.0051
2888.0,-0.0051
2887.0,-0.0051
2886.0,-0.0051
2885.0,-0.0051
2884.0,-0.0051
2883.0,-0.0051
2882.0,-0.0052
2881.0,-0.0051
2880.0,-0.005
2879.0,-0.0049
2878.0,-0.0049
2877.0,-0.0048
2876.0,-0.0048
2875.0,-0.0047
2874.0,-0.0047
2873.0,-0.0048
2872.0,-0.0048
2871.0,-0.0049
2870.0,-0.0049
2869.0,-0.0048
2868.0,-0.0048
2867.0,-0.0047
2866.0,-0.0047
2865.0,-0.0047
2864.0,-0.0046
2863.0,-0.0046
2862.0,-0.0046
2861.0,-0.0046
2860.0,-0.0046
2859.0,-0.0045
2858.0,-0.0045
2857.0,-0.0045
2856.0,-0.0044
2855.0,-0.0043
2854.0,-0.0042
2853.0,-0.0041
2852.0,-0.004
2851.0,-0.004
2850.0,-0.0041
2849.0,-0.0041
2848.0,-0.0042
2847.0,-0.0042
2846.0,-0.0042
2845.0,-0.0042
2844.0,-0.0041
2843.0,-0.0041
2842.0,-0.0041
2841.0,-0.0041
2840.0,-0.004
2839.0,-0.004
2838.0,-0.0039
2837.0,-0.004
2836.0,-0.004
2835.0,-0.0041
2834.0,-0.0041
2833.0,-0.0041
2832.0,-0.004
2831.0,-0.0039
2830.0,-0.0039
2829.0,-0.0039
2828.0,-0.004
2827.0,-0.0041
2826.0,-0.0041
2825.0,-0.0041
2824.0,-0.004
2823.0,-0.0039
2822.0,-0.0037
2821.0,-0.0037
2820.0,-0.0037
2819.0,-0.0036
2818.0,-0.0036
2817.0,-0.0036
2816.0,-0.0035
2815.0,-0.0035
2814.0,-0.0035
2813.0,-0.0035
2812.0,-0.0035
2811.0,-0.0036
2810.0,-0.0036
2809.0,-0.0036
2808.0,-0.0036
2807.0,-0.0035
2806.0,-0.0035
2805.0,-0.0035
2804.0,-0.0036
2803.0,-0.0036
2802.0,-0.0036
2801.0,-0.0036
2800.0,-0.0036
2799.0,-0.0035
2798.0,-0.0034
2797.0,-0.0034
2796.0,-0.0033
2795.0,-0.0033
2794.0,-0.0033
2793.0,-0.0032
2792.0,-0.0032
2791.0,-0.0032
2790.0,-0.0033
2789.0,-0.0033
2788.0,-0.0033
2787.0,-0.0033
2786.0,-0.0033
2785.0,-0.0032
2784.0,-0.0032
2783.0,-0.0031
2782.0,-0.0031
2781.0,-0.0031
2780.0,-0.0031
2779.0,-0.0031
2778.0,-0.0031
2777.0,-0.0031
2776.0,-0.0031
2775.0,-0.0031
2774.0,-0.0031
2773.0,-0.0031
2772.0,-0.0031
2771.0,-0.0031
2770.0,-0.0031
2769.0,-0.0031
2768.0,-0.0031
2767.0,-0.0031
2766.0,-0.0031
2765.0,-0.0031
2764.0,-0.0031
2763.0,-0.0031
2762.0,-0.0031
2761.0,-0.0031
2760.0,-0.0031
2759.0,-0.003
2758.0,-0.003
2757.0,-0.0029
2756.0,-0.0029
2755.0,-0.0028
2754.0,-0.0029
2753.0,-0.0029
2752.0,-0.003
2751.0,-0.0031
2750.0,-0.0031
2749.0,-0.003
2748.0,-0.003
2747.0,-0.0029
2746.0,-0.0029
2745.0,-0.0029
2744.0,-0.0029
2743.0,-0.0029
2742.0,-0.0028
2741.0,-0.0028
2740.0,-0.0027
2739.0,-0.0026
2738.0,-0.0026
2737.0,-0.0026
2736.0,-0.0026
2735.0,-0.0026
2734.0,-0.0026
2733.0,-0.0026
2732.0,-0.0026
2731.0,-0.0026
2730.0,-0.0026
2729.0,-0.0026
2728.0,-0.0027
2727.0,-0.0028
2726.0,-0.0028
2725.0,-0.0028
2724.0,-0.0028
2723.0,-0.0028
2722.0,-0.0028
2721.0,-0.0028
2720.0,-0.0028
2719.0,-0.0028
2718.0,-0.0028
2717.0,-0.0028
2716.0,-0.0027
2715.0,-0.0027
2714.0,-0.0027
2713.0,-0.0026
2712.0,-0.0026
2711.0,-0.0026
2710.0,-0.0026
2709.0,-0.0026
2708.0,-0.0026
2707.0,-0.0026
2706.0,-0.0026
2705.0,-0.0026
2704.0,-0.0025
2703.0,-0.0025
2702.0,-0.0025
2701.0,-0.0025
2700.0,-0.0025
2699.0,-0.0025
2698.0,-0.0026
2697.0,-0.0026
2696.0,-0.0026
2695.0,-0.0026
2694.0,-0.0026
2693.0,-0.0025
2692.0,-0.0025
2691.0,-0.0025
2690.0,-0.0025
2689.0,-0.0025
2688.0,-0.0025
2687.0,-0.0024
2686.0,-0.0024
2685.0,-0.0023
2684.0,-0.0024
2683.0,-0.0024
2682.0,-0.0024
2681.0,-0.0024
2680.0,-0.0023
2679.0,-0.0022
2678.0,-0.0022
2677.0,-0.0022
2676.0,-0.0023
2675.0,-0.0023
2674.0,-0.0024
2673.0,-0.0025
2672.0,-0.0025
2671.0,-0.0025
2670.0,-0.0024
2669.0,-0.0024
2668.0,-0.0024
2667.0,-0.0024
2666.0,-0.0024
2665.0,-0.0024
2664.0,-0.0024
2663.0,-0.0024
2662.0,-0.0024
2661.0,-0.0023
2660.0,-0.0023
2659.0,-0.0023
2658.0,-0.0023
2657.0,-0.0023
2656.0,-0.0023
2655.0,-0.0024
2654.0,-0.0024
2653.0,-0.0024
2652.0,-0.0024
2651.0,-0.0023
2650.0,-0.0023
2649.0,-0.0022
2648.0,-0.0022
2647.0,-0.0023
2646.0,-0.0023
2645.0,-0.0023
2644.0,-0.0023
2643.0,-0.0023
2642.0,-0.0023
2641.0,-0.0023
2640.0,-0.0022
2639.0,-0.0021
2638.0,-0.0021
2637.0,-0.0021
2636.0,-0.0022
2635.0,-0.0023
2634.0,-0.0023
2633.0,-0.0023
2632.0,-0.0023
2631.0,-0.0022
2630.0,-0.0022
2629.0,-0.0022
2628.0,-0.0022
2627.0,-0.0022
2626.0,-0.0022
2625.0,-0.0022
2624.0,-0.0022
2623.0,-0.0021
2622.0,-0.0021
2621.0,-0.0021
2620.0,-0.0021
2619.0,-0.0022
2618.0,-0.0023
2617.0,-0.0023
2616.0,-0.0023
2615.0,-0.0023
2614.0,-0.0023
2613.0,-0.0023
2612.0,-0.0023
2611.0,-0.0022
2610.0,-0.0022
2609.0,-0.0022
2608.0,-0.0022
2607.0,-0.0022
2606.0,-0.0022
2605.0,-0.0023
2604.0,-0.0023
2603.0,-0.0023
2602.0,-0.0023
2601.0,-0.0023
2600.0,-0.0023
2599.0,-0.0022
2598.0,-0.0022
2597.0,-0.0022
2596.0,-0.0022
2595.0,-0.0022
2594.0,-0.0021
2593.0,-0.0021
2592.0,-0.0021
2591.0,-0.0021
2590.0,-0.0021
2589.0,-0.0021
2588.0,-0.0021
2587.0,-0.0022
2586.0,-0.0022
2585.0,-0.0022
2584.0,-0.0021
2583.0,-0.0021
2582.0,-0.0021
2581.0,-0.0021
2580.0,-0.0021
2579.0,-0.0021
2578.0,-0.002
2577.0,-0.0021
2576.0,-0.0021
2575.0,-0.0021
2574.0,-0.0021
2573.0,-0.0021
2572.0,-0.0021
2571.0,-0.0021
2570.0,-0.0022
2569.0,-0.0022
2568.0,-0.0022
2567.0,-0.0022
2566.0,-0.0021
2565.0,-0.0022
2564.0,-0.0022
2563.0,-0.0022
2562.0,-0.0021
2561.0,-0.0021
2560.0,-0.002
2559.0,-0.002
2558.0,-0.002
2557.0,-0.002
2556.0,-0.002
2555.0,-0.002
2554.0,-0.0021
2553.0,-0.0021
2552.0,-0.0022
2551.0,-0.0023
2550.0,-0.0023
2549.0,-0.0023
2548.0,-0.0023
2547.0,-0.0023
2546.0,-0.0023
2545.0,-0.0023
2544.0,-0.0023
2543.0,-0.0023
2542.0,-0.0023
2541.0,-0.0022
2540.0,-0.0022
2539.0,-0.0022
2538.0,-0.0022
2537.0,-0.0023
2536.0,-0.0023
2535.0,-0.0023
2534.0,-0.0022
2533.0,-0.0022
2532.0,-0.0022
2531.0,-0.0022
2530.0,-0.0022
2529.0,-0.0022
2528.0,-0.0022
2527.0,-0.0021
2526.0,-0.0021
2525.0,-0.0021
2524.0,-0.002
2523.0,-0.002
2522.0,-0.0021
2521.0,-0.0021
2520.0,-0.0021
2519.0,-0.0021
2518.0,-0.0021
2517.0,-0.0021
2516.0,-0.0022
2515.0,-0.0022
2514.0,-0.0022
2513.0,-0.0023
2512.0,-0.0023
2511.0,-0.0023
2510.0,-0.0023
2509.0,-0.0023
2508.0,-0.0023
2507.0,-0.0023
2506.0,-0.0023
2505.0,-0.0023
2504.0,-0.0023
2503.0,-0.0023
2502.0,-0.0023
2501.0,-0.0023
2500.0,-0.0022
2499.0,-0.0022
2498.0,-0.0022
2497.0,-0.0023
2496.0,-0.0023
2495.0,-0.0024
2494.0,-0.0024
2493.0,-0.0024
2492.0,-0.0024
2491.0,-0.0024
2490.0,-0.0024
2489.0,-0.0024
2488.0,-0.0024
2487.0,-0.0024
2486.0,-0.0024
2485.0,-0.0024
2484.0,-0.0024
2483.0,-0.0023
2482.0,-0.0023
2481.0,-0.0024
2480.0,-0.0024
2479.0,-0.0024
2478.0,-0.0025
2477.0,-0.0025
2476.0,-0.0025
2475.0,-0.0025
2474.0,-0.0025
2473.0,-0.0026
2472.0,-0.0026
2471.0,-0.0026
2470.0,-0.0026
2469.0,-0.0025
2468.0,-0.0025
2467.0,-0.0025
2466.0,-0.0024
2465.0,-0.0024
2464.0,-0.0023
2463.0,-0.0024
2462.0,-0.0024
2461.0,-0.0025
2460.0,-0.0026
2459.0,-0.0026
2458.0,-0.0025
2457.0,-0.0025
2456.0,-0.0025
2455.0,-0.0025
2454.0,-0.0024
2453.0,-0.0024
2452.0,-0.0024
2451.0,-0.0025
2450.0,-0.0025
2449.0,-0.0026
2448.0,-0.0026
2447.0,-0.0026
2446.0,-0.0026
2445.0,-0.0026
2444.0,-0.0027
2443.0,-0.0027
2442.0,-0.0026
2441.0,-0.0026
2440.0,-0.0026
2439.0,-0.0026
2438.0,-0.0026
2437.0,-0.0027
2436.0,-0.0027
2435.0,-0.0026
2434.0,-0.0025
2433.0,-0.0025
2432.0,-0.0026
2431.0,-0.0026
2430.0,-0.0027
2429.0,-0.0027
2428.0,-0.0027
2427.0,-0.0027
2426.0,-0.0027
2425.0,-0.0027
2424.0,-0.0028
2423.0,-0.0028
2422.0,-0.0028
2421.0,-0.0027
2420.0,-0.0027
2419.0,-0.0027
2418.0,-0.0027
2417.0,-0.0027
2416.0,-0.0027
2415.0,-0.0027
2414.0,-0.0027
2413.0,-0.0027
2412.0,-0.0027
2411.0,-0.0027
2410.0,-0.0027
2409.0,-0.0026
2408.0,-0.0026
2407.0,-0.0027
2406.0,-0.0027
2405.0,-0.0028
2404.0,-0.0028
2403.0,-0.0028
2402.0,-0.0028
2401.0,-0.0028
2400.0,-0.0028
2399.0,-0.0028
2398.0,-0.0028
2397.0,-0.0028
2396.0,-0.0028
2395.0,-0.0027
2394.0,-0.0027
2393.0,-0.0027
2392.0,-0.0028
2391.0,-0.0028
2390.0,-0.0029
2389.0,-0.0029
2388.0,-0.0029
2387.0,-0.0028
2386.0,-0.0028
2385.0,-0.0027
2384.0,-0.0027
2383.0,-0.0026
2382.0,-0.0026
2381.0,-0.0027
2380.0,-0.0027
2379.0,-0.0028
2378.0,-0.0028
2377.0,-0.0027
2376.0,-0.0026
2375.0,-0.0026
2374.0,-0.0029
2373.0,-0.0033
2372.0,-0.0037
2371.0,-0.0038
2370.0,-0.0036
2369.0,-0.0031
2368.0,-0.0025
2367.0,-0.0019
2366.0,-0.0015
2365.0,-0.0016
2364.0,-0.0021
2363.0,-0.0028
2362.0,-0.0033
2361.0,-0.0035
2360.0,-0.0036
2359.0,-0.0034
2358.0,-0.0027
2357.0,-0.0017
2356.0,-0.0013
2355.0,-0.0018
2354.0,-0.0027
2353.0,-0.0034
2352.0,-0.0034
2351.0,-0.0031
2350.0,-0.0028
2349.0,-0.0028
2348.0,-0.003
2347.0,-0.0033
2346.0,-0.0033
2345.0,-0.003
2344.0,-0.0025
2343.0,-0.0024
2342.0,-0.0027
2341.0,-0.0032
2340.0,-0.0034
2339.0,-0.0033
2338.0,-0.0033
2337.0,-0.0033
2336.0,-0.0032
2335.0,-0.0028
2334.0,-0.0024
2333.0,-0.0023
2332.0,-0.0022
2331.0,-0.0021
2330.0,-0.0017
2329.0,-0.0014
2328.0,-0.0012
2327.0,-0.0012
2326.0,-0.0014
2325.0,-0.0017
2324.0,-0.002
2323.0,-0.0022
2322.0,-0.0023
2321.0,-0.0021
2320.0,-0.0019
2319.0,-0.0016
2318.0,-0.0014
2317.0,-0.0013
2316.0,-0.0012
2315.0,-0.0012
2314.0,-0.0012
2313.0,-0.0013
2312.0,-0.0013
2311.0,-0.0012
2310.0,-0.0011
2309.0,-0.001
2308.0,-0.0009
2307.0,-0.0008
2306.0,-0.0007
2305.0,-0.0008
2304.0,-0.0009
2303.0,-0.001
2302.0,-0.001
2301.0,-0.0009
2300.0,-0.0009
2299.0,-0.0009
2298.0,-0.0008
2297.0,-0.0007
2296.0,-0.0006
2295.0,-0.0004
2294.0,-0.0003
2293.0,-0.0002
2292.0,-0.0001
2291.0,-0.0001
2290.0,-0.0001
2289.0,-0.0001
2288.0,-0.0001
2287.0,-0.0
2286.0,-0.0
2285.0,-0.0
2284.0,-0.0001
2283.0,-0.0001
2282.0,-0.0
2281.0,0.0001
2280.0,0.0001
2279.0,0.0001
2278.0,0.0
2277.0,-0.0
2276.0,-0.0
2275.0,0.0
2274.0,0.0001
2273.0,0.0001
2272.0,0.0002
2271.0,0.0002
2270.0,0.0003
2269.0,0.0003
2268.0,0.0003
2267.0,0.0003
2266.0,0.0003
2265.0,0.0003
2264.0,0.0003
2263.0,0.0003
2262.0,0.0003
2261.0,0.0002
2260.0,0.0002
2259.0,0.0002
2258.0,0.0002
2257.0,0.0002
2256.0,0.0002
2255.0,0.0002
2254.0,0.0002
2253.0,0.0003
2252.0,0.0003
2251.0,0.0003
2250.0,0.0003
2249.0,0.0003
2248.0,0.0003
2247.0,0.0002
2246.0,0.0002
2245.0,0.0002
2244.0,0.0002
2243.0,0.0002
2242.0,0.0002
2241.0,0.0002
2240.0,0.0002
2239.0,0.0002
2238.0,0.0002
2237.0,0.0002
2236.0,0.0001
2235.0,0.0001
2234.0,0.0001
2233.0,0.0001
2232.0,0.0001
2231.0,0.0001
2230.0,0.0001
2229.0,0.0001
2228.0,0.0001
2227.0,0.0
2226.0,-0.0
2225.0,-0.0001
2224.0,-0.0001
2223.0,-0.0001
2222.0,-0.0
2221.0,-0.0
2220.0,-0.0
2219.0,-0.0001
2218.0,-0.0001
2217.0,-0.0002
2216.0,-0.0001
2215.0,-0.0001
2214.0,-0.0001
2213.0,-0.0001
2212.0,-0.0001
2211.0,-0.0002
2210.0,-0.0002
2209.0,-0.0003
2208.0,-0.0003
2207.0,-0.0004
2206.0,-0.0004
2205.0,-0.0005
2204.0,-0.0006
2203.0,-0.0006
2202.0,-0.0005
2201.0,-0.0005
2200.0,-0.0005
2199.0,-0.0005
2198.0,-0.0005
2197.0,-0.0005
2196.0,-0.0005
2195.0,-0.0006
2194.0,-0.0006
2193.0,-0.0007
2192.0,-0.0007
2191.0,-0.0007
2190.0,-0.0007
2189.0,-0.0008
2188.0,-0.0009
2187.0,-0.0009
2186.0,-0.0009
2185.0,-0.0009
2184.0,-0.0009
2183.0,-0.0009
2182.0,-0.0009
2181.0,-0.0009
2180.0,-0.0009
2179.0,-0.0009
2178.0,-0.0009
2177.0,-0.0009
2176.0,-0.0009
2175.0,-0.0009
2174.0,-0.0009
2173.0,-0.0009
2172.0,-0.001
2171.0,-0.001
2170.0,-0.001
2169.0,-0.001
2168.0,-0.001
2167.0,-0.001
2166.0,-0.0011
2165.0,-0.0011
2164.0,-0.0011
2163.0,-0.0012
2162.0,-0.0012
2161.0,-0.0013
2160.0,-0.0013
2159.0,-0.0013
2158.0,-0.0013
2157.0,-0.0014
2156.0,-0.0014
2155.0,-0.0014
2154.0,-0.0014
2153.0,-0.0013
2152.0,-0.0013
2151.0,-0.0013
2150.0,-0.0013
2149.0,-0.0013
2148.0,-0.0014
2147.0,-0.0014
2146.0,-0.0014
2145.0,-0.0014
2144.0,-0.0014
2143.0,-0.0014
2142.0,-0.0014
2141.0,-0.0014
2140.0,-0.0014
2139.0,-0.0015
2138.0,-0.0015
2137.0,-0.0015
2136.0,-0.0016
2135.0,-0.0016
2134.0,-0.0015
2133.0,-0.0015
2132.0,-0.0015
2131.0,-0.0014
2130.0,-0.0014
2129.0,-0.0014
2128.0,-0.0014
2127.0,-0.0015
2126.0,-0.0015
2125.0,-0.0016
2124.0,-0.0016
2123.0,-0.0017
2122.0,-0.0017
2121.0,-0.0017
2120.0,-0.0017
2119.0,-0.0016
2118.0,-0.0016
2117.0,-0.0016
2116.0,-0.0016
2115.0,-0.0017
2114.0,-0.0017
2113.0,-0.0018
2112.0,-0.0018
2111.0,-0.0018
2110.0,-0.0018
2109.0,-0.0018
2108.0,-0.0018
2107.0,-0.0018
2106.0,-0.0018
2105.0,-0.0018
2104.0,-0.0018
2103.0,-0.0018
2102.0,-0.0018
2101.0,-0.0018
2100.0,-0.0018
2099.0,-0.0018
2098.0,-0.0018
2097.0,-0.0018
2096.0,-0.0018
2095.0,-0.0018
2094.0,-0.0018
2093.0,-0.0019
2092.0,-0.0019
2091.0,-0.0019
2090.0,-0.0019
2089.0,-0.0019
2088.0,-0.0019
2087.0,-0.0019
2086.0,-0.0019
2085.0,-0.0019
2084.0,-0.002
2083.0,-0.002
2082.0,-0.0019
2081.0,-0.0019
2080.0,-0.0018
2079.0,-0.0017
2078.0,-0.0018
2077.0,-0.0018
2076.0,-0.0018
2075.0,-0.0019
2074.0,-0.0019
2073.0,-0.0019
2072.0,-0.002
2071.0,-0.002
2070.0,-0.002
2069.0,-0.002
2068.0,-0.002
2067.0,-0.002
2066.0,-0.002
2065.0,-0.0021
2064.0,-0.0021
2063.0,-0.0021
2062.0,-0.0021
2061.0,-0.0021
2060.0,-0.0021
2059.0,-0.0021
2058.0,-0.0022
2057.0,-0.0023
2056.0,-0.0023
2055.0,-0.0023
2054.0,-0.0023
2053.0,-0.0023
2052.0,-0.0023
2051.0,-0.0023
2050.0,-0.0023
2049.0,-0.0023
2048.0,-0.0023
2047.0,-0.0022
2046.0,-0.0022
2045.0,-0.0022
2044.0,-0.0022
2043.0,-0.0022
2042.0,-0.0023
2041.0,-0.0024
2040.0,-0.0025
2039.0,-0.0025
2038.0,-0.0025
2037.0,-0.0025
2036.0,-0.0024
2035.0,-0.0024
2034.0,-0.0024
2033.0,-0.0025
2032.0,-0.0026
2031.0,-0.0026
2030.0,-0.0026
2029.0,-0.0026
2028.0,-0.0026
2027.0,-0.0026
2026.0,-0.0026
2025.0,-0.0026
2024.0,-0.0026
2023.0,-0.0026
2022.0,-0.0027
2021.0,-0.0027
2020.0,-0.0028
2019.0,-0.0028
2018.0,-0.0028
2017.0,-0.0029
2016.0,-0.0028
2015.0,-0.0028
2014.0,-0.0027
2013.0,-0.0027
2012.0,-0.0027
2011.0,-0.0027
2010.0,-0.0027
2009.0,-0.0027
2008.0,-0.0028
2007.0,-0.0028
2006.0,-0.0028
2005.0,-0.0028
2004.0,-0.0028
2003.0,-0.0028
2002.0,-0.0028
2001.0,-0.0028
2000.0,-0.0028
1999.0,-0.0029
1998.0,-0.0029
1997.0,-0.0029
1996.0,-0.0029
1995.0,-0.0028
1994.0,-0.0028
1993.0,-0.0028
1992.0,-0.0028
1991.0,-0.0028
1990.0,-0.0028
1989.0,-0.0029
1988.0,-0.0029
1987.0,-0.003
1986.0,-0.003
1985.0,-0.0029
1984.0,-0.0029
1983.0,-0.0029
1982.0,-0.0028
1981.0,-0.0028
1980.0,-0.0028
1979.0,-0.0028
1978.0,-0.0028
1977.0,-0.0029
1976.0,-0.0029
1975.0,-0.0028
1974.0,-0.0028
1973.0,-0.0028
1972.0,-0.0028
1971.0,-0.0028
1970.0,-0.0028
1969.0,-0.0028
1968.0,-0.0028
1967.0,-0.0028
1966.0,-0.0028
1965.0,-0.0027
1964.0,-0.0027
1963.0,-0.0026
1962.0,-0.0026
1961.0,-0.0026
1960.0,-0.0026
1959.0,-0.0027
1958.0,-0.0027
1957.0,-0.0027
1956.0,-0.0028
1955.0,-0.0028
1954.0,-0.0028
1953.0,-0.0027
1952.0,-0.0027
1951.0,-0.0027
1950.0,-0.0027
1949.0,-0.0027
1948.0,-0.0027
1947.0,-0.0027
1946.0,-0.0027
1945.0,-0.0027
1944.0,-0.0027
1943.0,-0.0028
1942.0,-0.0028
1941.0,-0.0028
1940.0,-0.0028
1939.0,-0.0028
1938.0,-0.0028
1937.0,-0.0028
1936.0,-0.0028
1935.0,-0.0029
1934.0,-0.0029
1933.0,-0.0029
1932.0,-0.0029
1931.0,-0.0029
1930.0,-0.0029
1929.0,-0.0029
1928.0,-0.0029
1927.0,-0.0029
1926.0,-0.003
1925.0,-0.003
1924.0,-0.0031
1923.0,-0.0031
1922.0,-0.0031
1921.0,-0.0031
1920.0,-0.0031
1919.0,-0.0031
1918.0,-0.0031
1917.0,-0.0031
1916.0,-0.0031
1915.0,-0.0031
1914.0,-0.0031
1913.0,-0.0031
1912.0,-0.0032
1911.0,-0.0032
1910.0,-0.0032
1909.0,-0.0033
1908.0,-0.0033
1907.0,-0.0033
1906.0,-0.0033
1905.0,-0.0033
1904.0,-0.0032
1903.0,-0.0032
1902.0,-0.0032
1901.0,-0.0032
1900.0,-0.0032
1899.0,-0.0032
1898.0,-0.0033
1897.0,-0.0033
1896.0,-0.0034
1895.0,-0.0034
1894.0,-0.0034
1893.0,-0.0034
1892.0,-0.0033
1891.0,-0.0033
1890.0,-0.0033
1889.0,-0.0034
1888.0,-0.0034
1887.0,-0.0034
1886.0,-0.0033
1885.0,-0.0033
1884.0,-0.0033
1883.0,-0.0033
1882.0,-0.0033
1881.0,-0.0033
1880.0,-0.0033
1879.0,-0.0033
1878.0,-0.0032
1877.0,-0.0032
1876.0,-0.0032
1875.0,-0.0032
1874.0,-0.0031
1873.0,-0.0031
1872.0,-0.0031
1871.0,-0.0031
1870.0,-0.0032
1869.0,-0.0033
1868.0,-0.0035
1867.0,-0.0035
1866.0,-0.0035
1865.0,-0.0034
1864.0,-0.0033
1863.0,-0.0033
1862.0,-0.0032
1861.0,-0.0033
1860.0,-0.0033
1859.0,-0.0034
1858.0,-0.0035
1857.0,-0.0035
1856.0,-0.0036
1855.0,-0.0037
1854.0,-0.0037
1853.0,-0.0037
1852.0,-0.0037
1851.0,-0.0037
1850.0,-0.0038
1849.0,-0.0039
1848.0,-0.004
1847.0,-0.0041
1846.0,-0.0041
1845.0,-0.0041
1844.0,-0.0042
1843.0,-0.0043
1842.0,-0.0043
1841.0,-0.0044
1840.0,-0.0044
1839.0,-0.0044
1838.0,-0.0045
1837.0,-0.0045
1836.0,-0.0045
1835.0,-0.0046
1834.0,-0.0046
1833.0,-0.0046
1832.0,-0.0046
1831.0,-0.0046
1830.0,-0.0047
1829.0,-0.0048
1828.0,-0.0048
1827.0,-0.0048
1826.0,-0.0049
1825.0,-0.005
1824.0,-0.0051
1823.0,-0.0051
1822.0,-0.0051
1821.0,-0.0051
1820.0,-0.0052
1819.0,-0.0052
1818.0,-0.0053
1817.0,-0.0053
1816.0,-0.0054
1815.0,-0.0055
1814.0,-0.0055
1813.0,-0.0056
1812.0,-0.0057
1811.0,-0.0058
1810.0,-0.0059
1809.0,-0.006
1808.0,-0.0061
1807.0,-0.0061
1806.0,-0.0061
1805.0,-0.0061
1804.0,-0.0061
1803.0,-0.0061
1802.0,-0.0062
1801.0,-0.0062
1800.0,-0.0063
1799.0,-0.0064
1798.0,-0.0065
1797.0,-0.0065
1796.0,-0.0066
1795.0,-0.0066
1794.0,-0.0066
1793.0,-0.0067
1792.0,-0.0069
1791.0,-0.007
1790.0,-0.0071
1789.0,-0.0072
1788.0,-0.0072
1787.0,-0.0073
1786.0,-0.0074
1785.0,-0.0075
1784.0,-0.0076
1783.0,-0.0076
1782.0,-0.0077
1781.0,-0.0079
1780.0,-0.0081
1779.0,-0.0081
1778.0,-0.0082
1777.0,-0.0082
1776.0,-0.0083
1775.0,-0.0084
1774.0,-0.0085
1773.0,-0.0089
1772.0,-0.0092
1771.0,-0.0093
1770.0,-0.0094
1769.0,-0.0094
1768.0,-0.0096
1767.0,-0.0098
1766.0,-0.0099
1765.0,-0.0099
1764.0,-0.01
1763.0,-0.0102
1762.0,-0.0104
1761.0,-0.0107
1760.0,-0.0109
1759.0,-0.0109
1758.0,-0.0109
1757.0,-0.011
1756.0,-0.0111
1755.0,-0.011
1754.0,-0.0109
1753.0,-0.0108
1752.0,-0.0106
1751.0,-0.0104
1750.0,-0.01
1749.0,-0.0096
1748.0,-0.009
1747.0,-0.0083
1746.0,-0.0074
1745.0,-0.0064
1744.0,-0.0051
1743.0,-0.0037
1742.0,-0.0021
1741.0,-0.0004
1740.0,0.0016
1739.0,0.0036
1738.0,0.0052
1737.0,0.0064
1736.0,0.0079
1735.0,0.0103
1734.0,0.0135
1733.0,0.0158
1732.0,0.0173
1731.0,0.019
1730.0,0.0209
1729.0,0.0227
1728.0,0.0243
1727.0,0.0257
1726.0,0.0271
1725.0,0.0286
1724.0,0.0301
1723.0,0.0315
1722.0,0.0324
1721.0,0.033
1720.0,0.0333
1719.0,0.0339
1718.0,0.0349
1717.0,0.0359
1716.0,0.0362
1715.0,0.0362
1714.0,0.0358
1713.0,0.0351
1712.0,0.034
1711.0,0.0328
1710.0,0.0315
1709.0,0.0301
1708.0,0.0286
1707.0,0.027
1706.0,0.0252
1705.0,0.0235
1704.0,0.0221
1703.0,0.0209
1702.0,0.0197
1701.0,0.0183
1700.0,0.0168
1699.0,0.0154
1698.0,0.0142
1697.0,0.0131
1696.0,0.012
1695.0,0.0111
1694.0,0.0104
1693.0,0.0098
1692.0,0.009
1691.0,0.0082
1690.0,0.0073
1689.0,0.0066
1688.0,0.006
1687.0,0.0055
1686.0,0.005
1685.0,0.0043
1684.0,0.0034
1683.0,0.0026
1682.0,0.0021
1681.0,0.0015
1680.0,0.001
1679.0,0.0005
1678.0,0.0001
1677.0,-0.0003
1676.0,-0.0008
1675.0,-0.0014
1674.0,-0.002
1673.0,-0.0025
1672.0,-0.003
1671.0,-0.0034
1670.0,-0.004
1669.0,-0.0046
1668.0,-0.0051
1667.0,-0.0054
1666.0,-0.0057
1665.0,-0.0059
1664.0,-0.006
1663.0,-0.0061
1662.0,-0.0062
1661.0,-0.0062
1660.0,-0.006
1659.0,-0.0057
1658.0,-0.0053
1657.0,-0.0049
1656.0,-0.0045
1655.0,-0.0039
1654.0,-0.0015
1653.0,0.0026
1652.0,0.0055
1651.0,0.007
1650.0,0.0087
1649.0,0.0109
1648.0,0.0149
1647.0,0.0208
1646.0,0.0258
1645.0,0.029
1644.0,0.0318
1643.0,0.0351
1642.0,0.0391
1641.0,0.0438
1640.0,0.0488
1639.0,0.0535
1638.0,0.0581
1637.0,0.0643
1636.0,0.0729
1635.0,0.079
1634.0,0.0791
1633.0,0.0757
1632.0,0.0709
1631.0,0.0655
1630.0,0.0596
1629.0,0.0534
1628.0,0.0474
1627.0,0.0421
1626.0,0.0373
1625.0,0.0321
1624.0,0.0262
1623.0,0.0202
1622.0,0.0157
1621.0,0.0127
1620.0,0.0104
1619.0,0.0083
1618.0,0.0064
1617.0,0.0045
1616.0,0.003
1615.0,0.0021
1614.0,0.0015
1613.0,0.0011
1612.0,0.0005
1611.0,-0.0001
1610.0,-0.0007
1609.0,-0.0012
1608.0,-0.0016
1607.0,-0.002
1606.0,-0.0023
1605.0,-0.0025
1604.0,-0.0028
1603.0,-0.0031
1602.0,-0.0033
1601.0,-0.0034
1600.0,-0.0035
1599.0,-0.0036
1598.0,-0.0036
1597.0,-0.0036
1596.0,-0.0037
1595.0,-0.0037
1594.0,-0.0037
1593.0,-0.0037
1592.0,-0.0037
1591.0,-0.0037
1590.0,-0.0035
1589.0,-0.0033
1588.0,-0.0031
1587.0,-0.0029
1586.0,-0.0026
1585.0,-0.0022
1584.0,-0.0018
1583.0,-0.0012
1582.0,-0.0006
1581.0,0.0
1580.0,0.0006
1579.0,0.0009
1578.0,0.001
1577.0,0.0011
1576.0,0.0012
1575.0,0.0013
1574.0,0.0013
1573.0,0.0014
1572.0,0.0013
1571.0,0.0012
1570.0,0.0011
1569.0,0.001
1568.0,0.0009
1567.0,0.0008
1566.0,0.0008
1565.0,0.0007
1564.0,0.0007
1563.0,0.0007
1562.0,0.0006
1561.0,0.0005
1560.0,0.0005
1559.0,0.0005
1558.0,0.0005
1557.0,0.0005
1556.0,0.0005
1555.0,0.0004
1554.0,0.0004
1553.0,0.0004
1552.0,0.0005
1551.0,0.0005
1550.0,0.0005
1549.0,0.0005
1548.0,0.0005
1547.0,0.0004
1546.0,0.0003
1545.0,0.0003
1544.0,0.0003
1543.0,0.0003
1542.0,0.0003
1541.0,0.0002
1540.0,0.0001
1539.0,-0.0001
1538.0,-0.0001
1537.0,0.0
1536.0,0.0002
1535.0,0.0003
1534.0,0.0003
1533.0,0.0003
1532.0,0.0003
1531.0,0.0002
1530.0,0.0002
1529.0,0.0002
1528.0,0.0002
1527.0,0.0001
1526.0,0.0001
1525.0,0.0001
1524.0,0.0001
1523.0,-0.0001
1522.0,-0.0002
1521.0,-0.0004
1520.0,-0.0005
1519.0,-0.0006
1518.0,-0.0007
1517.0,-0.0008
1516.0,-0.0009
1515.0,-0.0009
1514.0,-0.0008
1513.0,-0.0008
1512.0,-0.0007
1511.0,-0.0008
1510.0,-0.0007
1509.0,-0.0005
1508.0,0.0004
1507.0,0.0022
1506.0,0.0035
1505.0,0.0039
1504.0,0.0037
1503.0,0.0033
1502.0,0.0028
1501.0,0.0023
1500.0,0.0017
1499.0,0.0012
1498.0,0.0006
1497.0,-0.0
1496.0,-0.0005
1495.0,-0.0008
1494.0,-0.0009
1493.0,-0.001
1492.0,-0.0011
1491.0,-0.0014
1490.0,-0.0017
1489.0,-0.0018
1488.0,-0.0018
1487.0,-0.0018
1486.0,-0.0018
1485.0,-0.0017
1484.0,-0.0017
1483.0,-0.0017
1482.0,-0.0016
1481.0,-0.0016
1480.0,-0.0015
1479.0,-0.0014
1478.0,-0.0014
1477.0,-0.0014
1476.0,-0.0015
1475.0,-0.0015
1474.0,-0.0015
1473.0,-0.0015
1472.0,-0.0014
1471.0,-0.0014
1470.0,-0.0014
1469.0,-0.0013
1468.0,-0.0012
1467.0,-0.0011
1466.0,-0.0008
1465.0,-0.0004
1464.0,-0.0001
1463.0,0.0002
1462.0,0.0004
1461.0,0.0007
1460.0,0.0009
1459.0,0.0012
1458.0,0.0017
1457.0,0.0025
1456.0,0.003
1455.0,0.0032
1454.0,0.0034
1453.0,0.0035
1452.0,0.0036
1451.0,0.0037
1450.0,0.0037
1449.0,0.0038
1448.0,0.0038
1447.0,0.0039
1446.0,0.0039
1445.0,0.004
1444.0,0.004
1443.0,0.004
1442.0,0.004
1441.0,0.004
1440.0,0.004
1439.0,0.004
1438.0,0.0038
1437.0,0.0035
1436.0,0.0031
1435.0,0.0026
1434.0,0.0022
1433.0,0.0018
1432.0,0.0014
1431.0,0.0009
1430.0,0.0003
1429.0,-0.0003
1428.0,-0.0007
1427.0,-0.0011
1426.0,-0.0014
1425.0,-0.0017
1424.0,-0.0019
1423.0,-0.0021
1422.0,-0.0022
1421.0,-0.0022
1420.0,-0.0021
1419.0,-0.0018
1418.0,-0.0013
1417.0,-0.0004
1416.0,0.0008
1415.0,0.0023
1414.0,0.0044
1413.0,0.0069
1412.0,0.0096
1411.0,0.0122
1410.0,0.0141
1409.0,0.0152
1408.0,0.0155
1407.0,0.015
1406.0,0.0138
1405.0,0.0124
1404.0,0.011
1403.0,0.0098
1402.0,0.0087
1401.0,0.0077
1400.0,0.0067
1399.0,0.0057
1398.0,0.005
1397.0,0.0044
1396.0,0.0038
1395.0,0.0032
1394.0,0.0027
1393.0,0.0022
1392.0,0.0018
1391.0,0.0014
1390.0,0.001
1389.0,0.0006
1388.0,0.0002
1387.0,-0.0002
1386.0,-0.0005
1385.0,-0.0008
1384.0,-0.0009
1383.0,-0.001
1382.0,-0.0011
1381.0,-0.0011
1380.0,-0.0011
1379.0,-0.001
1378.0,-0.0008
1377.0,-0.0005
1376.0,-0.0002
1375.0,0.0003
1374.0,0.0009
1373.0,0.0015
1372.0,0.0019
1371.0,0.0022
1370.0,0.0024
1369.0,0.0025
1368.0,0.0024
1367.0,0.002
1366.0,0.0016
1365.0,0.0009
1364.0,0.0001
1363.0,-0.0007
1362.0,-0.0016
1361.0,-0.0022
1360.0,-0.0027
1359.0,-0.0031
1358.0,-0.0034
1357.0,-0.0036
1356.0,-0.0038
1355.0,-0.004
1354.0,-0.0042
1353.0,-0.0043
1352.0,-0.0043
1351.0,-0.0042
1350.0,-0.0041
1349.0,-0.0039
1348.0,-0.0035
1347.0,-0.0031
1346.0,-0.0026
1345.0,-0.0021
1344.0,-0.0016
1343.0,-0.0011
1342.0,-0.0007
1341.0,-0.0004
1340.0,-0.0002
1339.0,-0.0002
1338.0,-0.0005
1337.0,-0.0011
1336.0,-0.0017
1335.0,-0.0026
1334.0,-0.0034
1333.0,-0.0042
1332.0,-0.0048
1331.0,-0.0054
1330.0,-0.0058
1329.0,-0.0061
1328.0,-0.0063
1327.0,-0.0064
1326.0,-0.0063
1325.0,-0.0062
1324.0,-0.006
1323.0,-0.0058
1322.0,-0.0055
1321.0,-0.0052
1320.0,-0.0049
1319.0,-0.0045
1318.0,-0.0041
1317.0,-0.0037
1316.0,-0.0033
1315.0,-0.0029
1314.0,-0.0025
1313.0,-0.002
1312.0,-0.0014
1311.0,-0.0009
1310.0,-0.0002
1309.0,0.0005
1308.0,0.0012
1307.0,0.0018
1306.0,0.0025
1305.0,0.0032
1304.0,0.004
1303.0,0.0049
1302.0,0.006
1301.0,0.0072
1300.0,0.0086
1299.0,0.0101
1298.0,0.0119
1297.0,0.0137
1296.0,0.0155
1295.0,0.0174
1294.0,0.0191
1293.0,0.0209
1292.0,0.0227
1291.0,0.0243
1290.0,0.0258
1289.0,0.0272
1288.0,0.0286
1287.0,0.0299
1286.0,0.031
1285.0,0.0321
1284.0,0.033
1283.0,0.0338
1282.0,0.0345
1281.0,0.0351
1280.0,0.0357
1279.0,0.0362
1278.0,0.0367
1277.0,0.0373
1276.0,0.038
1275.0,0.0389
1274.0,0.04
1273.0,0.0414
1272.0,0.0431
1271.0,0.0451
1270.0,0.0472
1269.0,0.0495
1268.0,0.0518
1267.0,0.0541
1266.0,0.0562
1265.0,0.0581
1264.0,0.0599
1263.0,0.0615
1262.0,0.0628
1261.0,0.0639
1260.0,0.0648
1259.0,0.0654
1258.0,0.0658
1257.0,0.0661
1256.0,0.0665
1255.0,0.067
1254.0,0.0675
1253.0,0.0682
1252.0,0.0691
1251.0,0.0701
1250.0,0.0712
1249.0,0.0724
1248.0,0.0737
1247.0,0.0749
1246.0,0.0761
1245.0,0.0772
1244.0,0.0782
1243.0,0.0792
1242.0,0.0799
1241.0,0.0805
1240.0,0.0809
1239.0,0.0809
1238.0,0.0805
1237.0,0.0797
1236.0,0.0786
1235.0,0.0772
1234.0,0.0756
1233.0,0.0738
1232.0,0.072
1231.0,0.0701
1230.0,0.068
1229.0,0.0661
1228.0,0.0642
1227.0,0.0623
1226.0,0.0604
1225.0,0.0585
1224.0,0.0567
1223.0,0.055
1222.0,0.0533
1221.0,0.0517
1220.0,0.0502
1219.0,0.0488
1218.0,0.0474
1217.0,0.0461
1216.0,0.045
1215.0,0.0438
1214.0,0.0427
1213.0,0.0416
1212.0,0.0405
1211.0,0.0396
1210.0,0.0387
1209.0,0.0378
1208.0,0.0369
1207.0,0.0361
1206.0,0.0352
1205.0,0.0344
1204.0,0.0337
1203.0,0.033
1202.0,0.0322
1201.0,0.0315
1200.0,0.0308
1199.0,0.0302
1198.0,0.0295
1197.0,0.0287
1196.0,0.028
1195.0,0.0273
1194.0,0.0266
1193.0,0.026
1192.0,0.0254
1191.0,0.0247
1190.0,0.024
1189.0,0.0234
1188.0,0.0228
1187.0,0.0223
1186.0,0.0218
1185.0,0.0214
1184.0,0.0211
1183.0,0.0208
1182.0,0.0207
1181.0,0.0206
1180.0,0.0206
1179.0,0.0206
1178.0,0.0206
1177.0,0.0206
1176.0,0.0206
1175.0,0.0206
1174.0,0.0205
1173.0,0.0202
1172.0,0.0199
1171.0,0.0193
1170.0,0.0187
1169.0,0.0178
1168.0,0.017
1167.0,0.0161
1166.0,0.0152
1165.0,0.0144
1164.0,0.0136
1163.0,0.0129
1162.0,0.0121
1161.0,0.0115
1160.0,0.0109
1159.0,0.0105
1158.0,0.0101
1157.0,0.0098
1156.0,0.0096
1155.0,0.0094
1154.0,0.0093
1153.0,0.0093
1152.0,0.0093
1151.0,0.0095
1150.0,0.0098
1149.0,0.0103
1148.0,0.0109
1147.0,0.0117
1146.0,0.0125
1145.0,0.0133
1144.0,0.0143
1143.0,0.0153
1142.0,0.0163
1141.0,0.0173
1140.0,0.0183
1139.0,0.0193
1138.0,0.0202
1137.0,0.0211
1136.0,0.0219
1135.0,0.0227
1134.0,0.0235
1133.0,0.0243
1132.0,0.0251
1131.0,0.026
1130.0,0.027
1129.0,0.0282
1128.0,0.0296
1127.0,0.0311
1126.0,0.0327
1125.0,0.0345
1124.0,0.0364
1123.0,0.0382
1122.0,0.0401
1121.0,0.0419
1120.0,0.0434
1119.0,0.0446
1118.0,0.0454
1117.0,0.0458
1116.0,0.0459
1115.0,0.0456
1114.0,0.045
1113.0,0.0444
1112.0,0.0439
1111.0,0.0439
1110.0,0.0443
1109.0,0.0454
1108.0,0.0472
1107.0,0.0493
1106.0,0.0518
1105.0,0.0545
1104.0,0.0575
1103.0,0.0605
1102.0,0.0635
1101.0,0.0665
1100.0,0.0693
1099.0,0.0718
1098.0,0.074
1097.0,0.076
1096.0,0.0778
1095.0,0.0793
1094.0,0.0804
1093.0,0.0813
1092.0,0.0818
1091.0,0.0821
1090.0,0.0821
1089.0,0.082
1088.0,0.0817
1087.0,0.0813
1086.0,0.0807
1085.0,0.0799
1084.0,0.079
1083.0,0.078
1082.0,0.0768
1081.0,0.0754
1080.0,0.0739
1079.0,0.0722
1078.0,0.0703
1077.0,0.0685
1076.0,0.0667
1075.0,0.065
1074.0,0.0632
1073.0,0.0616
1072.0,0.06
1071.0,0.0584
1070.0,0.0569
1069.0,0.0556
1068.0,0.0543
1067.0,0.0531
1066.0,0.0519
1065.0,0.0508
1064.0,0.0498
1063.0,0.0489
1062.0,0.048
1061.0,0.0472
1060.0,0.0465
1059.0,0.0458
1058.0,0.0451
1057.0,0.0447
1056.0,0.0443
1055.0,0.0441
1054.0,0.0441
1053.0,0.0442
1052.0,0.0445
1051.0,0.0449
1050.0,0.0453
1049.0,0.0457
1048.0,0.0462
1047.0,0.0467
1046.0,0.0473
1045.0,0.0478
1044.0,0.0483
1043.0,0.0487
1042.0,0.049
1041.0,0.0491
1040.0,0.0491
1039.0,0.0489
1038.0,0.0488
1037.0,0.0487
1036.0,0.0486
1035.0,0.0484
1034.0,0.0481
1033.0,0.0477
1032.0,0.0474
1031.0,0.0471
1030.0,0.0467
1029.0,0.0463
1028.0,0.046
1027.0,0.0456
1026.0,0.0453
1025.0,0.0453
1024.0,0.0459
1023.0,0.0472
1022.0,0.0496
1021.0,0.0531
1020.0,0.0574
1019.0,0.0621
1018.0,0.0664
1017.0,0.0697
1016.0,0.0714
1015.0,0.0713
1014.0,0.0697
1013.0,0.0672
1012.0,0.0644
1011.0,0.0617
1010.0,0.0593
1009.0,0.0573
1008.0,0.0556
1007.0,0.0543
1006.0,0.0531
1005.0,0.0521
1004.0,0.0513
1003.0,0.0505
1002.0,0.0498
1001.0,0.0491
1000.0,0.0485
999.0,0.0479
998.0,0.0474
997.0,0.0469
996.0,0.0465
995.0,0.0461
994.0,0.0458
993.0,0.0455
992.0,0.0452
991.0,0.0449
990.0,0.0447
989.0,0.0444
988.0,0.0443
987.0,0.0441
986.0,0.0438
985.0,0.0436
984.0,0.0434
983.0,0.0434
982.0,0.0433
981.0,0.0433
980.0,0.0434
979.0,0.0433
978.0,0.0433
977.0,0.0432
976.0,0.0432
975.0,0.0431
974.0,0.0431
973.0,0.0431
972.0,0.0431
971.0,0.043
970.0,0.0428
969.0,0.0427
968.0,0.0425
967.0,0.0423
966.0,0.042
965.0,0.0417
964.0,0.0415
963.0,0.0412
962.0,0.041
961.0,0.0408
960.0,0.0406
959.0,0.0404
958.0,0.0401
957.0,0.0398
956.0,0.0395
955.0,0.0392
954.0,0.0389
953.0,0.0386
952.0,0.0384
951.0,0.0382
950.0,0.0381
949.0,0.038
948.0,0.0378
947.0,0.0377
946.0,0.0375
945.0,0.0373
944.0,0.0372
943.0,0.0371
942.0,0.0369
941.0,0.0368
940.0,0.0366
939.0,0.0365
938.0,0.0364
937.0,0.0362
936.0,0.036
935.0,0.0358
934.0,0.0357
933.0,0.0355
932.0,0.0353
931.0,0.0352
930.0,0.035
929.0,0.0349
928.0,0.0347
927.0,0.0345
926.0,0.0343
925.0,0.034
924.0,0.0339
923.0,0.0338
922.0,0.0336
921.0,0.0334
920.0,0.0332
919.0,0.0329
918.0,0.0327
917.0,0.0326
916.0,0.0325
915.0,0.0324
914.0,0.0323
913.0,0.0321
912.0,0.0321
911.0,0.0322
910.0,0.0324
909.0,0.0327
908.0,0.033
907.0,0.0333
906.0,0.0337
905.0,0.0341
904.0,0.0345
903.0,0.0351
902.0,0.0356
901.0,0.0361
900.0,0.0366
899.0,0.0369
898.0,0.0372
897.0,0.0375
896.0,0.0377
895.0,0.0377
894.0,0.0377
893.0,0.0376
892.0,0.0376
891.0,0.0375
890.0,0.0374
889.0,0.0374
888.0,0.0376
887.0,0.0377
886.0,0.0379
885.0,0.0381
884.0,0.0384
883.0,0.039
882.0,0.0398
881.0,0.0407
880.0,0.0419
879.0,0.0434
878.0,0.045
877.0,0.0467
876.0,0.0483
875.0,0.0498
874.0,0.0509
873.0,0.0518
872.0,0.0523
871.0,0.0523
870.0,0.0519
869.0,0.0511
868.0,0.0502
867.0,0.049
866.0,0.0477
865.0,0.0464
864.0,0.0452
863.0,0.044
862.0,0.0431
861.0,0.0423
860.0,0.0418
859.0,0.0413
858.0,0.0409
857.0,0.0405
856.0,0.0401
855.0,0.0398
854.0,0.0394
853.0,0.0392
852.0,0.0391
851.0,0.0391
850.0,0.0391
849.0,0.0392
848.0,0.0392
847.0,0.0392
846.0,0.0391
845.0,0.0389
844.0,0.0387
843.0,0.0385
842.0,0.0383
841.0,0.0382
840.0,0.0382
839.0,0.0381
838.0,0.0379
837.0,0.0375
836.0,0.0371
835.0,0.0367
834.0,0.0363
833.0,0.036
832.0,0.0357
831.0,0.0353
830.0,0.035
829.0,0.0347
828.0,0.0346
827.0,0.0344
826.0,0.0341
825.0,0.0338
824.0,0.0335
823.0,0.033
822.0,0.0326
821.0,0.0323
820.0,0.0321
819.0,0.0319
818.0,0.0317
817.0,0.0316
816.0,0.0314
815.0,0.0313
814.0,0.0311
813.0,0.0309
812.0,0.0307
811.0,0.0305
810.0,0.0303
809.0,0.0301
808.0,0.03
807.0,0.0298
806.0,0.0295
805.0,0.0291
804.0,0.0288
803.0,0.0284
802.0,0.0281
801.0,0.0277
800.0,0.0274
799.0,0.0272
798.0,0.0273
797.0,0.0279
796.0,0.0288
795.0,0.0299
794.0,0.0307
793.0,0.0312
792.0,0.0314
791.0,0.0312
790.0,0.0307
789.0,0.0299
788.0,0.0291
787.0,0.0281
786.0,0.0272
785.0,0.0263
784.0,0.0254
783.0,0.0247
782.0,0.0241
781.0,0.0236
780.0,0.023
779.0,0.0223
778.0,0.0215
777.0,0.0209
776.0,0.0203
775.0,0.0198
774.0,0.0192
773.0,0.0185
772.0,0.0178
771.0,0.0172
770.0,0.0168
769.0,0.0164
768.0,0.0161
767.0,0.0157
766.0,0.0153
765.0,0.0147
764.0,0.0142
763.0,0.0136
762.0,0.0128
761.0,0.012
760.0,0.0113
759.0,0.0106
758.0,0.0101
757.0,0.0095
756.0,0.0088
755.0,0.0081
754.0,0.0074
753.0,0.0067
752.0,0.0062
751.0,0.0055
750.0,0.0048
749.0,0.0039
748.0,0.0031
747.0,0.0024
746.0,0.0017
745.0,0.0012
744.0,0.0011
743.0,0.0015
742.0,0.0025
741.0,0.0046
740.0,0.0079
739.0,0.0126
738.0,0.0183
737.0,0.0247
736.0,0.0314
735.0,0.0382
734.0,0.0451
733.0,0.0523
732.0,0.0599
731.0,0.068
730.0,0.0764
729.0,0.0851
728.0,0.0939
727.0,0.1019
726.0,0.1084
725.0,0.1126
724.0,0.114
723.0,0.1121
722.0,0.1073
721.0,0.1004
720.0,0.0928
719.0,0.0856
718.0,0.0793
717.0,0.0739
716.0,0.069
715.0,0.0647
714.0,0.0612
713.0,0.0586
712.0,0.0567
711.0,0.0554
710.0,0.0543
709.0,0.0533
708.0,0.0521
707.0,0.0508
706.0,0.0496
705.0,0.0487
704.0,0.0481
703.0,0.0473
702.0,0.0462
701.0,0.045
700.0,0.044
699.0,0.0433
698.0,0.0425
697.0,0.0417
696.0,0.0409
695.0,0.0403
694.0,0.0398
693.0,0.0395
692.0,0.0393
691.0,0.0391
690.0,0.0389
689.0,0.0388
688.0,0.0387
687.0,0.0386
686.0,0.0386
685.0,0.0392
684.0,0.04
683.0,0.0405
682.0,0.0403
681.0,0.0399
680.0,0.0402
679.0,0.0411
678.0,0.0421
677.0,0.0425
676.0,0.0423
675.0,0.0417
674.0,0.0415
673.0,0.042
672.0,0.043
671.0,0.0441
670.0,0.0453
669.0,0.0468
668.0,0.0478
667.0,0.0473
666.0,0.0464
665.0,0.046
664.0,0.0462
663.0,0.0468
662.0,0.0474
661.0,0.0478
660.0,0.0485
659.0,0.0496
658.0,0.0507
657.0,0.0519
656.0,0.0531
655.0,0.0543
654.0,0.0555
653.0,0.0566
652.0,0.0577
651.0,0.0585
650.0,0.0589
649.0,0.0593
648.0,0.0599
647.0,0.0607
646.0,0.0616
645.0,0.0627
644.0,0.0642
643.0,0.0657
642.0,0.0669
641.0,0.0679
640.0,0.0689
639.0,0.0699
638.0,0.0712
637.0,0.0733
636.0,0.0762
635.0,0.0789
634.0,0.0802
633.0,0.0804
632.0,0.0804
631.0,0.0804
630.0,0.0803
629.0,0.0806
628.0,0.0812
627.0,0.0816
626.0,0.0812
625.0,0.0804
624.0,0.0801
623.0,0.0805
622.0,0.081
621.0,0.0816
620.0,0.0821
619.0,0.0826
618.0,0.0832
617.0,0.084
616.0,0.0848
615.0,0.0853
614.0,0.0849
613.0,0.0841
612.0,0.0832
611.0,0.0822
610.0,0.0816
609.0,0.082
608.0,0.0829
607.0,0.0832
606.0,0.0823
605.0,0.0809
604.0,0.0801
603.0,0.0799
602.0,0.0796
601.0,0.0791
600.0,0.0783
