cm-1,A
4000.0,0.02696455931306696
3999.0,0.02691835039863255
3998.0,0.026872146400301444
3997.0,0.026687379547098322
3996.0,0.026502691267936695
3995.0,0.02636422658259252
3994.0,0.026318081496016443
3993.0,0.026410376572743033
3992.0,0.02654885597506529
3991.0,0.026687379547098322
3990.0,0.026733563891471412
3989.0,0.026687379547098322
3988.0,0.02664120011360227
3987.0,0.026595025589939425
3986.0,0.02654885597506529
3985.0,0.026502691267936695
3984.0,0.026502691267936695
3983.0,0.026502691267936695
3982.0,0.02654885597506529
3981.0,0.026595025589939425
3980.0,0.026687379547098322
3979.0,0.026733563891471412
3978.0,0.02664120011360227
3977.0,0.026456531467510258
3976.0,0.026318081496016443
3975.0,0.026318081496016443
3974.0,0.026410376572743033
3973.0,0.026595025589939425
3972.0,0.02682594731702781
3971.0,0.02696455931306696
3970.0,0.027056991894431892
3969.0,0.02710321556345563
3968.0,0.02710321556345563
3967.0,0.027010773144651168
3966.0,0.02691835039863255
3965.0,0.02682594731702781
3964.0,0.026872146400301444
3963.0,0.027010773144651168
3962.0,0.027149444152769986
3961.0,0.02724191609646076
3960.0,0.02724191609646076
3959.0,0.02724191609646076
3958.0,0.02724191609646076
3957.0,0.027334407733889066
3956.0,0.02738066094037661
3955.0,0.02738066094037661
3954.0,0.027288159452933503
3953.0,0.02710321556345563
3952.0,0.02691835039863255
3951.0,0.02682594731702781
3950.0,0.02682594731702781
3949.0,0.026872146400301444
3948.0,0.02696455931306696
3947.0,0.027056991894431892
3946.0,0.027195677663422346
3945.0,0.027288159452933503
3944.0,0.027288159452933503
3943.0,0.02724191609646076
3942.0,0.027195677663422346
3941.0,0.02724191609646076
3940.0,0.027334407733889066
3939.0,0.02738066094037661
3938.0,0.027334407733889066
3937.0,0.027288159452933503
3936.0,0.027288159452933503
3935.0,0.027426919073445077
3934.0,0.027565723042634938
3933.0,0.027565723042634938
3932.0,0.02747318213414429
3931.0,0.02738066094037661
3930.0,0.027334407733889066
3929.0,0.027288159452933503
3928.0,0.02724191609646076
3927.0,0.027149444152769986
3926.0,0.02710321556345563
3925.0,0.027010773144651168
3924.0,0.027056991894431892
3923.0,0.02724191609646076
3922.0,0.027426919073445077
3921.0,0.02751945012352408
3920.0,0.02747318213414429
3919.0,0.02747318213414429
3918.0,0.02751945012352408
3917.0,0.02751945012352408
3916.0,0.02738066094037661
3915.0,0.02724191609646076
3914.0,0.027149444152769986
3913.0,0.02710321556345563
3912.0,0.027056991894431892
3911.0,0.027056991894431892
3910.0,0.027195677663422346
3909.0,0.027334407733889066
3908.0,0.027565723042634938
3907.0,0.027889771597169544
3906.0,0.028214062120885508
3905.0,0.02839947976994095
3904.0,0.02839947976994095
3903.0,0.02826040911222183
3902.0,0.028167720075074953
3901.0,0.028167720075074953
3900.0,0.028214062120885508
3899.0,0.02826040911222183
3898.0,0.02826040911222183
3897.0,0.028167720075074953
3896.0,0.028028723600243666
3895.0,0.027889771597169544
3894.0,0.027936083991977778
3893.0,0.02798240132598462
3892.0,0.02798240132598462
3891.0,0.0277045713888604
3890.0,0.02738066094037661
3889.0,0.027334407733889066
3888.0,0.027612000892527133
3887.0,0.027889771597169544
3886.0,0.027843464140506313
3885.0,0.027658283674251827
3884.0,0.027750864037404455
3883.0,0.028028723600243666
3882.0,0.02826040911222183
3881.0,0.028214062120885508
3880.0,0.02812138297373412
3879.0,0.028075050815808744
3878.0,0.028167720075074953
3877.0,0.028214062120885508
3876.0,0.028167720075074953
3875.0,0.027889771597169544
3874.0,0.027658283674251827
3873.0,0.027750864037404455
3872.0,0.028075050815808744
3871.0,0.028167720075074953
3870.0,0.027797161620935595
3869.0,0.02751945012352408
3868.0,0.027750864037404455
3867.0,0.028306761050139073
3866.0,0.02858497661500481
3865.0,0.02839947976994095
3864.0,0.028214062120885508
3863.0,0.02839947976994095
3862.0,0.02858497661500481
3861.0,0.02849221828874393
3860.0,0.028167720075074953
3859.0,0.027889771597169544
3858.0,0.027750864037404455
3857.0,0.027889771597169544
3856.0,0.028353117935693284
3855.0,0.02858497661500481
3854.0,0.028214062120885508
3853.0,0.027936083991977778
3852.0,0.028167720075074953
3851.0,0.028445846553939003
3850.0,0.02858497661500481
3849.0,0.02849221828874393
3848.0,0.02839947976994095
3847.0,0.028353117935693284
3846.0,0.028353117935693284
3845.0,0.028353117935693284
3844.0,0.028353117935693284
3843.0,0.028306761050139073
3842.0,0.028353117935693284
3841.0,0.028445846553939003
3840.0,0.028445846553939003
3839.0,0.02839947976994095
3838.0,0.02849221828874393
3837.0,0.028770552723758724
3836.0,0.02904906565457588
3835.0,0.029095501846216454
3834.0,0.02904906565457588
3833.0,0.028863370523193765
3832.0,0.02858497661500481
3831.0,0.028353117935693284
3830.0,0.02826040911222183
3829.0,0.02839947976994095
3828.0,0.028538594975413334
3827.0,0.028445846553939003
3826.0,0.028214062120885508
3825.0,0.028214062120885508
3824.0,0.028538594975413334
3823.0,0.02904906565457588
3822.0,0.029141943003497595
3821.0,0.028863370523193765
3820.0,0.028770552723758724
3819.0,0.028956208163971375
3818.0,0.029234840219232394
3817.0,0.029234840219232394
3816.0,0.028770552723758724
3815.0,0.028445846553939003
3814.0,0.02858497661500481
3813.0,0.028770552723758724
3812.0,0.028770552723758724
3811.0,0.02858497661500481
3810.0,0.02849221828874393
3809.0,0.02863136320857662
3808.0,0.028677754757187035
3807.0,0.02849221828874393
3806.0,0.028306761050139073
3805.0,0.028445846553939003
3804.0,0.028956208163971375
3803.0,0.029281296279810798
3802.0,0.029095501846216454
3801.0,0.028863370523193765
3800.0,0.028956208163971375
3799.0,0.029281296279810798
3798.0,0.029467170231675777
3797.0,0.02942069428514915
3796.0,0.029234840219232394
3795.0,0.029141943003497595
3794.0,0.029188389127482228
3793.0,0.029188389127482228
3792.0,0.029141943003497595
3791.0,0.02904906565457588
3790.0,0.02904906565457588
3789.0,0.029095501846216454
3788.0,0.029188389127482228
3787.0,0.02932775731028059
3786.0,0.02942069428514915
3785.0,0.029374223311705583
3784.0,0.029234840219232394
3783.0,0.029141943003497595
3782.0,0.029188389127482228
3781.0,0.02932775731028059
3780.0,0.029374223311705583
3779.0,0.029374223311705583
3778.0,0.029467170231675777
3777.0,0.029513651152349718
3776.0,0.029467170231675777
3775.0,0.02932775731028059
3774.0,0.029141943003497595
3773.0,0.029234840219232394
3772.0,0.029513651152349718
3771.0,0.029792641193145286
3770.0,0.029885677714903025
3769.0,0.029932203450862893
3768.0,0.030071810571884017
3767.0,0.030164906924202484
3766.0,0.030164906924202484
3765.0,0.029978734171634214
3764.0,0.029792641193145286
3763.0,0.02969962459782227
3762.0,0.02969962459782227
3761.0,0.029653123769906697
3760.0,0.02969962459782227
3759.0,0.029978734171634214
3758.0,0.03025802323714588
3757.0,0.030164906924202484
3756.0,0.029792641193145286
3755.0,0.029467170231675777
3754.0,0.029281296279810798
3753.0,0.02904906565457588
3752.0,0.02890978686288448
3751.0,0.029095501846216454
3750.0,0.029560137048236124
3749.0,0.029839156962686353
3748.0,0.029932203450862893
3747.0,0.03030458888152676
3746.0,0.0307239045110681
3745.0,0.030490901403433135
3744.0,0.029932203450862893
3743.0,0.029746130405213123
3742.0,0.029932203450862893
3741.0,0.030118356253500123
3740.0,0.030071810571884017
3739.0,0.030118356253500123
3738.0,0.03030458888152676
3737.0,0.030537492025363155
3736.0,0.030537492025363155
3735.0,0.03058408764601861
3734.0,0.03081714076773867
3733.0,0.030863766403287585
3732.0,0.03063068826647264
3731.0,0.03030458888152676
3730.0,0.030118356253500123
3729.0,0.030164906924202484
3728.0,0.030211462585061133
3727.0,0.030164906924202484
3726.0,0.030118356253500123
3725.0,0.03030458888152676
3724.0,0.030537492025363155
3723.0,0.03067729388779794
3722.0,0.03063068826647264
3721.0,0.030490901403433135
3720.0,0.030351159519274695
3719.0,0.030071810571884017
3718.0,0.029792641193145286
3717.0,0.029560137048236124
3716.0,0.029513651152349718
3715.0,0.02969962459782227
3714.0,0.029978734171634214
3713.0,0.030071810571884017
3712.0,0.030164906924202484
3711.0,0.03058408764601861
3710.0,0.03105031901865729
3709.0,0.031190286087141805
3708.0,0.030863766403287585
3707.0,0.03030458888152676
3706.0,0.029885677714903025
3705.0,0.02969962459782227
3704.0,0.029746130405213123
3703.0,0.029839156962686353
3702.0,0.029885677714903025
3701.0,0.029885677714903025
3700.0,0.029932203450862893
3699.0,0.029978734171634214
3698.0,0.030071810571884017
3697.0,0.029978734171634214
3696.0,0.029792641193145286
3695.0,0.02969962459782227
3694.0,0.029792641193145286
3693.0,0.029978734171634214
3692.0,0.030211462585061133
3691.0,0.030537492025363155
3690.0,0.03081714076773867
3689.0,0.030957032694186815
3688.0,0.03081714076773867
3687.0,0.03058408764601861
3686.0,0.030444315779156517
3685.0,0.03030458888152676
3684.0,0.030118356253500123
3683.0,0.029932203450862893
3682.0,0.029792641193145286
3681.0,0.029653123769906697
3680.0,0.029467170231675777
3679.0,0.029513651152349718
3678.0,0.03002526987828502
3677.0,0.0307239045110681
3676.0,0.031003673351687855
3675.0,0.030910397045078586
3674.0,0.03063068826647264
3673.0,0.030490901403433135
3672.0,0.030537492025363155
3671.0,0.030397735151460825
3670.0,0.030211462585061133
3669.0,0.030351159519274695
3668.0,0.03058408764601861
3667.0,0.030537492025363155
3666.0,0.03025802323714588
3665.0,0.029978734171634214
3664.0,0.029792641193145286
3663.0,0.02969962459782227
3662.0,0.02960662792039992
3661.0,0.029513651152349718
3660.0,0.029467170231675777
3659.0,0.029560137048236124
3658.0,0.029839156962686353
3657.0,0.029978734171634214
3656.0,0.029978734171634214
3655.0,0.029978734171634214
3654.0,0.030071810571884017
3653.0,0.03030458888152676
3652.0,0.030397735151460825
3651.0,0.03025802323714588
3650.0,0.030118356253500123
3649.0,0.030444315779156517
3648.0,0.030910397045078586
3647.0,0.030957032694186815
3646.0,0.030770520137356927
3645.0,0.03063068826647264
3644.0,0.03063068826647264
3643.0,0.03063068826647264
3642.0,0.03063068826647264
3641.0,0.03063068826647264
3640.0,0.0307239045110681
3639.0,0.030770520137356927
3638.0,0.030770520137356927
3637.0,0.030770520137356927
3636.0,0.03081714076773867
3635.0,0.030770520137356927
3634.0,0.03063068826647264
3633.0,0.030537492025363155
3632.0,0.03067729388779794
3631.0,0.030957032694186815
3630.0,0.030863766403287585
3629.0,0.03058408764601861
3628.0,0.0307239045110681
3627.0,0.031143625385307683
3626.0,0.03142366482450232
3625.0,0.03147035562516054
3624.0,0.03133029827960798
3623.0,0.03128362253321426
3622.0,0.03133029827960798
3621.0,0.03137697904301118
3620.0,0.031236951802751545
3619.0,0.031096969696171817
3618.0,0.031096969696171817
3617.0,0.03133029827960798
3616.0,0.031563752288295444
3615.0,0.03170388495374454
3614.0,0.031657169041054534
3613.0,0.031563752288295444
3612.0,0.03161045815293173
3611.0,0.03175060589208267
3610.0,0.03184406285002961
3609.0,0.03184406285002961
3608.0,0.03184406285002961
3607.0,0.03193753992355086
3606.0,0.032031037121307726
3605.0,0.032031037121307726
3604.0,0.03193753992355086
3603.0,0.03193753992355086
3602.0,0.03217132066984485
3601.0,0.03249882527715853
3600.0,0.03277974021703267
3599.0,0.032873418923587305
3598.0,0.03277974021703267
3597.0,0.032592443402527316
3596.0,0.03249882527715853
3595.0,0.03249882527715853
3594.0,0.03249882527715853
3593.0,0.03240522732811035
3592.0,0.032124554451966825
3591.0,0.03189079887180224
3590.0,0.031657169041054534
3589.0,0.03147035562516054
3588.0,0.03137697904301118
3587.0,0.031657169041054534
3586.0,0.031984286006358165
3585.0,0.032124554451966825
3584.0,0.03207779326948268
3583.0,0.031984286006358165
3582.0,0.031984286006358165
3581.0,0.032124554451966825
3580.0,0.03226486821611996
3579.0,0.032311649546687526
3578.0,0.03226486821611996
3577.0,0.032124554451966825
3576.0,0.032031037121307726
3575.0,0.03193753992355086
3574.0,0.03189079887180224
3573.0,0.03189079887180224
3572.0,0.03193753992355086
3571.0,0.031984286006358165
3570.0,0.03217132066984485
3569.0,0.03226486821611996
3568.0,0.032124554451966825
3567.0,0.03184406285002961
3566.0,0.03179733185715028
3565.0,0.031984286006358165
3564.0,0.03226486821611996
3563.0,0.03245202378113787
3562.0,0.032545631817259224
3561.0,0.032545631817259224
3560.0,0.03249882527715853
3559.0,0.03240522732811035
3558.0,0.03235843591698884
3557.0,0.032311649546687526
3556.0,0.032311649546687526
3555.0,0.03235843591698884
3554.0,0.03245202378113787
3553.0,0.032545631817259224
3552.0,0.03263926003405038
3551.0,0.03277974021703267
3550.0,0.03282657704446046
3549.0,0.032873418923587305
3548.0,0.032920265855503006
3547.0,0.03301397488206215
3546.0,0.0332483359486222
3545.0,0.033482823553208085
3544.0,0.03352973627071565
3543.0,0.03338901331806565
3542.0,0.033154576345083564
3541.0,0.032920265855503006
3540.0,0.03273290844021437
3539.0,0.03263926003405038
3538.0,0.032592443402527316
3537.0,0.03249882527715853
3536.0,0.03235843591698884
3535.0,0.032311649546687526
3534.0,0.032311649546687526
3533.0,0.03245202378113787
3532.0,0.03263926003405038
3531.0,0.032873418923587305
3530.0,0.03301397488206215
3529.0,0.03310770413286357
3528.0,0.033060836978886954
3527.0,0.032920265855503006
3526.0,0.03273290844021437
3525.0,0.03249882527715853
3524.0,0.03235843591698884
3523.0,0.03226486821611996
3522.0,0.03235843591698884
3521.0,0.032545631817259224
3520.0,0.03273290844021437
3519.0,0.032920265855503006
3518.0,0.033060836978886954
3517.0,0.03310770413286357
3516.0,0.03301397488206215
3515.0,0.032873418923587305
3514.0,0.03277974021703267
3513.0,0.03282657704446046
3512.0,0.03301397488206215
3511.0,0.0332483359486222
3510.0,0.03338901331806565
3509.0,0.03338901331806565
3508.0,0.033295223342125535
3507.0,0.03310770413286357
3506.0,0.0329671178412978
3505.0,0.0329671178412978
3504.0,0.03301397488206215
3503.0,0.03310770413286357
3502.0,0.033201453616638954
3501.0,0.033295223342125535
3500.0,0.03338901331806565
3499.0,0.03338901331806565
3498.0,0.03334211579824231
3497.0,0.033201453616638954
3496.0,0.03310770413286357
3495.0,0.03301397488206215
3494.0,0.033060836978886954
3493.0,0.033154576345083564
3492.0,0.033154576345083564
3491.0,0.033060836978886954
3490.0,0.032920265855503006
3489.0,0.03277974021703267
3488.0,0.032686081712916426
3487.0,0.03273290844021437
3486.0,0.032873418923587305
3485.0,0.0329671178412978
3484.0,0.03301397488206215
3483.0,0.033060836978886954
3482.0,0.033201453616638954
3481.0,0.03338901331806565
3480.0,0.03362357691107709
3479.0,0.03376437590141812
3478.0,0.03376437590141812
3477.0,0.03362357691107709
3476.0,0.03338901331806565
3475.0,0.033060836978886954
3474.0,0.03282657704446046
3473.0,0.03273290844021437
3472.0,0.03282657704446046
3471.0,0.03301397488206215
3470.0,0.033201453616638954
3469.0,0.03338901331806565
3468.0,0.03343591590268957
3467.0,0.03343591590268957
3466.0,0.03338901331806565
3465.0,0.033295223342125535
3464.0,0.033201453616638954
3463.0,0.03310770413286357
3462.0,0.033060836978886954
3461.0,0.03301397488206215
3460.0,0.03301397488206215
3459.0,0.033201453616638954
3458.0,0.03343591590268957
3457.0,0.03376437590141812
3456.0,0.03399914237121604
3455.0,0.03409308450480819
3454.0,0.034046110897937076
3453.0,0.033952178923546183
3452.0,0.03385826726096752
3451.0,0.03385826726096752
3450.0,0.033905220553829274
3449.0,0.03399914237121604
3448.0,0.03399914237121604
3447.0,0.033952178923546183
3446.0,0.033905220553829274
3445.0,0.033952178923546183
3444.0,0.03409308450480819
3443.0,0.03423403581731388
3442.0,0.03423403581731388
3441.0,0.03414006319292828
3440.0,0.033905220553829274
3439.0,0.03367050483612166
3438.0,0.03357665405630694
3437.0,0.03362357691107709
3436.0,0.0338113190438627
3435.0,0.034046110897937076
3434.0,0.03423403581731388
3433.0,0.03437503289075727
3432.0,0.03442204208947208
3431.0,0.03442204208947208
3430.0,0.03432802877989327
3429.0,0.034187046963396917
3428.0,0.034046110897937076
3427.0,0.033952178923546183
3426.0,0.03399914237121604
3425.0,0.03414006319292828
3424.0,0.03423403581731388
3423.0,0.03423403581731388
3422.0,0.03409308450480819
3421.0,0.033905220553829274
3420.0,0.0338113190438627
3419.0,0.03385826726096752
3418.0,0.03409308450480819
3417.0,0.03428102975577918
3416.0,0.03437503289075727
3415.0,0.03437503289075727
3414.0,0.03428102975577918
3413.0,0.03414006319292828
3412.0,0.034046110897937076
3411.0,0.03409308450480819
3410.0,0.034187046963396917
3409.0,0.03428102975577918
3408.0,0.03437503289075727
3407.0,0.03437503289075727
3406.0,0.03432802877989327
3405.0,0.03428102975577918
3404.0,0.03414006319292828
3403.0,0.034046110897937076
3402.0,0.03399914237121604
3401.0,0.03399914237121604
3400.0,0.03409308450480819
3399.0,0.03428102975577918
3398.0,0.034469056377139484
3397.0,0.03465716443937783
3396.0,0.03470420418834386
3395.0,0.03475124903287918
3394.0,0.03475124903287918
3393.0,0.03475124903287918
3392.0,0.03479829897408804
3391.0,0.03479829897408804
3390.0,0.03475124903287918
3389.0,0.03465716443937783
3388.0,0.03465716443937783
3387.0,0.03470420418834386
3386.0,0.03479829897408804
3385.0,0.03479829897408804
3384.0,0.03470420418834386
3383.0,0.03461012978487776
3382.0,0.03456310022373987
3381.0,0.03461012978487776
3380.0,0.03475124903287918
3379.0,0.03489241415094413
3378.0,0.03503362516890207
3377.0,0.03512779136222477
3376.0,0.03503362516890207
3375.0,0.03489241415094413
3374.0,0.03470420418834386
3373.0,0.03456310022373987
3372.0,0.034516075754861264
3371.0,0.03442204208947208
3370.0,0.03437503289075727
3369.0,0.03428102975577918
3368.0,0.03423403581731388
3367.0,0.03423403581731388
3366.0,0.03423403581731388
3365.0,0.03428102975577918
3364.0,0.03437503289075727
3363.0,0.03442204208947208
3362.0,0.034469056377139484
3361.0,0.034516075754861264
3360.0,0.03465716443937783
3359.0,0.03479829897408804
3358.0,0.03484535401307465
3357.0,0.03479829897408804
3356.0,0.03465716443937783
3355.0,0.034516075754861264
3354.0,0.03442204208947208
3353.0,0.03442204208947208
3352.0,0.034469056377139484
3351.0,0.034516075754861264
3350.0,0.03461012978487776
3349.0,0.03470420418834386
3348.0,0.03489241415094413
3347.0,0.03503362516890207
3346.0,0.03508070571335731
3345.0,0.03508070571335731
3344.0,0.03503362516890207
3343.0,0.03498654972775217
3342.0,0.0349394793888016
3341.0,0.03479829897408804
3340.0,0.03465716443937783
3339.0,0.03456310022373987
3338.0,0.03456310022373987
3337.0,0.03465716443937783
3336.0,0.03479829897408804
3335.0,0.03484535401307465
3334.0,0.0349394793888016
3333.0,0.03498654972775217
3332.0,0.03503362516890207
3331.0,0.03498654972775217
3330.0,0.03484535401307465
3329.0,0.03465716443937783
3328.0,0.03456310022373987
3327.0,0.034469056377139484
3326.0,0.034516075754861264
3325.0,0.03456310022373987
3324.0,0.03470420418834386
3323.0,0.03479829897408804
3322.0,0.03475124903287918
3321.0,0.03461012978487776
3320.0,0.034469056377139484
3319.0,0.03442204208947208
3318.0,0.034516075754861264
3317.0,0.03461012978487776
3316.0,0.03470420418834386
3315.0,0.03479829897408804
3314.0,0.03489241415094413
3313.0,0.03498654972775217
3312.0,0.03508070571335731
3311.0,0.03508070571335731
3310.0,0.03508070571335731
3309.0,0.03503362516890207
3308.0,0.03503362516890207
3307.0,0.03498654972775217
3306.0,0.0349394793888016
3305.0,0.03484535401307465
3304.0,0.03470420418834386
3303.0,0.03461012978487776
3302.0,0.03461012978487776
3301.0,0.03465716443937783
3300.0,0.03479829897408804
3299.0,0.03489241415094413
3298.0,0.0349394793888016
3297.0,0.03489241415094413
3296.0,0.03484535401307465
3295.0,0.03475124903287918
3294.0,0.03470420418834386
3293.0,0.03470420418834386
3292.0,0.03470420418834386
3291.0,0.03475124903287918
3290.0,0.03475124903287918
3289.0,0.03470420418834386
3288.0,0.03461012978487776
3287.0,0.034469056377139484
3286.0,0.03437503289075727
3285.0,0.03437503289075727
3284.0,0.034469056377139484
3283.0,0.034516075754861264
3282.0,0.03456310022373987
3281.0,0.034516075754861264
3280.0,0.034469056377139484
3279.0,0.03437503289075727
3278.0,0.03432802877989327
3277.0,0.03432802877989327
3276.0,0.03432802877989327
3275.0,0.03423403581731388
3274.0,0.03414006319292828
3273.0,0.03409308450480819
3272.0,0.03414006319292828
3271.0,0.03437503289075727
3270.0,0.03461012978487776
3269.0,0.03470420418834386
3268.0,0.03465716443937783
3267.0,0.034469056377139484
3266.0,0.03428102975577918
3265.0,0.03428102975577918
3264.0,0.03432802877989327
3263.0,0.034516075754861264
3262.0,0.03461012978487776
3261.0,0.03461012978487776
3260.0,0.03442204208947208
3259.0,0.03423403581731388
3258.0,0.03414006319292828
3257.0,0.034187046963396917
3256.0,0.03423403581731388
3255.0,0.03428102975577918
3254.0,0.03423403581731388
3253.0,0.03423403581731388
3252.0,0.03423403581731388
3251.0,0.03437503289075727
3250.0,0.03456310022373987
3249.0,0.03479829897408804
3248.0,0.03489241415094413
3247.0,0.03484535401307465
3246.0,0.03470420418834386
3245.0,0.03456310022373987
3244.0,0.03437503289075727
3243.0,0.03428102975577918
3242.0,0.034187046963396917
3241.0,0.03409308450480819
3240.0,0.03409308450480819
3239.0,0.03409308450480819
3238.0,0.03414006319292828
3237.0,0.03423403581731388
3236.0,0.03428102975577918
3235.0,0.03428102975577918
3234.0,0.03432802877989327
3233.0,0.03442204208947208
3232.0,0.034516075754861264
3231.0,0.034516075754861264
3230.0,0.03442204208947208
3229.0,0.03432802877989327
3228.0,0.03428102975577918
3227.0,0.03423403581731388
3226.0,0.03428102975577918
3225.0,0.03442204208947208
3224.0,0.03456310022373987
3223.0,0.03465716443937783
3222.0,0.03470420418834386
3221.0,0.03456310022373987
3220.0,0.03437503289075727
3219.0,0.03423403581731388
3218.0,0.03428102975577918
3217.0,0.034516075754861264
3216.0,0.03470420418834386
3215.0,0.03479829897408804
3214.0,0.03479829897408804
3213.0,0.03465716443937783
3212.0,0.03456310022373987
3211.0,0.034469056377139484
3210.0,0.03432802877989327
3209.0,0.03428102975577918
3208.0,0.03428102975577918
3207.0,0.03437503289075727
3206.0,0.034516075754861264
3205.0,0.03465716443937783
3204.0,0.03475124903287918
3203.0,0.03484535401307465
3202.0,0.03489241415094413
3201.0,0.03479829897408804
3200.0,0.03465716443937783
3199.0,0.03461012978487776
3198.0,0.03461012978487776
3197.0,0.03475124903287918
3196.0,0.03475124903287918
3195.0,0.03465716443937783
3194.0,0.03456310022373987
3193.0,0.03456310022373987
3192.0,0.03461012978487776
3191.0,0.03461012978487776
3190.0,0.03461012978487776
3189.0,0.03461012978487776
3188.0,0.03465716443937783
3187.0,0.03475124903287918
3186.0,0.03484535401307465
3185.0,0.03484535401307465
3184.0,0.03470420418834386
3183.0,0.034469056377139484
3182.0,0.03432802877989327
3181.0,0.03423403581731388
3180.0,0.03423403581731388
3179.0,0.03414006319292828
3178.0,0.034046110897937076
3177.0,0.03399914237121604
3176.0,0.03399914237121604
3175.0,0.03409308450480819
3174.0,0.03414006319292828
3173.0,0.03414006319292828
3172.0,0.03409308450480819
3171.0,0.03409308450480819
3170.0,0.03409308450480819
3169.0,0.03414006319292828
3168.0,0.03423403581731388
3167.0,0.03428102975577918
3166.0,0.03423403581731388
3165.0,0.03414006319292828
3164.0,0.03399914237121604
3163.0,0.033905220553829274
3162.0,0.03385826726096752
3161.0,0.0338113190438627
3160.0,0.03371743783253667
3159.0,0.03367050483612166
3158.0,0.03367050483612166
3157.0,0.03367050483612166
3156.0,0.03371743783253667
3155.0,0.03371743783253667
3154.0,0.03371743783253667
3153.0,0.03367050483612166
3152.0,0.03371743783253667
3151.0,0.0338113190438627
3150.0,0.03385826726096752
3149.0,0.03385826726096752
3148.0,0.03376437590141812
3147.0,0.03357665405630694
3146.0,0.03334211579824231
3145.0,0.0332483359486222
3144.0,0.033154576345083564
3143.0,0.03310770413286357
3142.0,0.03310770413286357
3141.0,0.033201453616638954
3140.0,0.03334211579824231
3139.0,0.033482823553208085
3138.0,0.03352973627071565
3137.0,0.033482823553208085
3136.0,0.033482823553208085
3135.0,0.03338901331806565
3134.0,0.033295223342125535
3133.0,0.033154576345083564
3132.0,0.033060836978886954
3131.0,0.0329671178412978
3130.0,0.0329671178412978
3129.0,0.033060836978886954
3128.0,0.03310770413286357
3127.0,0.03310770413286357
3126.0,0.033060836978886954
3125.0,0.03301397488206215
3124.0,0.032873418923587305
3123.0,0.032686081712916426
3122.0,0.03249882527715853
3121.0,0.03245202378113787
3120.0,0.032545631817259224
3119.0,0.03263926003405038
3118.0,0.032686081712916426
3117.0,0.032592443402527316
3116.0,0.03249882527715853
3115.0,0.03245202378113787
3114.0,0.03245202378113787
3113.0,0.03245202378113787
3112.0,0.03235843591698884
3111.0,0.03226486821611996
3110.0,0.03207779326948268
3109.0,0.03189079887180224
3108.0,0.03184406285002961
3107.0,0.03193753992355086
3106.0,0.032031037121307726
3105.0,0.03207779326948268
3104.0,0.032031037121307726
3103.0,0.03193753992355086
3102.0,0.03189079887180224
3101.0,0.03189079887180224
3100.0,0.03189079887180224
3099.0,0.03184406285002961
3098.0,0.03175060589208267
3097.0,0.031657169041054534
3096.0,0.03161045815293173
3095.0,0.031563752288295444
3094.0,0.03147035562516054
3093.0,0.03147035562516054
3092.0,0.03151705144606498
3091.0,0.03151705144606498
3090.0,0.031563752288295444
3089.0,0.031563752288295444
3088.0,0.03151705144606498
3087.0,0.03142366482450232
3086.0,0.03128362253321426
3085.0,0.031096969696171817
3084.0,0.030910397045078586
3083.0,0.030770520137356927
3082.0,0.030770520137356927
3081.0,0.03081714076773867
3080.0,0.030910397045078586
3079.0,0.030863766403287585
3078.0,0.030770520137356927
3077.0,0.03063068826647264
3076.0,0.030490901403433135
3075.0,0.030351159519274695
3074.0,0.030211462585061133
3073.0,0.030164906924202484
3072.0,0.030164906924202484
3071.0,0.030164906924202484
3070.0,0.030211462585061133
3069.0,0.030211462585061133
3068.0,0.030211462585061133
3067.0,0.030118356253500123
3066.0,0.029932203450862893
3065.0,0.029792641193145286
3064.0,0.029746130405213123
3063.0,0.029746130405213123
3062.0,0.02969962459782227
3061.0,0.02969962459782227
3060.0,0.02969962459782227
3059.0,0.02969962459782227
3058.0,0.029746130405213123
3057.0,0.029653123769906697
3056.0,0.029467170231675777
3055.0,0.029188389127482228
3054.0,0.028816959143838528
3053.0,0.028538594975413334
3052.0,0.028445846553939003
3051.0,0.02849221828874393
3050.0,0.02863136320857662
3049.0,0.02872415126189476
3048.0,0.02872415126189476
3047.0,0.028677754757187035
3046.0,0.02849221828874393
3045.0,0.02826040911222183
3044.0,0.028028723600243666
3043.0,0.027843464140506313
3042.0,0.0277045713888604
3041.0,0.027565723042634938
3040.0,0.02747318213414429
3039.0,0.027334407733889066
3038.0,0.027149444152769986
3037.0,0.027010773144651168
3036.0,0.02691835039863255
3035.0,0.026872146400301444
3034.0,0.02682594731702781
3033.0,0.026872146400301444
3032.0,0.026872146400301444
3031.0,0.02682594731702781
3030.0,0.026687379547098322
3029.0,0.026502691267936695
3028.0,0.02636422658259252
3027.0,0.026225806029419818
3026.0,0.026087429580295085
3025.0,0.025949097207122573
3024.0,0.025810808881832736
3023.0,0.025718641122169483
3022.0,0.02562649291857677
3021.0,0.025488307262671706
3020.0,0.025258095499050004
3019.0,0.024936003904763915
3018.0,0.024568191490736968
3017.0,0.024338466818941473
3016.0,0.024200690320592466
3015.0,0.024017056287453542
3014.0,0.023833499868024743
3013.0,0.02365002099672653
3012.0,0.023466619608062178
3011.0,0.023191662661933732
3010.0,0.02291687968414724
3009.0,0.02255077261765881
3008.0,0.02227639471115217
3007.0,0.02204787879853809
3006.0,0.021910826943857264
3005.0,0.021819483062586187
3004.0,0.02168250325324883
3003.0,0.02159120737696063
3002.0,0.02140867317992523
3001.0,0.021271822861508305
3000.0,0.021135015652343103
2999.0,0.021043834782408455
2998.0,0.0209982515252789
2997.0,0.0209982515252789
2996.0,0.020907099361673565
2995.0,0.020724852408976924
2994.0,0.020542681902151694
2993.0,0.020406104151069693
2992.0,0.020315076172974234
2991.0,0.02026956933771462
2990.0,0.020315076172974234
2989.0,0.02045162529590483
2988.0,0.02067930261797568
2987.0,0.020952673052035298
2986.0,0.021363051615525652
2985.0,0.021819483062586187
2984.0,0.022367834754000393
2983.0,0.023100049017062307
2982.0,0.023925268380126097
2981.0,0.024936003904763915
2980.0,0.02613355016462182
2979.0,0.02751945012352408
2978.0,0.02904906565457588
2977.0,0.030863766403287585
2976.0,0.033060836978886954
2975.0,0.035740369803151095
2974.0,0.038958783046687984
2973.0,0.04268010314465909
2972.0,0.04701393480294458
2971.0,0.0518316382728683
2970.0,0.057198533682059516
2969.0,0.06323500239005853
2968.0,0.0699173666076287
2967.0,0.07711890879170658
2966.0,0.08486409337798806
2965.0,0.09285746899685954
2964.0,0.10083635852278117
2963.0,0.10835105612944096
2962.0,0.114865033936566
2961.0,0.12004441487725082
2960.0,0.12395544975390482
2959.0,0.12697018793895576
2958.0,0.1295960947209729
2957.0,0.13247358880025661
2956.0,0.13626089265478303
2955.0,0.1415831222765116
2954.0,0.14855818532794496
2953.0,0.15707887924001773
2952.0,0.16634300310712757
2951.0,0.1751585282462993
2950.0,0.18203819546800593
2949.0,0.185819018959813
2948.0,0.18568579979254052
2947.0,0.18137827362411096
2946.0,0.17347169365934856
2945.0,0.16316971351112097
2944.0,0.1517492853229574
2943.0,0.14056146454494378
2942.0,0.13041629228657614
2941.0,0.1219955297319748
2940.0,0.11548784080960606
2939.0,0.11103465569966264
2938.0,0.10846254232743546
2937.0,0.10757145305477
2936.0,0.10823959854332843
2935.0,0.11047420332880886
2934.0,0.11418662533951118
2933.0,0.11935787359571504
2932.0,0.12569216687196105
2931.0,0.1331221856625011
2930.0,0.1414628024303608
2929.0,0.15045774799498335
2928.0,0.15989390554324223
2927.0,0.16941133131485575
2926.0,0.17901082358395048
2925.0,0.1885590563258419
2924.0,0.1981848314185628
2923.0,0.208028798979232
2922.0,0.2182446253475312
2921.0,0.22885365118501477
2920.0,0.2397283394579368
2919.0,0.25018641470706227
2918.0,0.25916379294268843
2917.0,0.2654401784205238
2916.0,0.2681695797118375
2915.0,0.2671239586372933
2914.0,0.26288690569403883
2913.0,0.25656863485331627
2912.0,0.24918315735024543
2911.0,0.24184537803260997
2910.0,0.23507701535011138
2909.0,0.2290743853610009
2908.0,0.22358941119265774
2907.0,0.2183882175068499
2906.0,0.21317762050081246
2905.0,0.20781850385032108
2904.0,0.20252471246266568
2903.0,0.19722627470802445
2902.0,0.1920592787845008
2901.0,0.18688624599210146
2900.0,0.18190613085336405
2899.0,0.17704775945251838
2898.0,0.17230771132555445
2897.0,0.16781053893148679
2896.0,0.16354928627984533
2895.0,0.15958022226351387
2894.0,0.15602015552184012
2893.0,0.15292113793428452
2892.0,0.1503963419175529
2891.0,0.14837479684669086
2890.0,0.14684956355215717
2889.0,0.14575470293388149
2888.0,0.14502632627358292
2887.0,0.1446020033459312
2886.0,0.14442027749828212
2885.0,0.1446020033459312
2884.0,0.14514763758216587
2883.0,0.1461193498754576
2882.0,0.14752000636314366
2881.0,0.14923127307111983
2880.0,0.15101079374883275
2879.0,0.15267416921457633
2878.0,0.1538485234711846
2877.0,0.15440590683997568
2876.0,0.15434394001645568
2875.0,0.15372475758778692
2874.0,0.15310645668337486
2873.0,0.15267416921457633
2872.0,0.15292113793428452
2871.0,0.15391041964201602
2870.0,0.15564710368910672
2869.0,0.15782777061438424
2868.0,0.160145015398115
2867.0,0.1619068615544017
2866.0,0.1624115617644888
2865.0,0.16096212661169407
2864.0,0.15745316350498495
2863.0,0.15205736115477642
2862.0,0.14551177495556966
2861.0,0.13870460647330418
2860.0,0.13241467345296387
2859.0,0.12702836926155658
2858.0,0.12291674334934943
2857.0,0.12015894401343741
2856.0,0.11867241589944855
2855.0,0.11844417020668851
2854.0,0.11930071078129845
2853.0,0.12107626603243293
2852.0,0.12360893818081231
2851.0,0.12667939818460128
2850.0,0.12971317100740865
2849.0,0.13235576609690147
2848.0,0.13424477592854833
2847.0,0.13566694496660703
2846.0,0.1370342410222376
2845.0,0.13900356324280416
2844.0,0.141884067809934
2843.0,0.14581545616639335
2842.0,0.15051916275601385
2841.0,0.15558495952617557
2840.0,0.1605219526258017
2839.0,0.1646899991309374
2838.0,0.16729952903943257
2837.0,0.16781053893148679
2836.0,0.16589734428720626
2835.0,0.16165473122400909
2834.0,0.15552282425431851
2833.0,0.1482525808667361
2832.0,0.14062149557439896
2831.0,0.13329924395750092
2830.0,0.126621263590859
2829.0,0.12084675381575383
2828.0,0.11594135290606156
2827.0,0.1117081546434846
2826.0,0.10801676914803293
2825.0,0.1047432468551055
2824.0,0.10193333935836524
2823.0,0.09957824654226233
2822.0,0.0975619438013351
2821.0,0.09582563171583658
2820.0,0.09431203228814788
2819.0,0.09301884677114591
2818.0,0.09189045960744768
2817.0,0.09087205801073917
2816.0,0.08985603893548699
2815.0,0.08878910686244668
2814.0,0.0877779434675845
2813.0,0.08687520961044104
2812.0,0.08608023504853413
2811.0,0.08549817717268593
2810.0,0.08496970974083906
2809.0,0.08438913733853282
2808.0,0.08365134772453975
2807.0,0.08275714209253371
2806.0,0.08181233864107451
2805.0,0.08081727095749947
2804.0,0.07992887570247587
2803.0,0.07914650387874067
2802.0,0.07846958649875768
2801.0,0.07779372256098371
2800.0,0.07727454200674
2799.0,0.07685964397479927
2798.0,0.07644514193245056
2797.0,0.0760310351245288
2796.0,0.07556563645676939
2795.0,0.07510073598571654
2794.0,0.07463633264589853
2793.0,0.07422394616325367
2792.0,0.07381195089279391
2791.0,0.07334892291111106
2790.0,0.07283502570063005
2789.0,0.07237303755504598
2788.0,0.07191154033502922
2787.0,0.07150173187630915
2786.0,0.07119462910671581
2785.0,0.07088774334533943
2784.0,0.07052998382251041
2783.0,0.07001940948448526
2782.0,0.06950943469373039
2781.0,0.06905096883247697
2780.0,0.06869471857832687
2779.0,0.06844043290919477
2778.0,0.0681862960408608
2777.0,0.06788152797087754
2776.0,0.0675769736232612
2775.0,0.06737405597821788
2774.0,0.06727263269847072
2773.0,0.06722192993944942
2772.0,0.0671712330991534
2771.0,0.06696850489759454
2770.0,0.0666645899223488
2769.0,0.06641148980334699
2768.0,0.06615853710127872
2767.0,0.0659562809644747
2766.0,0.06570359318059427
2765.0,0.0654005617819271
2764.0,0.06519865825346338
2763.0,0.06504729218214189
2762.0,0.06494641076893504
2761.0,0.06489597884855036
2760.0,0.06479513257341862
2759.0,0.06469430971007495
2758.0,0.06454311928839007
2757.0,0.06434161389936577
2756.0,0.06414020196211956
2755.0,0.06398920428479049
2754.0,0.06393888339001164
2753.0,0.06388856832514578
2752.0,0.06388856832514578
2751.0,0.06383825908884244
2750.0,0.06373765809652254
2749.0,0.06358680028852026
2748.0,0.06338573802478864
2747.0,0.06323500239005853
2746.0,0.0630843190547461
2745.0,0.06293368798257193
2744.0,0.06283329628496737
2743.0,0.06278310913729457
2742.0,0.0627329277885873
2741.0,0.06268275223750575
2740.0,0.06268275223750575
2739.0,0.0627329277885873
2738.0,0.06278310913729457
2737.0,0.06288348923294618
2736.0,0.06298389253518577
2735.0,0.0630843190547461
2734.0,0.06318476880236723
2733.0,0.06338573802478864
2732.0,0.06358680028852026
2731.0,0.06378795567975115
2730.0,0.06403953101083348
2729.0,0.06424089625468832
2728.0,0.06454311928839007
2727.0,0.06484555278383164
2726.0,0.06504729218214189
2725.0,0.06524912533642091
2724.0,0.0653500770992892
2723.0,0.0654005617819271
2722.0,0.06545105233385295
2721.0,0.06545105233385295
2720.0,0.0654005617819271
2719.0,0.06519865825346338
2718.0,0.06489597884855036
2717.0,0.06459351024765114
2716.0,0.06424089625468832
2715.0,0.06388856832514578
2714.0,0.06363708040225546
2713.0,0.06343599486473406
2712.0,0.06323500239005853
2711.0,0.0630843190547461
2710.0,0.06293368798257193
2709.0,0.06283329628496737
2708.0,0.06268275223750575
2707.0,0.06243196139961715
2706.0,0.062131203436140536
2705.0,0.06193081377661436
2704.0,0.061780582187257016
2703.0,0.061680456657844385
2702.0,0.06163040254819374
2701.0,0.06148027482350815
2700.0,0.06133019897732073
2699.0,0.06118017497378969
2698.0,0.06108018775522828
2697.0,0.06098022355133348
2696.0,0.06093025007657582
2695.0,0.06083032037482261
2694.0,0.06078036414518184
2693.0,0.06068046892176193
2692.0,0.06068046892176193
2691.0,0.06068046892176193
2690.0,0.060730413661268745
2689.0,0.060730413661268745
2688.0,0.06078036414518184
2687.0,0.06078036414518184
2686.0,0.06078036414518184
2685.0,0.060730413661268745
2684.0,0.06068046892176193
2683.0,0.06058059667068294
2682.0,0.060530669156469985
2681.0,0.060530669156469985
2680.0,0.060530669156469985
2679.0,0.060530669156469985
2678.0,0.06048074738138154
2677.0,0.060430831344098435
2676.0,0.06038092104330195
2675.0,0.06038092104330195
2674.0,0.06038092104330195
2673.0,0.06038092104330195
2672.0,0.060430831344098435
2671.0,0.060430831344098435
2670.0,0.06038092104330195
2669.0,0.06033101647767336
2668.0,0.06033101647767336
2667.0,0.06033101647767336
2666.0,0.06038092104330195
2665.0,0.06038092104330195
2664.0,0.06033101647767336
2663.0,0.06033101647767336
2662.0,0.06028111764589528
2661.0,0.06028111764589528
2660.0,0.060231224546650086
2659.0,0.060131455540490375
2658.0,0.06003170944866376
2657.0,0.05998184499233683
2656.0,0.05998184499233683
2655.0,0.05998184499233683
2654.0,0.05993198626064755
2653.0,0.05988213325228142
2652.0,0.05983228596592505
2651.0,0.05978244440026481
2650.0,0.05968277842578207
2649.0,0.0595831353183347
2648.0,0.05948351506743288
2647.0,0.05943371350990989
2646.0,0.05943371350990989
2645.0,0.05948351506743288
2644.0,0.05948351506743288
2643.0,0.05943371350990989
2642.0,0.05933412752417122
2641.0,0.05918479134919874
2640.0,0.05908526241971446
2639.0,0.059035506507200575
2638.0,0.058936011780097886
2637.0,0.058786812414678646
2636.0,0.05868737463933793
2635.0,0.05868737463933793
2634.0,0.058737090681050264
2633.0,0.0588862729628985
2632.0,0.05898575629443026
2631.0,0.05898575629443026
2630.0,0.0588862729628985
2629.0,0.058786812414678646
2628.0,0.058786812414678646
2627.0,0.058786812414678646
2626.0,0.058786812414678646
2625.0,0.058836539841526925
2624.0,0.058836539841526925
2623.0,0.058836539841526925
2622.0,0.0588862729628985
2621.0,0.0588862729628985
2620.0,0.058936011780097886
2619.0,0.059035506507200575
2618.0,0.059135024033278416
2617.0,0.05923456436878238
2616.0,0.05928434309333741
2615.0,0.05928434309333741
2614.0,0.05933412752417122
2613.0,0.05938391766259232
2612.0,0.05938391766259232
2611.0,0.05928434309333741
2610.0,0.05923456436878238
2609.0,0.05923456436878238
2608.0,0.05923456436878238
2607.0,0.05923456436878238
2606.0,0.059135024033278416
2605.0,0.058936011780097886
2604.0,0.058737090681050264
2603.0,0.05858795962645047
2602.0,0.05843887976392925
2601.0,0.0583891978463662
2600.0,0.0583891978463662
2599.0,0.05843887976392925
2598.0,0.05843887976392925
2597.0,0.05848856736559682
2596.0,0.058538260652670315
2595.0,0.05858795962645047
2594.0,0.05858795962645047
2593.0,0.058538260652670315
2592.0,0.058538260652670315
2591.0,0.05858795962645047
2590.0,0.05868737463933793
2589.0,0.0588862729628985
2588.0,0.05898575629443026
2587.0,0.059135024033278416
2586.0,0.05918479134919874
2585.0,0.05933412752417122
2584.0,0.05943371350990989
2583.0,0.05948351506743288
2582.0,0.05948351506743288
2581.0,0.05948351506743288
2580.0,0.05953332233647113
2579.0,0.05953332233647113
2578.0,0.05948351506743288
2577.0,0.05933412752417122
2576.0,0.05918479134919874
2575.0,0.05908526241971446
2574.0,0.05908526241971446
2573.0,0.05908526241971446
2572.0,0.05908526241971446
2571.0,0.05908526241971446
2570.0,0.05898575629443026
2569.0,0.058836539841526925
2568.0,0.058737090681050264
2567.0,0.05863766428823891
2566.0,0.05858795962645047
2565.0,0.05848856736559682
2564.0,0.0583891978463662
2563.0,0.0582898510583536
2562.0,0.058190526991161784
2561.0,0.05814087347462649
2560.0,0.05809122563440061
2559.0,0.05809122563440061
2558.0,0.05809122563440061
2557.0,0.05814087347462649
2556.0,0.05824018618530458
2555.0,0.0583891978463662
2554.0,0.05843887976392925
2553.0,0.0583395216116076
2552.0,0.0582898510583536
2551.0,0.0582898510583536
2550.0,0.0583395216116076
2549.0,0.0583395216116076
2548.0,0.0582898510583536
2547.0,0.05824018618530458
2546.0,0.05814087347462649
2545.0,0.05809122563440061
2544.0,0.05804158346918653
2543.0,0.05804158346918653
2542.0,0.05804158346918653
2541.0,0.058190526991161784
2540.0,0.0582898510583536
2539.0,0.0583395216116076
2538.0,0.05824018618530458
2537.0,0.05809122563440061
2536.0,0.05799194697768684
2535.0,0.05794231615860479
2534.0,0.05794231615860479
2533.0,0.05789269101064454
2532.0,0.05784307153250956
2531.0,0.05779345772290467
2530.0,0.057743849580535134
2529.0,0.05769424710410598
2528.0,0.05764465029232335
2527.0,0.05764465029232335
2526.0,0.05764465029232335
2525.0,0.05769424710410598
2524.0,0.05779345772290467
2523.0,0.05789269101064454
2522.0,0.05789269101064454
2521.0,0.05784307153250956
2520.0,0.05769424710410598
2519.0,0.05754547365752294
2518.0,0.05749589383191922
2517.0,0.05749589383191922
2516.0,0.0575950591438934
2515.0,0.05769424710410598
2514.0,0.05779345772290467
2513.0,0.05779345772290467
2512.0,0.05779345772290467
2511.0,0.057743849580535134
2510.0,0.05764465029232335
2509.0,0.0575950591438934
2508.0,0.05749589383191922
2507.0,0.05749589383191922
2506.0,0.05749589383191922
2505.0,0.05749589383191922
2504.0,0.05754547365752294
2503.0,0.05754547365752294
2502.0,0.05754547365752294
2501.0,0.05754547365752294
2500.0,0.05749589383191922
2499.0,0.05749589383191922
2498.0,0.05749589383191922
2497.0,0.05749589383191922
2496.0,0.05749589383191922
2495.0,0.05744631966579017
2494.0,0.057396751157843484
2493.0,0.05734718830678798
2492.0,0.05734718830678798
2491.0,0.05744631966579017
2490.0,0.05754547365752294
2489.0,0.05764465029232335
2488.0,0.057743849580535134
2487.0,0.05784307153250956
2486.0,0.05789269101064454
2485.0,0.05784307153250956
2484.0,0.05769424710410598
2483.0,0.05754547365752294
2482.0,0.05749589383191922
2481.0,0.05754547365752294
2480.0,0.0575950591438934
2479.0,0.05769424710410598
2478.0,0.05784307153250956
2477.0,0.05794231615860479
2476.0,0.05804158346918653
2475.0,0.05809122563440061
2474.0,0.05804158346918653
2473.0,0.05799194697768684
2472.0,0.05784307153250956
2471.0,0.05769424710410598
2470.0,0.05749589383191922
2469.0,0.05744631966579017
2468.0,0.05744631966579017
2467.0,0.0575950591438934
2466.0,0.05769424710410598
2465.0,0.05779345772290467
2464.0,0.05779345772290467
2463.0,0.057743849580535134
2462.0,0.05769424710410598
2461.0,0.05769424710410598
2460.0,0.057743849580535134
2459.0,0.05779345772290467
2458.0,0.05789269101064454
2457.0,0.05794231615860479
2456.0,0.05794231615860479
2455.0,0.05794231615860479
2454.0,0.05789269101064454
2453.0,0.05789269101064454
2452.0,0.05794231615860479
2451.0,0.05799194697768684
2450.0,0.05794231615860479
2449.0,0.05784307153250956
2448.0,0.05784307153250956
2447.0,0.05789269101064454
2446.0,0.05799194697768684
2445.0,0.05814087347462649
2444.0,0.05814087347462649
2443.0,0.05814087347462649
2442.0,0.05809122563440061
2441.0,0.05804158346918653
2440.0,0.05804158346918653
2439.0,0.05804158346918653
2438.0,0.05809122563440061
2437.0,0.058190526991161784
2436.0,0.0582898510583536
2435.0,0.05843887976392925
2434.0,0.05848856736559682
2433.0,0.05848856736559682
2432.0,0.05848856736559682
2431.0,0.05848856736559682
2430.0,0.05843887976392925
2429.0,0.0583395216116076
2428.0,0.0583395216116076
2427.0,0.0583395216116076
2426.0,0.05843887976392925
2425.0,0.05848856736559682
2424.0,0.058538260652670315
2423.0,0.05858795962645047
2422.0,0.05858795962645047
2421.0,0.05858795962645047
2420.0,0.05858795962645047
2419.0,0.05858795962645047
2418.0,0.05858795962645047
2417.0,0.058538260652670315
2416.0,0.058538260652670315
2415.0,0.058538260652670315
2414.0,0.058538260652670315
2413.0,0.05858795962645047
2412.0,0.05868737463933793
2411.0,0.058786812414678646
2410.0,0.0588862729628985
2409.0,0.058936011780097886
2408.0,0.058936011780097886
2407.0,0.058936011780097886
2406.0,0.0588862729628985
2405.0,0.0588862729628985
2404.0,0.058936011780097886
2403.0,0.05898575629443026
2402.0,0.059035506507200575
2401.0,0.05908526241971446
2400.0,0.05908526241971446
2399.0,0.059035506507200575
2398.0,0.05898575629443026
2397.0,0.05898575629443026
2396.0,0.058936011780097886
2395.0,0.05898575629443026
2394.0,0.059035506507200575
2393.0,0.05908526241971446
2392.0,0.059135024033278416
2391.0,0.05918479134919874
2390.0,0.05923456436878238
2389.0,0.05933412752417122
2388.0,0.0595831353183347
2387.0,0.05988213325228142
2386.0,0.060231224546650086
2385.0,0.060430831344098435
2384.0,0.060530669156469985
2383.0,0.060430831344098435
2382.0,0.060231224546650086
2381.0,0.05988213325228142
2380.0,0.05938391766259232
2379.0,0.058836539841526925
2378.0,0.0582898510583536
2377.0,0.05789269101064454
2376.0,0.05779345772290467
2375.0,0.05789269101064454
2374.0,0.05809122563440061
2373.0,0.0583395216116076
2372.0,0.05843887976392925
2371.0,0.05843887976392925
2370.0,0.0583891978463662
2369.0,0.05843887976392925
2368.0,0.058538260652670315
2367.0,0.0582898510583536
2366.0,0.0575950591438934
2365.0,0.05665390164340933
2364.0,0.055912320584565744
2363.0,0.05551732784983132
2362.0,0.05531996611868961
2361.0,0.05551732784983132
2360.0,0.05655495097496965
2359.0,0.05824018618530458
2358.0,0.05953332233647113
2357.0,0.05978244440026481
2356.0,0.058936011780097886
2355.0,0.05784307153250956
2354.0,0.05685187064143715
2353.0,0.056159373598738904
2352.0,0.05586292684190197
2351.0,0.05620880107069848
2350.0,0.057000406633959555
2349.0,0.0575950591438934
2348.0,0.05749589383191922
2347.0,0.05670338543334519
2346.0,0.055764156206519866
2345.0,0.05546797900801881
2344.0,0.05606053552778367
2343.0,0.057049929922901255
2342.0,0.05779345772290467
2341.0,0.05799194697768684
2340.0,0.05784307153250956
2339.0,0.05779345772290467
2338.0,0.05784307153250956
2337.0,0.057743849580535134
2336.0,0.05724807957018618
2335.0,0.05655495097496965
2334.0,0.05606053552778367
2333.0,0.05586292684190197
2332.0,0.05606053552778367
2331.0,0.05655495097496965
2330.0,0.05724807957018618
2329.0,0.05824018618530458
2328.0,0.05928434309333741
2327.0,0.060081579630943294
2326.0,0.06028111764589528
2325.0,0.05998184499233683
2324.0,0.05938391766259232
2323.0,0.058786812414678646
2322.0,0.0583395216116076
2321.0,0.05824018618530458
2320.0,0.05863766428823891
2319.0,0.05943371350990989
2318.0,0.060231224546650086
2317.0,0.06078036414518184
2316.0,0.06093025007657582
2315.0,0.06083032037482261
2314.0,0.06078036414518184
2313.0,0.060880282351513104
2312.0,0.06118017497378969
2311.0,0.06153031163235467
2310.0,0.06173051653708872
2309.0,0.061830653609679764
2308.0,0.061780582187257016
2307.0,0.061680456657844385
2306.0,0.061680456657844385
2305.0,0.061680456657844385
2304.0,0.061780582187257016
2303.0,0.061830653609679764
2302.0,0.061830653609679764
2301.0,0.061830653609679764
2300.0,0.061880730805688344
2299.0,0.06198090252378963
2298.0,0.06198090252378963
2297.0,0.06198090252378963
2296.0,0.061880730805688344
2295.0,0.061780582187257016
2294.0,0.06163040254819374
2293.0,0.06143024377893891
2292.0,0.06123017721688262
2291.0,0.06108018775522828
2290.0,0.06098022355133348
2289.0,0.060880282351513104
2288.0,0.06083032037482261
2287.0,0.06078036414518184
2286.0,0.06078036414518184
2285.0,0.060730413661268745
2284.0,0.060730413661268745
2283.0,0.06068046892176193
2282.0,0.06063052992534024
2281.0,0.06063052992534024
2280.0,0.06068046892176193
2279.0,0.060730413661268745
2278.0,0.06078036414518184
2277.0,0.06083032037482261
2276.0,0.06078036414518184
2275.0,0.06078036414518184
2274.0,0.06068046892176193
2273.0,0.06063052992534024
2272.0,0.06058059667068294
2271.0,0.06063052992534024
2270.0,0.06068046892176193
2269.0,0.06083032037482261
2268.0,0.060880282351513104
2267.0,0.06083032037482261
2266.0,0.06078036414518184
2265.0,0.06068046892176193
2264.0,0.060730413661268745
2263.0,0.060880282351513104
2262.0,0.06108018775522828
2261.0,0.06123017721688262
2260.0,0.06133019897732073
2259.0,0.06128018521761747
2258.0,0.06118017497378969
2257.0,0.06108018775522828
2256.0,0.0611301784870133
2255.0,0.06123017721688262
2254.0,0.06128018521761747
2253.0,0.06123017721688262
2252.0,0.06118017497378969
2251.0,0.06123017721688262
2250.0,0.06133019897732073
2249.0,0.061380218497318895
2248.0,0.06143024377893891
2247.0,0.06133019897732073
2246.0,0.06128018521761747
2245.0,0.06123017721688262
2244.0,0.06128018521761747
2243.0,0.06133019897732073
2242.0,0.061380218497318895
2241.0,0.06128018521761747
2240.0,0.0611301784870133
2239.0,0.06103020277710969
2238.0,0.06103020277710969
2237.0,0.06118017497378969
2236.0,0.06133019897732073
2235.0,0.06143024377893891
2234.0,0.06148027482350815
2233.0,0.06153031163235467
2232.0,0.06153031163235467
2231.0,0.06148027482350815
2230.0,0.06148027482350815
2229.0,0.06153031163235467
2228.0,0.06153031163235467
2227.0,0.06153031163235467
2226.0,0.06153031163235467
2225.0,0.06143024377893891
2224.0,0.061380218497318895
2223.0,0.061380218497318895
2222.0,0.06143024377893891
2221.0,0.06153031163235467
2220.0,0.061580354206806964
2219.0,0.061680456657844385
2218.0,0.061680456657844385
2217.0,0.061680456657844385
2216.0,0.061680456657844385
2215.0,0.06163040254819374
2214.0,0.061580354206806964
2213.0,0.061580354206806964
2212.0,0.061580354206806964
2211.0,0.061680456657844385
2210.0,0.06173051653708872
2209.0,0.06173051653708872
2208.0,0.06173051653708872
2207.0,0.06173051653708872
2206.0,0.06173051653708872
2205.0,0.061830653609679764
2204.0,0.06193081377661436
2203.0,0.06203099704854709
2202.0,0.06208109735221967
2201.0,0.06203099704854709
2200.0,0.06198090252378963
2199.0,0.06203099704854709
2198.0,0.06208109735221967
2197.0,0.06208109735221967
2196.0,0.06198090252378963
2195.0,0.061830653609679764
2194.0,0.06173051653708872
2193.0,0.06173051653708872
2192.0,0.061780582187257016
2191.0,0.061880730805688344
2190.0,0.06208109735221967
2189.0,0.062281556382736136
2188.0,0.062381820606176586
2187.0,0.062331685600995
2186.0,0.06223143295006417
2185.0,0.062131203436140536
2184.0,0.06203099704854709
2183.0,0.06203099704854709
2182.0,0.062131203436140536
2181.0,0.06218131530164395
2180.0,0.06223143295006417
2179.0,0.062281556382736136
2178.0,0.062331685600995
2177.0,0.062331685600995
2176.0,0.062331685600995
2175.0,0.062331685600995
2174.0,0.062331685600995
2173.0,0.06243196139961715
2172.0,0.06253226035662252
2171.0,0.06263258248271053
2170.0,0.06268275223750575
2169.0,0.06268275223750575
2168.0,0.06263258248271053
2167.0,0.06258241852286206
2166.0,0.06258241852286206
2165.0,0.06268275223750575
2164.0,0.06283329628496737
2163.0,0.06288348923294618
2162.0,0.06283329628496737
2161.0,0.0627329277885873
2160.0,0.06268275223750575
2159.0,0.06263258248271053
2158.0,0.06268275223750575
2157.0,0.0627329277885873
2156.0,0.0627329277885873
2155.0,0.06278310913729457
2154.0,0.06283329628496737
2153.0,0.06288348923294618
2152.0,0.06293368798257193
2151.0,0.06293368798257193
2150.0,0.06288348923294618
2149.0,0.06288348923294618
2148.0,0.06293368798257193
2147.0,0.06303410289212974
2146.0,0.0630843190547461
2145.0,0.06303410289212974
2144.0,0.06298389253518577
2143.0,0.06293368798257193
2142.0,0.06288348923294618
2141.0,0.06288348923294618
2140.0,0.06288348923294618
2139.0,0.06288348923294618
2138.0,0.06293368798257193
2137.0,0.06298389253518577
2136.0,0.06313454102437754
2135.0,0.06318476880236723
2134.0,0.06323500239005853
2133.0,0.06323500239005853
2132.0,0.06328524178879635
2131.0,0.06328524178879635
2130.0,0.06333548699992453
2129.0,0.06338573802478864
2128.0,0.06343599486473406
2127.0,0.06348625752110681
2126.0,0.06348625752110681
2125.0,0.06343599486473406
2124.0,0.06328524178879635
2123.0,0.06318476880236723
2122.0,0.0630843190547461
2121.0,0.0630843190547461
2120.0,0.06313454102437754
2119.0,0.06313454102437754
2118.0,0.06313454102437754
2117.0,0.06313454102437754
2116.0,0.06318476880236723
2115.0,0.06323500239005853
2114.0,0.06328524178879635
2113.0,0.06333548699992453
2112.0,0.06338573802478864
2111.0,0.06348625752110681
2110.0,0.06358680028852026
2109.0,0.06363708040225546
2108.0,0.06363708040225546
2107.0,0.06363708040225546
2106.0,0.06358680028852026
2105.0,0.06358680028852026
2104.0,0.06353652599525317
2103.0,0.06348625752110681
2102.0,0.06343599486473406
2101.0,0.06343599486473406
2100.0,0.06343599486473406
2099.0,0.06343599486473406
2098.0,0.06343599486473406
2097.0,0.06343599486473406
2096.0,0.06348625752110681
2095.0,0.06358680028852026
2094.0,0.06363708040225546
2093.0,0.06363708040225546
2092.0,0.06363708040225546
2091.0,0.06363708040225546
2090.0,0.06363708040225546
2089.0,0.06363708040225546
2088.0,0.06363708040225546
2087.0,0.06358680028852026
2086.0,0.06353652599525317
2085.0,0.06353652599525317
2084.0,0.06358680028852026
2083.0,0.06363708040225546
2082.0,0.06363708040225546
2081.0,0.0636873663378068
2080.0,0.06373765809652254
2079.0,0.06383825908884244
2078.0,0.06393888339001164
2077.0,0.06398920428479049
2076.0,0.06398920428479049
2075.0,0.06398920428479049
2074.0,0.06398920428479049
2073.0,0.06393888339001164
2072.0,0.06383825908884244
2071.0,0.06378795567975115
2070.0,0.06378795567975115
2069.0,0.06388856832514578
2068.0,0.06393888339001164
2067.0,0.06388856832514578
2066.0,0.06373765809652254
2065.0,0.06363708040225546
2064.0,0.06358680028852026
2063.0,0.06363708040225546
2062.0,0.06373765809652254
2061.0,0.06383825908884244
2060.0,0.06393888339001164
2059.0,0.06398920428479049
2058.0,0.06398920428479049
2057.0,0.06403953101083348
2056.0,0.06414020196211956
2055.0,0.06419054619006714
2054.0,0.06429125215733666
2053.0,0.06429125215733666
2052.0,0.06419054619006714
2051.0,0.06408986356949264
2050.0,0.06403953101083348
2049.0,0.06414020196211956
2048.0,0.06424089625468832
2047.0,0.06439198148213077
2046.0,0.06444235490698613
2045.0,0.06444235490698613
2044.0,0.06444235490698613
2043.0,0.06454311928839007
2042.0,0.06459351024765114
2041.0,0.06459351024765114
2040.0,0.06449273417528723
2039.0,0.06429125215733666
2038.0,0.06419054619006714
2037.0,0.06424089625468832
2036.0,0.06429125215733666
2035.0,0.06439198148213077
2034.0,0.06444235490698613
2033.0,0.06444235490698613
2032.0,0.06444235490698613
2031.0,0.06449273417528723
2030.0,0.06449273417528723
2029.0,0.06449273417528723
2028.0,0.06454311928839007
2027.0,0.06454311928839007
2026.0,0.06454311928839007
2025.0,0.06459351024765114
2024.0,0.06464390705442691
2023.0,0.06474471821595262
2022.0,0.06484555278383164
2021.0,0.06484555278383164
2020.0,0.06484555278383164
2019.0,0.06479513257341862
2018.0,0.06479513257341862
2017.0,0.06484555278383164
2016.0,0.06484555278383164
2015.0,0.06479513257341862
2014.0,0.06474471821595262
2013.0,0.06474471821595262
2012.0,0.06479513257341862
2011.0,0.06484555278383164
2010.0,0.06484555278383164
2009.0,0.06479513257341862
2008.0,0.06474471821595262
2007.0,0.06474471821595262
2006.0,0.06474471821595262
2005.0,0.06479513257341862
2004.0,0.06489597884855036
2003.0,0.06499684854634524
2002.0,0.06514819703433927
2001.0,0.06519865825346338
2000.0,0.06529959828457499
1999.0,0.06529959828457499
1998.0,0.06524912533642091
1997.0,0.06519865825346338
1996.0,0.06519865825346338
1995.0,0.06524912533642091
1994.0,0.06529959828457499
1993.0,0.06529959828457499
1992.0,0.06524912533642091
1991.0,0.06519865825346338
1990.0,0.06509774167768612
1989.0,0.06504729218214189
1988.0,0.06504729218214189
1987.0,0.06509774167768612
1986.0,0.06519865825346338
1985.0,0.0653500770992892
1984.0,0.06545105233385295
1983.0,0.06550154875643233
1982.0,0.06550154875643233
1981.0,0.06550154875643233
1980.0,0.06545105233385295
1979.0,0.06550154875643233
1978.0,0.0655520510510299
1977.0,0.06560255921901192
1976.0,0.06565307326174441
1975.0,0.06560255921901192
1974.0,0.06550154875643233
1973.0,0.06545105233385295
1972.0,0.06550154875643233
1971.0,0.06560255921901192
1970.0,0.06560255921901192
1969.0,0.06560255921901192
1968.0,0.0655520510510299
1967.0,0.0655520510510299
1966.0,0.06560255921901192
1965.0,0.06565307326174441
1964.0,0.06570359318059427
1963.0,0.06575411897692884
1962.0,0.06580465065211571
1961.0,0.06590573164451952
1960.0,0.0659562809644747
1959.0,0.0659562809644747
1958.0,0.0658551882075229
1957.0,0.06580465065211571
1956.0,0.06575411897692884
1955.0,0.06580465065211571
1954.0,0.0658551882075229
1953.0,0.0658551882075229
1952.0,0.0658551882075229
1951.0,0.06590573164451952
1950.0,0.06590573164451952
1949.0,0.0659562809644747
1948.0,0.0659562809644747
1947.0,0.06600683616875758
1946.0,0.06605739725873905
1945.0,0.06610796423578891
1944.0,0.06615853710127872
1943.0,0.06615853710127872
1942.0,0.06625970050306473
1941.0,0.06636088747507496
1940.0,0.06646209802829528
1939.0,0.06646209802829528
1938.0,0.06646209802829528
1937.0,0.06641148980334699
1936.0,0.0663102910421054
1935.0,0.06625970050306473
1934.0,0.06625970050306473
1933.0,0.0663102910421054
1932.0,0.06636088747507496
1931.0,0.06641148980334699
1930.0,0.06641148980334699
1929.0,0.06646209802829528
1928.0,0.06656333217371957
1927.0,0.0666645899223488
1926.0,0.06671522765130522
1925.0,0.06676587128519196
1924.0,0.06681652082538614
1923.0,0.06681652082538614
1922.0,0.06686717627326577
1921.0,0.06686717627326577
1920.0,0.06691783763020887
1919.0,0.06696850489759454
1918.0,0.06701917807680191
1917.0,0.06706985716921054
1916.0,0.06706985716921054
1915.0,0.06701917807680191
1914.0,0.06696850489759454
1913.0,0.06696850489759454
1912.0,0.06701917807680191
1911.0,0.06706985716921054
1910.0,0.0671712330991534
1909.0,0.06722192993944942
1908.0,0.06722192993944942
1907.0,0.06712054217620067
1906.0,0.06706985716921054
1905.0,0.06706985716921054
1904.0,0.0671712330991534
1903.0,0.06727263269847072
1902.0,0.06732334137759932
1901.0,0.06737405597821788
1900.0,0.06742477650170953
1899.0,0.06737405597821788
1898.0,0.06737405597821788
1897.0,0.06737405597821788
1896.0,0.06752623532284674
1895.0,0.0676277178520861
1894.0,0.06772922410050963
1893.0,0.06777998612288094
1892.0,0.0678307540792078
1891.0,0.0678307540792078
1890.0,0.0678307540792078
1889.0,0.06777998612288094
1888.0,0.06777998612288094
1887.0,0.06772922410050963
1886.0,0.06767846801070698
1885.0,0.06767846801070698
1884.0,0.06772922410050963
1883.0,0.0678307540792078
1882.0,0.06793230779927839
1881.0,0.06793230779927839
1880.0,0.06793230779927839
1879.0,0.06788152797087754
1878.0,0.0678307540792078
1877.0,0.06788152797087754
1876.0,0.06793230779927839
1875.0,0.06798309356579857
1874.0,0.06803388527182741
1873.0,0.06803388527182741
1872.0,0.06813548650796819
1871.0,0.06823711151882228
1870.0,0.068389593637038
1869.0,0.06844043290919477
1868.0,0.0684912781333824
1867.0,0.06844043290919477
1866.0,0.06833876031551878
1865.0,0.06823711151882228
1864.0,0.0681862960408608
1863.0,0.06813548650796819
1862.0,0.0681862960408608
1861.0,0.06823711151882228
1860.0,0.06833876031551878
1859.0,0.06844043290919477
1858.0,0.0684912781333824
1857.0,0.0685421293109949
1856.0,0.0685421293109949
1855.0,0.0684912781333824
1854.0,0.0684912781333824
1853.0,0.0684912781333824
1852.0,0.06859298644342648
1851.0,0.06869471857832687
1850.0,0.06879647454924775
1849.0,0.06884736147670667
1848.0,0.06884736147670667
1847.0,0.0688982543673613
1846.0,0.0688982543673613
1845.0,0.06894915322260897
1844.0,0.06894915322260897
1843.0,0.06894915322260897
1842.0,0.0688982543673613
1841.0,0.06884736147670667
1840.0,0.06879647454924775
1839.0,0.06874559358358656
1838.0,0.06874559358358656
1837.0,0.06884736147670667
1836.0,0.0688982543673613
1835.0,0.0690000580438479
1834.0,0.06905096883247697
1833.0,0.0691018855898955
1832.0,0.06915280831750303
1831.0,0.0692037370166998
1830.0,0.06930561233546473
1829.0,0.06950943469373039
1828.0,0.06956040523329987
1827.0,0.06956040523329987
1826.0,0.06945847013556561
1825.0,0.06935655895783555
1824.0,0.06935655895783555
1823.0,0.06935655895783555
1822.0,0.06930561233546473
1821.0,0.06925467168888666
1820.0,0.0692037370166998
1819.0,0.06915280831750303
1818.0,0.0691018855898955
1817.0,0.0691018855898955
1816.0,0.0692037370166998
1815.0,0.06930561233546473
1814.0,0.06930561233546473
1813.0,0.06925467168888666
1812.0,0.06930561233546473
1811.0,0.06930561233546473
1810.0,0.06935655895783555
1809.0,0.06945847013556561
1808.0,0.06950943469373039
1807.0,0.06950943469373039
1806.0,0.06945847013556561
1805.0,0.06940751155740177
1804.0,0.06940751155740177
1803.0,0.06945847013556561
1802.0,0.06961138175567827
1801.0,0.06971335275448043
1800.0,0.06981534770138009
1799.0,0.06986635415888243
1798.0,0.06981534770138009
1797.0,0.06981534770138009
1796.0,0.06976434723371505
1795.0,0.06971335275448043
1794.0,0.06971335275448043
1793.0,0.06966236426227002
1792.0,0.06981534770138009
1791.0,0.06996838504902692
1790.0,0.07007043991541217
1789.0,0.07012147634321675
1788.0,0.07012147634321675
1787.0,0.07012147634321675
1786.0,0.07007043991541217
1785.0,0.07001940948448526
1784.0,0.07001940948448526
1783.0,0.07007043991541217
1782.0,0.07012147634321675
1781.0,0.07022356719509815
1780.0,0.07032568205141221
1779.0,0.07042782092345012
1778.0,0.07037674848475972
1777.0,0.07032568205141221
1776.0,0.0702746216219956
1775.0,0.0702746216219956
1774.0,0.0702746216219956
1773.0,0.0702746216219956
1772.0,0.07037674848475972
1771.0,0.07047889936889606
1770.0,0.07052998382251041
1769.0,0.07047889936889606
1768.0,0.07042782092345012
1767.0,0.07052998382251041
1766.0,0.07063217075990047
1765.0,0.07078549626260622
1764.0,0.07088774334533943
1763.0,0.0709900145060387
1762.0,0.07093887591523451
1761.0,0.07088774334533943
1760.0,0.07088774334533943
1759.0,0.0709900145060387
1758.0,0.07109230975604719
1757.0,0.07119462910671581
1756.0,0.07139934015547578
1755.0,0.07155293679081787
1754.0,0.07170658776779781
1753.0,0.07186029312488018
1752.0,0.07211658966929302
1751.0,0.07242434530888953
1750.0,0.07268097504034388
1749.0,0.07288638806623937
1748.0,0.0729891310243489
1747.0,0.07319468988839395
1746.0,0.07334892291111106
1745.0,0.07350321072677968
1744.0,0.07360609973031784
1743.0,0.07370901311513656
1742.0,0.07381195089279391
1741.0,0.07391491307485598
1740.0,0.07401789967289685
1739.0,0.07412091069849924
1738.0,0.07412091069849924
1737.0,0.07401789967289685
1736.0,0.07386342893255127
1735.0,0.07360609973031784
1734.0,0.07355465218161061
1733.0,0.07386342893255127
1732.0,0.07422394616325367
1731.0,0.07437854520917098
1730.0,0.07432700607875953
1729.0,0.07417242537525759
1728.0,0.07401789967289685
1727.0,0.07396640332115534
1726.0,0.07401789967289685
1725.0,0.07406940213152868
1724.0,0.07417242537525759
1723.0,0.07412091069849924
1722.0,0.07406940213152868
1721.0,0.07406940213152868
1720.0,0.07417242537525759
1719.0,0.07422394616325367
1718.0,0.07422394616325367
1717.0,0.07427547306393745
1716.0,0.07437854520917098
1715.0,0.07437854520917098
1714.0,0.07432700607875953
1713.0,0.07437854520917098
1712.0,0.07443009045662374
1711.0,0.07448164182257
1710.0,0.07453319930846214
1709.0,0.07453319930846214
1708.0,0.07448164182257
1707.0,0.07437854520917098
1706.0,0.07427547306393745
1705.0,0.07427547306393745
1704.0,0.07432700607875953
1703.0,0.07437854520917098
1702.0,0.07437854520917098
1701.0,0.07432700607875953
1700.0,0.07417242537525759
1699.0,0.07412091069849924
1698.0,0.07422394616325367
1697.0,0.07448164182257
1696.0,0.07473949048056472
1695.0,0.07479107858799638
1694.0,0.07468790850035045
1693.0,0.07463633264589853
1692.0,0.07468790850035045
1691.0,0.07468790850035045
1690.0,0.07473949048056472
1689.0,0.07479107858799638
1688.0,0.07489427319033615
1687.0,0.07489427319033615
1686.0,0.0748426728241014
1685.0,0.07479107858799638
1684.0,0.07515236702446293
1683.0,0.07556563645676939
1682.0,0.0756173227980268
1681.0,0.07551395626608493
1680.0,0.07546228222451012
1679.0,0.07535895258283709
1678.0,0.07525564752005143
1677.0,0.07515236702446293
1676.0,0.07499749231902242
1675.0,0.07499749231902242
1674.0,0.07515236702446293
1673.0,0.07535895258283709
1672.0,0.07546228222451012
1671.0,0.07546228222451012
1670.0,0.07541061433058172
1669.0,0.07551395626608493
1668.0,0.07566901529132153
1667.0,0.07566901529132153
1666.0,0.07566901529132153
1665.0,0.07566901529132153
1664.0,0.0756173227980268
1663.0,0.0756173227980268
1662.0,0.0756173227980268
1661.0,0.0756173227980268
1660.0,0.07556563645676939
1659.0,0.07551395626608493
1658.0,0.07551395626608493
1657.0,0.07551395626608493
1656.0,0.0756173227980268
1655.0,0.07577241873988227
1654.0,0.07572071393811841
1653.0,0.07577241873988227
1652.0,0.07577241873988227
1651.0,0.07566901529132153
1650.0,0.07577241873988227
1649.0,0.0760310351245288
1648.0,0.07618627890881036
1647.0,0.07634157820669385
1646.0,0.07644514193245056
1645.0,0.07644514193245056
1644.0,0.0763933569825408
1643.0,0.0763933569825408
1642.0,0.0763933569825408
1641.0,0.07649693305789551
1640.0,0.07654873036034848
1639.0,0.07654873036034848
1638.0,0.07654873036034848
1637.0,0.07644514193245056
1636.0,0.0763933569825408
1635.0,0.0763933569825408
1634.0,0.0763933569825408
1633.0,0.0763933569825408
1632.0,0.07654873036034848
1631.0,0.07665234350217442
1630.0,0.07670415934449615
1629.0,0.07670415934449615
1628.0,0.07665234350217442
1627.0,0.07654873036034848
1626.0,0.07644514193245056
1625.0,0.07628980560343712
1624.0,0.07613452481449845
1623.0,0.0760310351245288
1622.0,0.0760310351245288
1621.0,0.0759792995259323
1620.0,0.07592757008963713
1619.0,0.07592757008963713
1618.0,0.07592757008963713
1617.0,0.07608277688689435
1616.0,0.07634157820669385
1615.0,0.07644514193245056
1614.0,0.07634157820669385
1613.0,0.07623803917129979
1612.0,0.07608277688689435
1611.0,0.0759792995259323
1610.0,0.0759792995259323
1609.0,0.0760310351245288
1608.0,0.0760310351245288
1607.0,0.07608277688689435
1606.0,0.07613452481449845
1605.0,0.07613452481449845
1604.0,0.07618627890881036
1603.0,0.07623803917129979
1602.0,0.07628980560343712
1601.0,0.07628980560343712
1600.0,0.07623803917129979
1599.0,0.07618627890881036
1598.0,0.07608277688689435
1597.0,0.07608277688689435
1596.0,0.07613452481449845
1595.0,0.07623803917129979
1594.0,0.07628980560343712
1593.0,0.07628980560343712
1592.0,0.07623803917129979
1591.0,0.07613452481449845
1590.0,0.07608277688689435
1589.0,0.0759792995259323
1588.0,0.07592757008963713
1587.0,0.07582412969807906
1586.0,0.07582412969807906
1585.0,0.07582412969807906
1584.0,0.07587584681417514
1583.0,0.07587584681417514
1582.0,0.07587584681417514
1581.0,0.07587584681417514
1580.0,0.07587584681417514
1579.0,0.07582412969807906
1578.0,0.07572071393811841
1577.0,0.07551395626608493
1576.0,0.07546228222451012
1575.0,0.07546228222451012
1574.0,0.07546228222451012
1573.0,0.07546228222451012
1572.0,0.07551395626608493
1571.0,0.07551395626608493
1570.0,0.07556563645676939
1569.0,0.07556563645676939
1568.0,0.07556563645676939
1567.0,0.0756173227980268
1566.0,0.0756173227980268
1565.0,0.07566901529132153
1564.0,0.07572071393811841
1563.0,0.07572071393811841
1562.0,0.07572071393811841
1561.0,0.07572071393811841
1560.0,0.07551395626608493
1559.0,0.07520400420208784
1558.0,0.07530729697981409
1557.0,0.07551395626608493
1556.0,0.07572071393811841
1555.0,0.07592757008963713
1554.0,0.0759792995259323
1553.0,0.0759792995259323
1552.0,0.07608277688689435
1551.0,0.07618627890881036
1550.0,0.07618627890881036
1549.0,0.07608277688689435
1548.0,0.0759792995259323
1547.0,0.07587584681417514
1546.0,0.07577241873988227
1545.0,0.07572071393811841
1544.0,0.07572071393811841
1543.0,0.07572071393811841
1542.0,0.07556563645676939
1541.0,0.07535895258283709
1540.0,0.07530729697981409
1539.0,0.07541061433058172
1538.0,0.07535895258283709
1537.0,0.07541061433058172
1536.0,0.07556563645676939
1535.0,0.07572071393811841
1534.0,0.07566901529132153
1533.0,0.07551395626608493
1532.0,0.07535895258283709
1531.0,0.07520400420208784
1530.0,0.07504911108438939
1529.0,0.07494587968815725
1528.0,0.07494587968815725
1527.0,0.07489427319033615
1526.0,0.0748426728241014
1525.0,0.07479107858799638
1524.0,0.0748426728241014
1523.0,0.07489427319033615
1522.0,0.07479107858799638
1521.0,0.07473949048056472
1520.0,0.07479107858799638
1519.0,0.0748426728241014
1518.0,0.07489427319033615
1517.0,0.07489427319033615
1516.0,0.0748426728241014
1515.0,0.07463633264589853
1514.0,0.07437854520917098
1513.0,0.07417242537525759
1512.0,0.07412091069849924
1511.0,0.07412091069849924
1510.0,0.07406940213152868
1509.0,0.07406940213152868
1508.0,0.07412091069849924
1507.0,0.07422394616325367
1506.0,0.07412091069849924
1505.0,0.07381195089279391
1504.0,0.07365755337434488
1503.0,0.07365755337434488
1502.0,0.07360609973031784
1501.0,0.07365755337434488
1500.0,0.07370901311513656
1499.0,0.07370901311513656
1498.0,0.07360609973031784
1497.0,0.07360609973031784
1496.0,0.07391491307485598
1495.0,0.07422394616325367
1494.0,0.07437854520917098
1493.0,0.07458476291575367
1492.0,0.0748426728241014
1491.0,0.0748426728241014
1490.0,0.07448164182257
1489.0,0.07406940213152868
1488.0,0.07370901311513656
1487.0,0.07334892291111106
1486.0,0.07288638806623937
1485.0,0.07268097504034388
1484.0,0.07262963696097646
1483.0,0.07268097504034388
1482.0,0.07262963696097646
1481.0,0.07262963696097646
1480.0,0.07278366940873537
1479.0,0.07304051161972436
1478.0,0.07340034609297241
1477.0,0.07432700607875953
1476.0,0.07587584681417514
1475.0,0.07810552907089763
1474.0,0.08102656950704579
1473.0,0.08549817717268593
1472.0,0.09097914578884403
1471.0,0.09550084460218011
1470.0,0.09930522554760213
1469.0,0.10347378251044459
1468.0,0.10851829616048003
1467.0,0.11441264381034388
1466.0,0.12193801870998744
1465.0,0.13176713157753506
1464.0,0.14218522202899342
1463.0,0.15002808767114995
1462.0,0.1550260618531123
1461.0,0.1583902878315646
1460.0,0.16108797259400132
1459.0,0.16323295260579473
1458.0,0.16545214231905137
1457.0,0.16845014800424418
1456.0,0.1711468403233598
1455.0,0.17224313702138327
1454.0,0.17288931253398876
1453.0,0.17340694606595197
1452.0,0.17353645090719882
1451.0,0.17288931253398876
1450.0,0.1712756728612086
1449.0,0.1683221508085333
1448.0,0.16354928627984533
1447.0,0.15745316350498495
1446.0,0.15125681810431635
1445.0,0.1456939581989194
1444.0,0.1404414273739465
1443.0,0.13560759484941132
1442.0,0.13153190097901324
1441.0,0.12842706445412122
1440.0,0.12621453918179926
1439.0,0.12482294018529605
1438.0,0.12441789567211425
1437.0,0.1249387366082999
1436.0,0.12551818230053358
1435.0,0.125054563914468
1434.0,0.12320502379929943
1433.0,0.12033079436794658
1432.0,0.11679296664760996
1431.0,0.1130019543289007
1430.0,0.10952309103982927
1429.0,0.10662666975397506
1428.0,0.10441172433373724
1427.0,0.10275789719463457
1426.0,0.10154908080162528
1425.0,0.10039834085387778
1424.0,0.09914149529800831
1423.0,0.09810596802617932
1422.0,0.09739886933346864
1421.0,0.09680145295702158
1420.0,0.0960964733098364
1419.0,0.09539263618455207
1418.0,0.09485199814398393
1417.0,0.09431203228814788
1416.0,0.09361107884716913
1415.0,0.09301884677114591
1414.0,0.09248115389337075
1413.0,0.0919441259012328
1412.0,0.09135416109288674
1411.0,0.0908185240221473
1410.0,0.09028354676565531
1409.0,0.08980263003399913
1408.0,0.0892689019566193
1407.0,0.08884239126002336
1406.0,0.0885227828938977
1405.0,0.08820340956274775
1404.0,0.08772478950118767
1403.0,0.0872466963286771
1402.0,0.08692825969074924
1401.0,0.08650404038287651
1400.0,0.08592141461088798
1399.0,0.08539243222891946
1398.0,0.08502252755566908
1397.0,0.08465293767580806
1396.0,0.08402008585977572
1395.0,0.08344078069888616
1394.0,0.08291480935943274
1393.0,0.08244197917456386
1392.0,0.08196966321511989
1391.0,0.08160266115629988
1390.0,0.08139308485501817
1389.0,0.0812359689720008
1388.0,0.08102656950704579
1387.0,0.0812359689720008
1386.0,0.08228448344050654
1385.0,0.08423093401631587
1384.0,0.08756536662442538
1383.0,0.09323411045927221
1382.0,0.10198826120249849
1381.0,0.11435612816423602
1380.0,0.1311792938024825
1379.0,0.15279763601907614
1378.0,0.17730898922394545
1377.0,0.200521601162019
1376.0,0.2181010806488508
1375.0,0.2259942697417905
1374.0,0.22184874961635637
1373.0,0.2089412564081745
1372.0,0.19368433019188647
1371.0,0.17927323717616583
1370.0,0.16596098184053343
1369.0,0.15403423845451636
1368.0,0.14442027749828212
1367.0,0.1375704438939911
1366.0,0.13294519952329842
1365.0,0.13000599987825812
1364.0,0.12842706445412122
1363.0,0.1281352979118051
1362.0,0.12895273869450063
1361.0,0.13053358991913355
1360.0,0.13229686672990226
1359.0,0.13365357725039817
1358.0,0.13406733180681396
1357.0,0.13329924395750092
1356.0,0.1314731132317961
1355.0,0.12883586719705065
1354.0,0.1258081953209289
1353.0,0.12291674334934943
1352.0,0.12044539906102569
1351.0,0.11827306462358211
1350.0,0.11633856484638239
1349.0,0.11463877996848804
1348.0,0.11317099532301778
1347.0,0.11198908775497118
1346.0,0.11092250734993603
1345.0,0.10997041383658313
1344.0,0.10913206118855912
1343.0,0.10840679565103484
1342.0,0.10779405402422748
1341.0,0.10734896612269962
1340.0,0.10695988804288215
1339.0,0.10657115822045493
1338.0,0.1061827760325369
1337.0,0.10573933555301185
1336.0,0.10546241500425357
1335.0,0.10535169620648288
1334.0,0.10540705207704448
1333.0,0.10551778498990938
1332.0,0.10579474085791629
1331.0,0.1060718734573931
1330.0,0.1063491830140364
1329.0,0.10646015643533868
1328.0,0.10640466618011679
1327.0,0.10612732120491852
1326.0,0.10579474085791629
1325.0,0.10535169620648288
1324.0,0.10490910306560064
1323.0,0.10441172433373724
1322.0,0.10397008760377302
1321.0,0.10358402352687701
1320.0,0.10325338439259446
1319.0,0.10303309806684524
1318.0,0.10281292341984649
1317.0,0.10264786565568684
1316.0,0.10253786198693682
1315.0,0.10237290870955862
1314.0,0.1022080180607754
1313.0,0.10198826120249849
1312.0,0.10182351650232357
1311.0,0.10165883427249067
1310.0,0.10171372141087698
1309.0,0.10193333935836524
1308.0,0.10242788617426934
1307.0,0.10314322726279568
1306.0,0.10402526764093545
1305.0,0.10485381062400778
1304.0,0.10540705207704448
1303.0,0.10562854614376227
1302.0,0.10557316203581202
1301.0,0.10535169620648288
1300.0,0.10518567091669917
1299.0,0.1052410056281079
1298.0,0.10540705207704448
1297.0,0.10568393731556158
1296.0,0.10596099919539115
1295.0,0.1060718734573931
1294.0,0.10596099919539115
1293.0,0.10573933555301185
1292.0,0.10546241500425357
1291.0,0.10507502264045665
1290.0,0.1047432468551055
1289.0,0.10446696051592963
1288.0,0.10419084983086901
1287.0,0.10402526764093545
1286.0,0.1038045895457893
1285.0,0.10363915453068362
1284.0,0.10352889952072264
1283.0,0.10341867249426717
1282.0,0.1033635694704158
1281.0,0.10330847343711591
1280.0,0.10330847343711591
1279.0,0.10330847343711591
1278.0,0.10330847343711591
1277.0,0.10325338439259446
1276.0,0.10319830233507843
1275.0,0.10314322726279568
1274.0,0.10308815917397474
1273.0,0.10308815917397474
1272.0,0.10308815917397474
1271.0,0.10314322726279568
1270.0,0.10319830233507843
1269.0,0.10330847343711591
1268.0,0.1033635694704158
1267.0,0.10347378251044459
1266.0,0.10358402352687701
1265.0,0.10369429253391926
1264.0,0.10385974855798041
1263.0,0.10413564875270076
1262.0,0.10441172433373724
1261.0,0.10468797552421272
1260.0,0.10501970907203151
1259.0,0.10546241500425357
1258.0,0.10601643278815298
1257.0,0.10668218838388821
1256.0,0.10718217569042365
1255.0,0.10746019534136453
1254.0,0.10734896612269962
1253.0,0.10695988804288215
1252.0,0.10640466618011679
1251.0,0.10585015323207791
1250.0,0.10546241500425357
1249.0,0.1052410056281079
1248.0,0.10513034325474746
1247.0,0.10513034325474746
1246.0,0.10513034325474746
1245.0,0.10513034325474746
1244.0,0.10507502264045665
1243.0,0.10496440254767725
1242.0,0.10485381062400778
1241.0,0.1047432468551055
1240.0,0.10468797552421272
1239.0,0.10468797552421272
1238.0,0.10468797552421272
1237.0,0.10468797552421272
1236.0,0.10463271122663809
1235.0,0.10463271122663809
1234.0,0.10457745396059215
1233.0,0.10457745396059215
1232.0,0.10457745396059215
1231.0,0.10452220372428545
1230.0,0.10446696051592963
1229.0,0.10441172433373724
1228.0,0.10441172433373724
1227.0,0.10446696051592963
1226.0,0.10457745396059215
1225.0,0.1047432468551055
1224.0,0.10490910306560064
1223.0,0.1052410056281079
1222.0,0.10557316203581202
1221.0,0.10596099919539115
1220.0,0.1063491830140364
1219.0,0.10657115822045493
1218.0,0.10662666975397506
1217.0,0.10657115822045493
1216.0,0.10646015643533868
1215.0,0.1062937069352865
1214.0,0.1060718734573931
1213.0,0.10585015323207791
1212.0,0.10562854614376227
1211.0,0.10546241500425357
1210.0,0.10529634739076998
1209.0,0.10518567091669917
1208.0,0.10513034325474746
1207.0,0.10496440254767725
1206.0,0.10485381062400778
1205.0,0.10479852522110678
1204.0,0.10479852522110678
1203.0,0.10485381062400778
1202.0,0.10496440254767725
1201.0,0.10501970907203151
1200.0,0.10501970907203151
1199.0,0.10507502264045665
1198.0,0.10513034325474746
1197.0,0.10513034325474746
1196.0,0.10507502264045665
1195.0,0.10501970907203151
1194.0,0.10490910306560064
1193.0,0.10479852522110678
1192.0,0.10468797552421272
1191.0,0.10468797552421272
1190.0,0.10468797552421272
1189.0,0.10463271122663809
1188.0,0.10457745396059215
1187.0,0.10452220372428545
1186.0,0.10457745396059215
1185.0,0.10463271122663809
1184.0,0.10468797552421272
1183.0,0.10468797552421272
1182.0,0.10463271122663809
1181.0,0.10463271122663809
1180.0,0.1047432468551055
1179.0,0.10496440254767725
1178.0,0.1052410056281079
1177.0,0.10568393731556158
1176.0,0.10623823794205656
1175.0,0.10701544928928342
1174.0,0.10801676914803293
1173.0,0.10946720807225518
1172.0,0.11142740314240007
1171.0,0.11396072443355765
1170.0,0.11667932161702477
1169.0,0.11924355548978971
1168.0,0.1213058996038916
1167.0,0.12262865413022594
1166.0,0.12314735239865637
1165.0,0.12297438413275108
1164.0,0.12245589228405596
1163.0,0.12170805075020397
1162.0,0.12096149476276286
1161.0,0.1202162199095842
1160.0,0.11958660012208333
1159.0,0.11907213473291511
1158.0,0.11878658374498086
1157.0,0.11867241589944855
1156.0,0.11878658374498086
1155.0,0.11895789180659433
1154.0,0.11907213473291511
1153.0,0.11907213473291511
1152.0,0.1190150095132465
1151.0,0.11878658374498086
1150.0,0.1183871275216517
1149.0,0.11781711236973003
1148.0,0.11713408027837091
1147.0,0.1165089098110701
1146.0,0.11594135290606156
1145.0,0.11548784080960606
1144.0,0.11503480179926728
1143.0,0.11458223488906394
1142.0,0.11407366019856902
1141.0,0.11345287660889425
1140.0,0.1128329791052256
1139.0,0.11221396516162851
1138.0,0.11165198982195101
1137.0,0.11114683301706374
1136.0,0.11075433910702048
1135.0,0.11041819785037621
1134.0,0.11008231656379408
1133.0,0.10974669484546551
1132.0,0.10952309103982927
1131.0,0.10946720807225518
1130.0,0.10952309103982927
1129.0,0.10952309103982927
1128.0,0.10941133229451272
1127.0,0.10935546370475246
1126.0,0.10935546370475246
1125.0,0.10946720807225518
1124.0,0.10963487855187593
1123.0,0.10980261378997125
1122.0,0.10991447328367476
1121.0,0.10991447328367476
1120.0,0.10991447328367476
1119.0,0.10997041383658313
1118.0,0.10997041383658313
1117.0,0.11002636159600376
1116.0,0.11002636159600376
1115.0,0.10997041383658313
1114.0,0.10997041383658313
1113.0,0.10997041383658313
1112.0,0.11008231656379408
1111.0,0.11025022473596224
1110.0,0.11047420332880886
1109.0,0.1106422631110684
1108.0,0.11086644403327606
1107.0,0.11109074073646874
1106.0,0.1114835389250548
1105.0,0.11210151190312767
1104.0,0.11288929687511629
1103.0,0.1137349409702435
1102.0,0.11435612816423602
1101.0,0.11458223488906394
1100.0,0.11446916681190777
1099.0,0.11407366019856902
1098.0,0.11356568037106163
1097.0,0.11311464101399138
1096.0,0.11277666863747693
1095.0,0.11243895906999102
1094.0,0.1120452961911984
1093.0,0.11176432672943282
1092.0,0.1114835389250548
1091.0,0.11131515334030118
1090.0,0.11103465569966264
1089.0,0.11069829749368965
1088.0,0.11041819785037621
1087.0,0.11008231656379408
1086.0,0.1098585399354226
1085.0,0.10963487855187593
1084.0,0.10952309103982927
1083.0,0.10952309103982927
1082.0,0.10957898119908571
1081.0,0.10946720807225518
1080.0,0.10929960230112479
1079.0,0.10907622851098608
1078.0,0.10890877353227624
1077.0,0.10879717273970457
1076.0,0.10868560061785693
1075.0,0.10862982530385179
1074.0,0.10857405715200596
1073.0,0.10868560061785693
1072.0,0.10879717273970457
1071.0,0.10885296955122903
1070.0,0.10885296955122903
1069.0,0.10862982530385179
1068.0,0.10835105612944096
1067.0,0.10812816955441629
1066.0,0.1081838804751396
1065.0,0.10851829616048003
1064.0,0.10890877353227624
1063.0,0.10918790104487552
1062.0,0.10918790104487552
1061.0,0.10896458468468917
1060.0,0.10874138309586101
1059.0,0.10862982530385179
1058.0,0.10868560061785693
1057.0,0.10896458468468917
1056.0,0.10929960230112479
1055.0,0.10957898119908571
1054.0,0.10974669484546551
1053.0,0.10991447328367476
1052.0,0.11019424813191447
1051.0,0.1106422631110684
1050.0,0.11125903931710734
1049.0,0.11198908775497118
1048.0,0.11277666863747693
1047.0,0.11356568037106163
1046.0,0.11435612816423602
1045.0,0.11492161585077598
1044.0,0.11526126223036814
1043.0,0.11543118508166672
1042.0,0.11554450392951199
1041.0,0.11565785235294102
1040.0,0.11582793047608719
1039.0,0.11599807523121286
1038.0,0.11611154211151953
1037.0,0.11616828667054757
1036.0,0.11622503864474187
1035.0,0.11628179803604044
1034.0,0.1163953390777075
1033.0,0.11645212073195621
1032.0,0.1165657063169907
1031.0,0.11662251025166115
1030.0,0.11667932161702477
1029.0,0.11679296664760996
1028.0,0.1169634899723202
1027.0,0.11724784438692004
1026.0,0.11764625361128611
1025.0,0.11815903167507247
1024.0,0.11861534322942724
1023.0,0.11895789180659433
1022.0,0.11930071078129845
1021.0,0.11958660012208333
1020.0,0.11992991593593283
1019.0,0.1203880929341492
1018.0,0.12084675381575383
1017.0,0.12124847982699793
1016.0,0.12147820449879343
1015.0,0.12142076193778073
1014.0,0.12113366304327466
1013.0,0.12067469921519258
1012.0,0.1202162199095842
1011.0,0.11987267778337518
1010.0,0.11952940719622163
1009.0,0.11930071078129845
1008.0,0.11907213473291511
1007.0,0.11890078161098283
1006.0,0.11878658374498086
1005.0,0.1190150095132465
1004.0,0.11958660012208333
1003.0,0.1207320431753871
1002.0,0.12251347193039863
1001.0,0.125054563914468
1000.0,0.12819363554127072
999.0,0.13141433344123432
998.0,0.13394907599072514
997.0,0.13501453934020602
996.0,0.1345998818206986
995.0,0.13300418688935212
994.0,0.1308856730206247
993.0,0.1287190271420271
992.0,0.12679569072295926
991.0,0.1251124891538875
990.0,0.1236666709136196
989.0,0.12262865413022594
988.0,0.12193801870998744
987.0,0.12147820449879343
986.0,0.12101887660626365
985.0,0.1207320431753871
984.0,0.12056003400478299
983.0,0.12061736282565727
982.0,0.12096149476276286
981.0,0.12159311241900439
980.0,0.12262865413022594
979.0,0.12418661116024232
978.0,0.12644690648638135
977.0,0.12953756841108
976.0,0.13335827943396006
975.0,0.1375704438939911
974.0,0.14140265500530758
973.0,0.14423862766005224
972.0,0.14532966810466452
971.0,0.1446020033459312
970.0,0.14242629585250421
969.0,0.13954220457652888
968.0,0.1367961409713705
967.0,0.13448148092522594
966.0,0.13259144347720886
965.0,0.13106182166708868
964.0,0.12983027886355947
963.0,0.12889429901441463
962.0,0.1283103343144847
961.0,0.12796033202671375
960.0,0.12761061158217912
959.0,0.12714475529518965
958.0,0.126621263590859
957.0,0.126156466776564
956.0,0.1258081953209289
955.0,0.12557616941349803
954.0,0.12540223129680017
953.0,0.1252863112422209
952.0,0.12517042212027807
951.0,0.1251124891538875
950.0,0.125054563914468
949.0,0.124996646399959
948.0,0.125054563914468
947.0,0.12517042212027807
946.0,0.12522836281570182
945.0,0.1252863112422209
944.0,0.12534426740189897
943.0,0.12551818230053358
942.0,0.12575017722159698
941.0,0.1260984021355387
940.0,0.12650501774383094
939.0,0.1267375405612734
938.0,0.12667939818460128
937.0,0.12627261935332057
936.0,0.12575017722159698
935.0,0.12540223129680017
934.0,0.12517042212027807
933.0,0.124996646399959
932.0,0.12482294018529605
931.0,0.1244757360506914
930.0,0.12418661116024232
929.0,0.12401322857151209
928.0,0.12407101507707297
927.0,0.12436006299583169
926.0,0.12464930342071079
925.0,0.12476505354983503
924.0,0.12470717462899183
923.0,0.12464930342071079
922.0,0.12459143992293642
921.0,0.12453358413361437
920.0,0.1244757360506914
919.0,0.1244757360506914
918.0,0.12453358413361437
917.0,0.12464930342071079
916.0,0.1248808345374317
915.0,0.124996646399959
914.0,0.1249387366082999
913.0,0.12482294018529605
912.0,0.12482294018529605
911.0,0.1248808345374317
910.0,0.1249387366082999
909.0,0.1251124891538875
908.0,0.12522836281570182
907.0,0.12540223129680017
906.0,0.12557616941349803
905.0,0.12604034525664676
904.0,0.12697018793895576
903.0,0.1283103343144847
902.0,0.13006458935314003
901.0,0.1320613491092153
900.0,0.1340081998737246
899.0,0.13554825284181704
898.0,0.1363797797296844
897.0,0.1363797797296844
896.0,0.13566694496660703
895.0,0.134659094375416
894.0,0.13359450162194508
893.0,0.13265038281120756
892.0,0.13194363817695853
891.0,0.13135556160517425
890.0,0.1308269726783169
889.0,0.13041629228657614
888.0,0.13018179202067182
887.0,0.13006458935314003
886.0,0.12994741830645506
885.0,0.12977172098820566
884.0,0.12965462891904034
883.0,0.1295960947209729
882.0,0.1295960947209729
881.0,0.1295960947209729
880.0,0.1295960947209729
879.0,0.12965462891904034
878.0,0.12983027886355947
877.0,0.13012318673323353
876.0,0.13041629228657614
875.0,0.13053358991913355
874.0,0.1304749371427727
873.0,0.13041629228657614
872.0,0.13041629228657614
871.0,0.1302990263261221
870.0,0.13018179202067182
869.0,0.13012318673323353
868.0,0.13018179202067182
867.0,0.13035765534840538
866.0,0.13053358991913355
865.0,0.1306509192409071
864.0,0.13070959579060148
863.0,0.13076828026902376
862.0,0.1308269726783169
861.0,0.1308856730206247
860.0,0.13100309751286465
859.0,0.13100309751286465
858.0,0.13094438129809216
857.0,0.13094438129809216
856.0,0.13106182166708868
855.0,0.1312967977214634
854.0,0.13153190097901324
853.0,0.1316495003520317
852.0,0.13182595914036166
851.0,0.1318847946727828
850.0,0.1318847946727828
849.0,0.13194363817695853
848.0,0.13212021654162043
847.0,0.13270933014511588
846.0,0.13365357725039817
845.0,0.13519237097385295
844.0,0.13780896894840278
843.0,0.1414628024303608
842.0,0.1455724942121388
841.0,0.14868048735125483
840.0,0.14966014541652073
839.0,0.14837479684669086
838.0,0.1456332219591303
837.0,0.14290884532648618
836.0,0.14086170270546927
835.0,0.13954220457652888
834.0,0.13870460647330418
833.0,0.1381073096085541
832.0,0.13768969004572962
831.0,0.1373320497714121
830.0,0.1370342410222376
829.0,0.13673663634951905
828.0,0.13655817138629134
827.0,0.13643923547375736
826.0,0.13649869935854997
825.0,0.13655817138629134
824.0,0.1366771398795441
823.0,0.13685565374733244
822.0,0.13697470377052956
821.0,0.13697470377052956
820.0,0.13685565374733244
819.0,0.1367961409713705
818.0,0.13685565374733244
817.0,0.13709378643700187
816.0,0.1374512304752069
815.0,0.13798794874978348
814.0,0.1387643813659596
813.0,0.13990167030148193
812.0,0.1414628024303608
811.0,0.14339193156306385
810.0,0.14539036190420496
809.0,0.14697138528701026
808.0,0.1478861391502384
807.0,0.1480693213597324
806.0,0.14752000636314366
805.0,0.1465451586319333
804.0,0.14545106418704923
803.0,0.14454141961396383
802.0,0.1438755557576996
801.0,0.14357322752975565
800.0,0.14345235514325205
799.0,0.14321071124668383
798.0,0.1427881576831076
797.0,0.1423660148499919
796.0,0.14212497447643746
795.0,0.1419442819496357
794.0,0.14170347546611461
793.0,0.14140265500530758
792.0,0.14110204276799654
791.0,0.14086170270546927
790.0,0.14068153490288382
789.0,0.1405014418122239
788.0,0.1404414273739465
787.0,0.1405014418122239
786.0,0.1407415825326932
785.0,0.1409818561111058
784.0,0.14122226269455074
783.0,0.1413425159091921
782.0,0.1413425159091921
781.0,0.1413425159091921
780.0,0.14128238513970826
779.0,0.14116214857141451
778.0,0.1409217752530305
777.0,0.1407415825326932
776.0,0.1407415825326932
775.0,0.1409818561111058
774.0,0.14140265500530758
773.0,0.141884067809934
772.0,0.14224547794055775
771.0,0.1425468829647336
770.0,0.1427278264359586
769.0,0.14284849731250704
768.0,0.1427881576831076
767.0,0.14266750356873148
766.0,0.14260718907909875
765.0,0.14296920172737604
764.0,0.14375459920994582
763.0,0.14454141961396383
762.0,0.14496568332411575
761.0,0.14514763758216587
760.0,0.14514763758216587
759.0,0.14526898278605782
758.0,0.14551177495556966
757.0,0.1459369881335788
756.0,0.14642345638035836
755.0,0.14697138528701026
754.0,0.14733705565543076
753.0,0.14745901423020125
752.0,0.14733705565543076
751.0,0.14684956355215717
750.0,0.1461193498754576
749.0,0.14545106418704923
748.0,0.14520830594601453
747.0,0.14539036190420496
746.0,0.1456939581989194
745.0,0.14599776687301103
744.0,0.1463626180414057
743.0,0.14666689499766483
742.0,0.14684956355215717
741.0,0.14684956355215717
740.0,0.14672777597931685
739.0,0.14666689499766483
738.0,0.146788665496683
737.0,0.1471541819850033
736.0,0.1475810070629986
735.0,0.1478861391502384
734.0,0.1480693213597324
733.0,0.14861933203440336
732.0,0.1497214474819628
731.0,0.15113378850522063
730.0,0.15242734085788778
729.0,0.15304467498017615
728.0,0.15304467498017615
727.0,0.15292113793428452
726.0,0.15285938258659382
725.0,0.15298290206464582
724.0,0.15304467498017615
723.0,0.15323004646278116
722.0,0.1538485234711846
721.0,0.15539858037365328
720.0,0.1577028656719348
719.0,0.15970566838856382
718.0,0.16058480731610647
717.0,0.1602706247936121
716.0,0.1590787998012282
715.0,0.15757799664235028
714.0,0.15614457737683884
713.0,0.15527437202677397
712.0,0.15508812608785938
711.0,0.15539858037365328
710.0,0.1558335895497993
709.0,0.1562690348879079
708.0,0.15664262156204445
707.0,0.15689185800039307
706.0,0.15695418946543072
705.0,0.15714123755470633
704.0,0.15782777061438424
703.0,0.1590787998012282
702.0,0.16089921729284673
701.0,0.16285365609093994
700.0,0.16481693015095633
699.0,0.16634300310712757
698.0,0.16717187046064663
697.0,0.16704424939540163
696.0,0.16627930955536674
695.0,0.16494389827988365
694.0,0.16316971351112097
693.0,0.16115090926274478
692.0,0.15939212099070987
691.0,0.15826522102525642
690.0,0.1577028656719348
689.0,0.1577028656719348
688.0,0.15807768832054925
687.0,0.15845283474344662
686.0,0.158765704493959
685.0,0.15882830550046778
684.0,0.15857795559764076
683.0,0.15789023655938994
682.0,0.15695418946543072
681.0,0.15639352807548912
680.0,0.15633127702085625
679.0,0.15664262156204445
678.0,0.1567049172634929
677.0,0.1565180569600424
676.0,0.1565180569600424
675.0,0.15689185800039307
674.0,0.1576404266693252
673.0,0.15857795559764076
672.0,0.15932943866659088
671.0,0.15926676538819318
670.0,0.15757799664235028
669.0,0.1531682471767426
668.0,0.1479471913021495
667.0,0.14800825203784274
666.0,0.15224231160766877
665.0,0.15552282425431851
664.0,0.15726598105173029
663.0,0.15795271149036205
662.0,0.15801519540988607
661.0,0.15757799664235028
660.0,0.15695418946543072
659.0,0.1562068016740874
658.0,0.15564710368910672
657.0,0.15558495952617557
656.0,0.15589576930248672
655.0,0.1560823619936076
654.0,0.1559579579589836
653.0,0.15558495952617557
652.0,0.15490195998574308
651.0,0.15366288787019466
650.0,0.15211900255462485
649.0,0.15101079374883275
648.0,0.15107228677292173
647.0,0.15193410459600853
646.0,0.15267416921457633
645.0,0.1527358982292355
644.0,0.15261244897260462
643.0,0.15255073750082726
642.0,0.15310645668337486
641.0,0.15446788250642451
640.0,0.15682953548010214
639.0,0.160145015398115
638.0,0.16386585053462532
637.0,0.16800232276410365
636.0,0.17204947169736973
635.0,0.17444406770964305
634.0,0.17340694606595197
633.0,0.16941133131485575
632.0,0.16551571466519466
631.0,0.16411926818260536
630.0,0.16462654752999129
629.0,0.16475346000368907
628.0,0.163359458427226
627.0,0.16083631708534996
626.0,0.1588909155318461
625.0,0.15895353459069628
624.0,0.16064767110457878
623.0,0.16247469055039865
622.0,0.1627904721987936
621.0,0.16159172150581314
620.0,0.15970566838856382
619.0,0.15832774992636556
618.0,0.15776531365276036
617.0,0.15795271149036205
616.0,0.15864052954514496
615.0,0.15945481236316117
614.0,0.1600822243213189
613.0,0.16045910703103106
612.0,0.16058480731610647
611.0,0.16045910703103106
610.0,0.1605219526258017
609.0,0.16133977401105848
608.0,0.16291684917681404
607.0,0.16418264570652719
606.0,0.1637391971415132
605.0,0.16203298163134527
604.0,0.16077342598656452
603.0,0.16127680996862814
602.0,0.16329620091026875
601.0,0.165261481096159
600.0,0.16589734428720626
