cm-1,A
4000.0,0.11390426756225258
3999.0,0.1138478180292033
3998.0,0.1137349409702435
3997.0,0.11367851344052027
3996.0,0.11356568037106163
3995.0,0.11356568037106163
3994.0,0.1136220932414278
3993.0,0.11367851344052027
3992.0,0.11379137583250243
3991.0,0.11379137583250243
3990.0,0.11379137583250243
3989.0,0.1137349409702435
3988.0,0.11367851344052027
3987.0,0.11356568037106163
3986.0,0.11345287660889425
3985.0,0.1133401021387972
3984.0,0.11328372588352176
3983.0,0.1133401021387972
3982.0,0.11350927482751816
3981.0,0.1136220932414278
3980.0,0.1136220932414278
3979.0,0.1136220932414278
3978.0,0.11367851344052027
3977.0,0.11379137583250243
3976.0,0.1138478180292033
3975.0,0.11396072443355765
3974.0,0.11401718864502697
3973.0,0.1141301390960936
3972.0,0.11418662533951118
3971.0,0.11424311893073247
3970.0,0.11429961987167014
3969.0,0.11418662533951118
3968.0,0.1141301390960936
3967.0,0.11401718864502697
3966.0,0.11396072443355765
3965.0,0.11390426756225258
3964.0,0.11390426756225258
3963.0,0.1141301390960936
3962.0,0.11441264381034388
3961.0,0.11463877996848804
3960.0,0.11463877996848804
3959.0,0.1145256971708426
3958.0,0.11435612816423602
3957.0,0.11429961987167014
3956.0,0.11441264381034388
3955.0,0.11446916681190777
3954.0,0.11446916681190777
3953.0,0.11429961987167014
3952.0,0.11407366019856902
3951.0,0.1138478180292033
3950.0,0.11379137583250243
3949.0,0.11379137583250243
3948.0,0.1138478180292033
3947.0,0.1138478180292033
3946.0,0.1138478180292033
3945.0,0.11407366019856902
3944.0,0.1145256971708426
3943.0,0.1149782051377024
3942.0,0.11520463605101905
3941.0,0.1149782051377024
3940.0,0.11469533241103202
3939.0,0.1145256971708426
3938.0,0.1145256971708426
3937.0,0.11458223488906394
3936.0,0.11446916681190777
3935.0,0.11435612816423602
3934.0,0.11418662533951118
3933.0,0.11401718864502697
3932.0,0.11390426756225258
3931.0,0.11401718864502697
3930.0,0.11418662533951118
3929.0,0.11418662533951118
3928.0,0.11396072443355765
3927.0,0.11350927482751816
3926.0,0.11317099532301778
3925.0,0.1130019543289007
3924.0,0.112945621949043
3923.0,0.11311464101399138
3922.0,0.11350927482751816
3921.0,0.11396072443355765
3920.0,0.1141301390960936
3919.0,0.11407366019856902
3918.0,0.11418662533951118
3917.0,0.11458223488906394
3916.0,0.11514801725400226
3915.0,0.11554450392951199
3914.0,0.11582793047608719
3913.0,0.11622503864474187
3912.0,0.11645212073195621
3911.0,0.1165657063169907
3910.0,0.1165657063169907
3909.0,0.11633856484638239
3908.0,0.11594135290606156
3907.0,0.11520463605101905
3906.0,0.11429961987167014
3905.0,0.11345287660889425
3904.0,0.1128329791052256
3903.0,0.1125514997500463
3902.0,0.11288929687511629
3901.0,0.1138478180292033
3900.0,0.11526126223036814
3899.0,0.11633856484638239
3898.0,0.11662251025166115
3897.0,0.11645212073195621
3896.0,0.11611154211151953
3895.0,0.1157145376603248
3894.0,0.11520463605101905
3893.0,0.114865033936566
3892.0,0.11509140583739286
3891.0,0.11582793047608719
3890.0,0.11611154211151953
3889.0,0.11577123036739612
3888.0,0.11577123036739612
3887.0,0.1163953390777075
3886.0,0.11679296664760996
3885.0,0.1163953390777075
3884.0,0.11537453674376552
3883.0,0.1145256971708426
3882.0,0.11458223488906394
3881.0,0.11514801725400226
3880.0,0.11560117444331386
3879.0,0.11577123036739612
3878.0,0.11565785235294102
3877.0,0.11577123036739612
3876.0,0.11622503864474187
3875.0,0.11633856484638239
3874.0,0.1157145376603248
3873.0,0.11469533241103202
3872.0,0.11418662533951118
3871.0,0.1148084593931522
3870.0,0.11582793047608719
3869.0,0.11588463798833115
3868.0,0.11503480179926728
3867.0,0.1145256971708426
3866.0,0.11509140583739286
3865.0,0.11543118508166672
3864.0,0.11509140583739286
3863.0,0.1149782051377024
3862.0,0.11548784080960606
3861.0,0.11599807523121286
3860.0,0.11594135290606156
3859.0,0.11543118508166672
3858.0,0.11475189221861393
3857.0,0.11429961987167014
3856.0,0.11401718864502697
3855.0,0.11390426756225258
3854.0,0.1141301390960936
3853.0,0.11463877996848804
3852.0,0.11429961987167014
3851.0,0.11288929687511629
3850.0,0.112945621949043
3849.0,0.11463877996848804
3848.0,0.11599807523121286
3847.0,0.1165657063169907
3846.0,0.11667932161702477
3845.0,0.11645212073195621
3844.0,0.11594135290606156
3843.0,0.11520463605101905
3842.0,0.11429961987167014
3841.0,0.11367851344052027
3840.0,0.11356568037106163
3839.0,0.11390426756225258
3838.0,0.11441264381034388
3837.0,0.114865033936566
3836.0,0.11492161585077598
3835.0,0.11492161585077598
3834.0,0.11543118508166672
3833.0,0.1163953390777075
3832.0,0.11736163830396129
3831.0,0.11770319906234805
3830.0,0.11758931562603192
3829.0,0.11741854644554883
3828.0,0.1175323851046286
3827.0,0.11770319906234805
3826.0,0.1174754620451195
3825.0,0.11662251025166115
3824.0,0.11577123036739612
3823.0,0.11565785235294102
3822.0,0.11616828667054757
3821.0,0.116736140415026
3820.0,0.11679296664760996
3819.0,0.11622503864474187
3818.0,0.11633856484638239
3817.0,0.1174754620451195
3816.0,0.11833009232793867
3815.0,0.11798803837334138
3814.0,0.11713408027837091
3813.0,0.1170772093974013
3812.0,0.11804502866039956
3811.0,0.11867241589944855
3810.0,0.11861534322942724
3809.0,0.1183871275216517
3808.0,0.11844417020668851
3807.0,0.11844417020668851
3806.0,0.1175323851046286
3805.0,0.11599807523121286
3804.0,0.11514801725400226
3803.0,0.11554450392951199
3802.0,0.11616828667054757
3801.0,0.11633856484638239
3800.0,0.11588463798833115
3799.0,0.11548784080960606
3798.0,0.11616828667054757
3797.0,0.11758931562603192
3796.0,0.11844417020668851
3795.0,0.11861534322942724
3794.0,0.11867241589944855
3793.0,0.1190150095132465
3792.0,0.11947222180119477
3791.0,0.11970100857424737
3790.0,0.11975822410451964
3789.0,0.11981544717356662
3788.0,0.11975822410451964
3787.0,0.11952940719622163
3786.0,0.11930071078129845
3785.0,0.11924355548978971
3784.0,0.11912926746757657
3783.0,0.11878658374498086
3782.0,0.11850122038501709
3781.0,0.11844417020668851
3780.0,0.11844417020668851
3779.0,0.11850122038501709
3778.0,0.11850122038501709
3777.0,0.11861534322942724
3776.0,0.1190150095132465
3775.0,0.11952940719622163
3774.0,0.11970100857424737
3773.0,0.11952940719622163
3772.0,0.11941504393502012
3771.0,0.11958660012208333
3770.0,0.11964380058076385
3769.0,0.11935787359571504
3768.0,0.11895789180659433
3767.0,0.11895789180659433
3766.0,0.11947222180119477
3765.0,0.11992991593593283
3764.0,0.11987267778337518
3763.0,0.11964380058076385
3762.0,0.11970100857424737
3761.0,0.11987267778337518
3760.0,0.11970100857424737
3759.0,0.11930071078129845
3758.0,0.11912926746757657
3757.0,0.11895789180659433
3756.0,0.11850122038501709
3755.0,0.11810202642698875
3754.0,0.11781711236973003
3753.0,0.11741854644554883
3752.0,0.11667932161702477
3751.0,0.1163953390777075
3750.0,0.1170772093974013
3749.0,0.11730473761840288
3748.0,0.11633856484638239
3747.0,0.11582793047608719
3746.0,0.1169634899723202
3745.0,0.11884367892443626
3744.0,0.1199871616332282
3743.0,0.11935787359571504
3742.0,0.11798803837334138
3741.0,0.11793105556385153
3740.0,0.11855827805860697
3739.0,0.1183871275216517
3738.0,0.11758931562603192
3737.0,0.1169634899723202
3736.0,0.11679296664760996
3735.0,0.11702034596270106
3734.0,0.11776015198117662
3733.0,0.11884367892443626
3732.0,0.11981544717356662
3731.0,0.11992991593593283
3730.0,0.11952940719622163
3729.0,0.11952940719622163
3728.0,0.12004441487725082
3727.0,0.1203880929341492
3726.0,0.1201016756699902
3725.0,0.11941504393502012
3724.0,0.1190150095132465
3723.0,0.11912926746757657
3722.0,0.11952940719622163
3721.0,0.11992991593593283
3720.0,0.1203880929341492
3719.0,0.1207893947082408
3718.0,0.12101887660626365
3717.0,0.12084675381575383
3716.0,0.12027350336042275
3715.0,0.11970100857424737
3714.0,0.11924355548978971
3713.0,0.11878658374498086
3712.0,0.1183871275216517
3711.0,0.11850122038501709
3710.0,0.11918640771920863
3709.0,0.11981544717356662
3708.0,0.12033079436794658
3707.0,0.1207320431753871
3706.0,0.12096149476276286
3705.0,0.12096149476276286
3704.0,0.12107626603243293
3703.0,0.1213058996038916
3702.0,0.12170805075020397
3701.0,0.12188051530283239
3700.0,0.12170805075020397
3699.0,0.12136332697348307
3698.0,0.12142076193778073
3697.0,0.12182301950849372
3696.0,0.1219955297319748
3695.0,0.12170805075020397
3694.0,0.12119106764079435
3693.0,0.12050271275057156
3692.0,0.11952940719622163
3691.0,0.11867241589944855
3690.0,0.11855827805860697
3689.0,0.11930071078129845
3688.0,0.1199871616332282
3687.0,0.11987267778337518
3686.0,0.11987267778337518
3685.0,0.12067469921519258
3684.0,0.12176553132495593
3683.0,0.12216810850710624
3682.0,0.12182301950849372
3681.0,0.1213058996038916
3680.0,0.1207320431753871
3679.0,0.11981544717356662
3678.0,0.11884367892443626
3677.0,0.11844417020668851
3676.0,0.11890078161098283
3675.0,0.11964380058076385
3674.0,0.11958660012208333
3673.0,0.11884367892443626
3672.0,0.11918640771920863
3671.0,0.12004441487725082
3670.0,0.1203880929341492
3669.0,0.12067469921519258
3668.0,0.12113366304327466
3667.0,0.12170805075020397
3666.0,0.12251347193039863
3665.0,0.12297438413275108
3664.0,0.12303203256741524
3663.0,0.12297438413275108
3662.0,0.12308968865537295
3661.0,0.12326270285933538
3660.0,0.12320502379929943
3659.0,0.12303203256741524
3658.0,0.12297438413275108
3657.0,0.12320502379929943
3656.0,0.12343578601615435
3655.0,0.12320502379929943
3654.0,0.12257105921178035
3653.0,0.12222565000860186
3652.0,0.1219955297319748
3651.0,0.12124847982699793
3650.0,0.1202162199095842
3649.0,0.1201016756699902
3648.0,0.12096149476276286
3647.0,0.12147820449879343
3646.0,0.12176553132495593
3645.0,0.12239832027072817
3644.0,0.12326270285933538
3643.0,0.12401322857151209
3642.0,0.12441789567211425
3641.0,0.12459143992293642
3640.0,0.12482294018529605
3639.0,0.125054563914468
3638.0,0.125054563914468
3637.0,0.12470717462899183
3636.0,0.12441789567211425
3635.0,0.12436006299583169
3634.0,0.12441789567211425
3633.0,0.12430223801979201
3632.0,0.12412880927263426
3631.0,0.12441789567211425
3630.0,0.124996646399959
3629.0,0.12575017722159698
3628.0,0.12644690648638135
3627.0,0.12638880300353272
3626.0,0.12604034525664676
3625.0,0.12627261935332057
3624.0,0.12650501774383094
3623.0,0.126156466776564
3622.0,0.12563416426995122
3621.0,0.12517042212027807
3620.0,0.12482294018529605
3619.0,0.12453358413361437
3618.0,0.12436006299583169
3617.0,0.12424442074194553
3616.0,0.12424442074194553
3615.0,0.1244757360506914
3614.0,0.12470717462899183
3613.0,0.12476505354983503
3612.0,0.12482294018529605
3611.0,0.1251124891538875
3610.0,0.12575017722159698
3609.0,0.12650501774383094
3608.0,0.12702836926155658
3607.0,0.12743585690934855
3606.0,0.1277271537757949
3605.0,0.12784372725170723
3604.0,0.1277271537757949
3603.0,0.12731939284807026
3602.0,0.12679569072295926
3601.0,0.12638880300353272
3600.0,0.12627261935332057
3599.0,0.12638880300353272
3598.0,0.12650501774383094
3597.0,0.126621263590859
3596.0,0.1267375405612734
3595.0,0.12691201440971422
3594.0,0.12714475529518965
3593.0,0.12731939284807026
3592.0,0.12726117252733116
3591.0,0.12702836926155658
3590.0,0.12667939818460128
3589.0,0.12621453918179926
3588.0,0.1258081953209289
3587.0,0.12592425477696523
3586.0,0.126621263590859
3585.0,0.12743585690934855
3584.0,0.12819363554127072
3583.0,0.1287190271420271
3582.0,0.12883586719705065
3581.0,0.12866061890013913
3580.0,0.12836869546244634
3579.0,0.1280769681176266
3578.0,0.12784372725170723
3577.0,0.12761061158217912
3576.0,0.1276688787697493
3575.0,0.1280186461566306
3574.0,0.1286022185125162
3573.0,0.1290696416513042
3572.0,0.12912810493225724
3571.0,0.1287190271420271
3570.0,0.12796033202671375
3569.0,0.12720296001040166
3568.0,0.12650501774383094
3567.0,0.12627261935332057
3566.0,0.12656313677796316
3565.0,0.12702836926155658
3564.0,0.1276688787697493
3563.0,0.12836869546244634
3562.0,0.12901118623942476
3561.0,0.1294790499872358
3560.0,0.12977172098820566
3559.0,0.13006458935314003
3558.0,0.1302990263261221
3557.0,0.1304749371427727
3556.0,0.1304749371427727
3555.0,0.13035765534840538
3554.0,0.13024040521758962
3553.0,0.13018179202067182
3552.0,0.13012318673323353
3551.0,0.12994741830645506
3550.0,0.1295960947209729
3549.0,0.12924505510985984
3548.0,0.12912810493225724
3547.0,0.12930354201075
3546.0,0.12965462891904034
3545.0,0.13018179202067182
3544.0,0.1306509192409071
3543.0,0.13106182166708868
3542.0,0.13135556160517425
3541.0,0.13159069668503998
3540.0,0.1316495003520317
3539.0,0.13159069668503998
3538.0,0.13153190097901324
3537.0,0.13170831198214428
3536.0,0.13194363817695853
3535.0,0.1320613491092153
3534.0,0.1320613491092153
3533.0,0.13194363817695853
3532.0,0.13176713157753506
3531.0,0.1314731132317961
3530.0,0.1311792938024825
3529.0,0.1308856730206247
3528.0,0.1305922506177981
3527.0,0.13035765534840538
3526.0,0.1302990263261221
3525.0,0.1305922506177981
3524.0,0.13100309751286465
3523.0,0.13153190097901324
3522.0,0.1318847946727828
3521.0,0.132179091954427
3520.0,0.13247358880025661
3519.0,0.13259144347720886
3518.0,0.1325325121409484
3517.0,0.13241467345296387
3516.0,0.13235576609690147
3515.0,0.13241467345296387
3514.0,0.1325325121409484
3513.0,0.13229686672990226
3512.0,0.1318847946727828
3511.0,0.1314731132317961
3510.0,0.13141433344123432
3509.0,0.13170831198214428
3508.0,0.13212021654162043
3507.0,0.13229686672990226
3506.0,0.132179091954427
3505.0,0.13200248965504868
3504.0,0.1320613491092153
3503.0,0.13241467345296387
3502.0,0.13300418688935212
3501.0,0.13335827943396006
3500.0,0.13335827943396006
3499.0,0.1331221856625011
3498.0,0.13288622016802298
3497.0,0.13276828548110586
3496.0,0.13276828548110586
3495.0,0.13294519952329842
3494.0,0.13306318226836056
3493.0,0.13300418688935212
3492.0,0.13282724882135022
3491.0,0.13259144347720886
3490.0,0.13247358880025661
3489.0,0.13241467345296387
3488.0,0.1325325121409484
3487.0,0.13276828548110586
3486.0,0.13294519952329842
3485.0,0.13300418688935212
3484.0,0.13294519952329842
3483.0,0.13276828548110586
3482.0,0.13265038281120756
3481.0,0.13265038281120756
3480.0,0.13294519952329842
3479.0,0.13335827943396006
3478.0,0.13365357725039817
3477.0,0.13365357725039817
3476.0,0.13324021650489182
3475.0,0.13265038281120756
3474.0,0.13241467345296387
3473.0,0.13265038281120756
3472.0,0.13318119707395182
3471.0,0.13383085236622927
3470.0,0.1341264717921853
3469.0,0.13418561983203192
3468.0,0.1340081998737246
3467.0,0.13394907599072514
3466.0,0.13388996015562338
3465.0,0.1340081998737246
3464.0,0.1341264717921853
3463.0,0.13430394008392943
3462.0,0.13448148092522594
3461.0,0.134659094375416
3460.0,0.13483678049391368
3459.0,0.13501453934020602
3458.0,0.1350738084609946
3457.0,0.1350738084609946
3456.0,0.13501453934020602
3455.0,0.13513308567147386
3454.0,0.13560759484941132
3453.0,0.13626089265478303
3452.0,0.13685565374733244
3451.0,0.13709378643700187
3450.0,0.13697470377052956
3449.0,0.1366771398795441
3448.0,0.13632033212410222
3447.0,0.1360232160956132
3446.0,0.13596381727422502
3445.0,0.1360826230421397
3444.0,0.13649869935854997
3443.0,0.13709378643700187
3442.0,0.13763006287711765
3441.0,0.13792828062000573
3440.0,0.1380476250785483
3439.0,0.13792828062000573
3438.0,0.13774932540207496
3437.0,0.13763006287711765
3436.0,0.13768969004572962
3435.0,0.13798794874978348
3434.0,0.13822670328130693
3433.0,0.1384058553561347
3432.0,0.13858508136400327
3431.0,0.1387643813659596
3430.0,0.13894375542312654
3429.0,0.13918303613546223
3428.0,0.13936258322624528
3427.0,0.13954220457652888
3426.0,0.1396619934290062
3425.0,0.13978181533124334
3424.0,0.13978181533124334
3423.0,0.1397219002477652
3422.0,0.13948232253825377
3421.0,0.13924287691845794
3420.0,0.13912320359670227
3419.0,0.13918303613546223
3418.0,0.1394224487555844
3417.0,0.1396619934290062
3416.0,0.1396619934290062
3415.0,0.1394224487555844
3414.0,0.1390633792999063
3413.0,0.13870460647330418
3412.0,0.13864483980673992
3411.0,0.1387643813659596
3410.0,0.1388839558386048
3409.0,0.1388839558386048
3408.0,0.13864483980673992
3407.0,0.13828641242856565
3406.0,0.1380476250785483
3405.0,0.1380476250785483
3404.0,0.13822670328130693
3403.0,0.13846558914096208
3402.0,0.13864483980673992
3401.0,0.13864483980673992
3400.0,0.13858508136400327
3399.0,0.13858508136400327
3398.0,0.13864483980673992
3397.0,0.13864483980673992
3396.0,0.13846558914096208
3395.0,0.13816700234205515
3394.0,0.13786862068696282
3393.0,0.13763006287711765
3392.0,0.13751083309410284
3391.0,0.1374512304752069
3390.0,0.1374512304752069
3389.0,0.13739163603505822
3388.0,0.1373320497714121
3387.0,0.1374512304752069
3386.0,0.13768969004572962
3385.0,0.13798794874978348
3384.0,0.1380476250785483
3383.0,0.13798794874978348
3382.0,0.13792828062000573
3381.0,0.13786862068696282
3380.0,0.13780896894840278
3379.0,0.13768969004572962
3378.0,0.1375704438939911
3377.0,0.13751083309410284
3376.0,0.1375704438939911
3375.0,0.13780896894840278
3374.0,0.1380476250785483
3373.0,0.1381073096085541
3372.0,0.13798794874978348
3371.0,0.13774932540207496
3370.0,0.1375704438939911
3369.0,0.1375704438939911
3368.0,0.13774932540207496
3367.0,0.13798794874978348
3366.0,0.1381073096085541
3365.0,0.13786862068696282
3364.0,0.1374512304752069
3363.0,0.1370342410222376
3362.0,0.13685565374733244
3361.0,0.1369151746796402
3360.0,0.13721290176465573
3359.0,0.1374512304752069
3358.0,0.13763006287711765
3357.0,0.13774932540207496
3356.0,0.13786862068696282
3355.0,0.13798794874978348
3354.0,0.1381073096085541
3353.0,0.1381073096085541
3352.0,0.1381073096085541
3351.0,0.13816700234205515
3350.0,0.13828641242856565
3349.0,0.13834612978608907
3348.0,0.13828641242856565
3347.0,0.13798794874978348
3346.0,0.13768969004572962
3345.0,0.13763006287711765
3344.0,0.13780896894840278
3343.0,0.13816700234205515
3342.0,0.13834612978608907
3341.0,0.13828641242856565
3340.0,0.13792828062000573
3339.0,0.1375704438939911
3338.0,0.1374512304752069
3337.0,0.13751083309410284
3336.0,0.13774932540207496
3335.0,0.13798794874978348
3334.0,0.13822670328130693
3333.0,0.1385253311428314
3332.0,0.13870460647330418
3331.0,0.13870460647330418
3330.0,0.13858508136400327
3329.0,0.13846558914096208
3328.0,0.13846558914096208
3327.0,0.13864483980673992
3326.0,0.1388241644869712
3325.0,0.1388241644869712
3324.0,0.1387643813659596
3323.0,0.13870460647330418
3322.0,0.13870460647330418
3321.0,0.13864483980673992
3320.0,0.13846558914096208
3319.0,0.13828641242856565
3318.0,0.13816700234205515
3317.0,0.13816700234205515
3316.0,0.1381073096085541
3315.0,0.1381073096085541
3314.0,0.1381073096085541
3313.0,0.13816700234205515
3312.0,0.13834612978608907
3311.0,0.1385253311428314
3310.0,0.13870460647330418
3309.0,0.1388241644869712
3308.0,0.1388241644869712
3307.0,0.1388241644869712
3306.0,0.1388839558386048
3305.0,0.13900356324280416
3304.0,0.13924287691845794
3303.0,0.13948232253825377
3302.0,0.1396619934290062
3301.0,0.1396619934290062
3300.0,0.13936258322624528
3299.0,0.13894375542312654
3298.0,0.1387643813659596
3297.0,0.13894375542312654
3296.0,0.1394224487555844
3295.0,0.1399616101928065
3294.0,0.14032142337155173
3293.0,0.14038142122781938
3292.0,0.1402014525194344
3291.0,0.13990167030148193
3290.0,0.13960209487268727
3289.0,0.13930272594796111
3288.0,0.1390633792999063
3287.0,0.13894375542312654
3286.0,0.1388839558386048
3285.0,0.13894375542312654
3284.0,0.1390633792999063
3283.0,0.1390633792999063
3282.0,0.13918303613546223
3281.0,0.13930272594796111
3280.0,0.1394224487555844
3279.0,0.13948232253825377
3278.0,0.13948232253825377
3277.0,0.13954220457652888
3276.0,0.1396619934290062
3275.0,0.13984173868172167
3274.0,0.1399616101928065
3273.0,0.14002155835797914
3272.0,0.1400815147992842
3271.0,0.14014147951900724
3270.0,0.1400815147992842
3269.0,0.13990167030148193
3268.0,0.1396619934290062
3267.0,0.13936258322624528
3266.0,0.13930272594796111
3265.0,0.1394224487555844
3264.0,0.13948232253825377
3263.0,0.1394224487555844
3262.0,0.13924287691845794
3261.0,0.1390633792999063
3260.0,0.13894375542312654
3259.0,0.13894375542312654
3258.0,0.13900356324280416
3257.0,0.1390633792999063
3256.0,0.13930272594796111
3255.0,0.13954220457652888
3254.0,0.13984173868172167
3253.0,0.13990167030148193
3252.0,0.1397219002477652
3251.0,0.13936258322624528
3250.0,0.13900356324280416
3249.0,0.1387643813659596
3248.0,0.13870460647330418
3247.0,0.1388241644869712
3246.0,0.1390633792999063
3245.0,0.13930272594796111
3244.0,0.13948232253825377
3243.0,0.1396619934290062
3242.0,0.13978181533124334
3241.0,0.13990167030148193
3240.0,0.1400815147992842
3239.0,0.14026143380285316
3238.0,0.14038142122781938
3237.0,0.14032142337155173
3236.0,0.14026143380285316
3235.0,0.1402014525194344
3234.0,0.14026143380285316
3233.0,0.14032142337155173
3232.0,0.14056146454494378
3231.0,0.1408016384661226
3230.0,0.14116214857141451
3229.0,0.1414628024303608
3228.0,0.14164329470222659
3227.0,0.14170347546611461
3226.0,0.14164329470222659
3225.0,0.1414628024303608
3224.0,0.14116214857141451
3223.0,0.14086170270546927
3222.0,0.14062149557439896
3221.0,0.1405014418122239
3220.0,0.14038142122781938
3219.0,0.1404414273739465
3218.0,0.14068153490288382
3217.0,0.14086170270546927
3216.0,0.1409217752530305
3215.0,0.1408016384661226
3214.0,0.14062149557439896
3213.0,0.14056146454494378
3212.0,0.14056146454494378
3211.0,0.14056146454494378
3210.0,0.14062149557439896
3209.0,0.1408016384661226
3208.0,0.1409818561111058
3207.0,0.1410419452819942
3206.0,0.14086170270546927
3205.0,0.1405014418122239
3204.0,0.1402014525194344
3203.0,0.14014147951900724
3202.0,0.14032142337155173
3201.0,0.1405014418122239
3200.0,0.14056146454494378
3199.0,0.14056146454494378
3198.0,0.1405014418122239
3197.0,0.14056146454494378
3196.0,0.1407415825326932
3195.0,0.1410419452819942
3194.0,0.14140265500530758
3193.0,0.14164329470222659
3192.0,0.14176366457048695
3191.0,0.14170347546611461
3190.0,0.1415229581866595
3189.0,0.14128238513970826
3188.0,0.14122226269455074
3187.0,0.1413425159091921
3186.0,0.1415229581866595
3185.0,0.14164329470222659
3184.0,0.1415831222765116
3183.0,0.14140265500530758
3182.0,0.1410419452819942
3181.0,0.1407415825326932
3180.0,0.14056146454494378
3179.0,0.14062149557439896
3178.0,0.14086170270546927
3177.0,0.14116214857141451
3176.0,0.14140265500530758
3175.0,0.1415831222765116
3174.0,0.1415831222765116
3173.0,0.1415229581866595
3172.0,0.1414628024303608
3171.0,0.14140265500530758
3170.0,0.1414628024303608
3169.0,0.14140265500530758
3168.0,0.1413425159091921
3167.0,0.14128238513970826
3166.0,0.14128238513970826
3165.0,0.14140265500530758
3164.0,0.14164329470222659
3163.0,0.14176366457048695
3162.0,0.14176366457048695
3161.0,0.1415831222765116
3160.0,0.14128238513970826
3159.0,0.1410419452819942
3158.0,0.1409818561111058
3157.0,0.14116214857141451
3156.0,0.1415229581866595
3155.0,0.14200450443907608
3154.0,0.1423660148499919
3153.0,0.14260718907909875
3152.0,0.14260718907909875
3151.0,0.1423660148499919
3150.0,0.14206473528057106
3149.0,0.14176366457048695
3148.0,0.1415831222765116
3147.0,0.1415229581866595
3146.0,0.1414628024303608
3145.0,0.14140265500530758
3144.0,0.1413425159091921
3143.0,0.14140265500530758
3142.0,0.1415229581866595
3141.0,0.1415831222765116
3140.0,0.14164329470222659
3139.0,0.14170347546611461
3138.0,0.14182386201765573
3137.0,0.14200450443907608
3136.0,0.14200450443907608
3135.0,0.14182386201765573
3134.0,0.14164329470222659
3133.0,0.14164329470222659
3132.0,0.14182386201765573
3131.0,0.14224547794055775
3130.0,0.14266750356873148
3129.0,0.14302956651750764
3128.0,0.1432711096171173
3127.0,0.1432711096171173
3126.0,0.14315032127482774
3125.0,0.1430899396992138
3124.0,0.14315032127482774
3123.0,0.14333151638846497
3122.0,0.14351278713136928
3121.0,0.14357322752975565
3120.0,0.14351278713136928
3119.0,0.14333151638846497
3118.0,0.14296920172737604
3117.0,0.14266750356873148
3116.0,0.1425468829647336
3115.0,0.14260718907909875
3114.0,0.14284849731250704
3113.0,0.14315032127482774
3112.0,0.14339193156306385
3111.0,0.14345235514325205
3110.0,0.1432711096171173
3109.0,0.1430899396992138
3108.0,0.14302956651750764
3107.0,0.14302956651750764
3106.0,0.1430899396992138
3105.0,0.14321071124668383
3104.0,0.14339193156306385
3103.0,0.14357322752975565
3102.0,0.14369413356670102
3101.0,0.14375459920994582
3100.0,0.14393604666690019
3099.0,0.14417809459397013
3098.0,0.14448084433219988
3097.0,0.14466259553045968
3096.0,0.14466259553045968
3095.0,0.14454141961396383
3094.0,0.14442027749828212
3093.0,0.14442027749828212
3092.0,0.14442027749828212
3091.0,0.14454141961396383
3090.0,0.1446020033459312
3089.0,0.14466259553045968
3088.0,0.14484442282300614
3087.0,0.14514763758216587
3086.0,0.14545106418704923
3085.0,0.14575470293388149
3084.0,0.14587621789883287
3083.0,0.14575470293388149
3082.0,0.1455724942121388
3081.0,0.14532966810466452
3080.0,0.14526898278605782
3079.0,0.14539036190420496
3078.0,0.14551177495556966
3077.0,0.1455724942121388
3076.0,0.1456939581989194
3075.0,0.14581545616639335
3074.0,0.14605855411951008
3073.0,0.1463626180414057
3072.0,0.1465451586319333
3071.0,0.1465451586319333
3070.0,0.14648430324307138
3069.0,0.1463626180414057
3068.0,0.14630178822382556
3067.0,0.1463626180414057
3066.0,0.1463626180414057
3065.0,0.1463626180414057
3064.0,0.14630178822382556
3063.0,0.14624096692523136
3062.0,0.14624096692523136
3061.0,0.14630178822382556
3060.0,0.14630178822382556
3059.0,0.14624096692523136
3058.0,0.14630178822382556
3057.0,0.14648430324307138
3056.0,0.14684956355215717
3055.0,0.1472151313194523
3054.0,0.14739803066176504
3053.0,0.14745901423020125
3052.0,0.14733705565543076
3051.0,0.1472760892087941
3050.0,0.14733705565543076
3049.0,0.14733705565543076
3048.0,0.1472151313194523
3047.0,0.14697138528701026
3046.0,0.14672777597931685
3045.0,0.1466060225493342
3044.0,0.14648430324307138
3043.0,0.14624096692523136
3042.0,0.14587621789883287
3041.0,0.14551177495556966
3040.0,0.14520830594601453
3039.0,0.14496568332411575
3038.0,0.14472319616990825
3037.0,0.14442027749828212
3036.0,0.14429916916456276
3035.0,0.14417809459397013
3034.0,0.14417809459397013
3033.0,0.14405705376768396
3032.0,0.14393604666690019
3031.0,0.14375459920994582
3030.0,0.14357322752975565
3029.0,0.14339193156306385
3028.0,0.14321071124668383
3027.0,0.14315032127482774
3026.0,0.14333151638846497
3025.0,0.14363367634075197
3024.0,0.14393604666690019
3023.0,0.1441175699639643
3022.0,0.14405705376768396
3021.0,0.143996546002779
3020.0,0.143996546002779
3019.0,0.143996546002779
3018.0,0.143996546002779
3017.0,0.14405705376768396
3016.0,0.14405705376768396
3015.0,0.14405705376768396
3014.0,0.14405705376768396
3013.0,0.143996546002779
3012.0,0.14405705376768396
3011.0,0.14423862766005224
3010.0,0.14454141961396383
3009.0,0.1447838052666366
3008.0,0.14484442282300614
3007.0,0.1447838052666366
3006.0,0.14466259553045968
3005.0,0.14454141961396383
3004.0,0.1446020033459312
3003.0,0.1447838052666366
3002.0,0.14490504884137811
3001.0,0.1450869776921444
3000.0,0.14526898278605782
2999.0,0.14551177495556966
2998.0,0.14587621789883287
2997.0,0.14630178822382556
2996.0,0.14666689499766483
2995.0,0.146788665496683
2994.0,0.146788665496683
2993.0,0.14666689499766483
2992.0,0.14648430324307138
2991.0,0.14630178822382556
2990.0,0.14618015414323682
2989.0,0.14624096692523136
2988.0,0.14648430324307138
2987.0,0.14691047014813452
2986.0,0.14739803066176504
2985.0,0.1478861391502384
2984.0,0.14831368455757254
2983.0,0.14874165128092476
2982.0,0.1491088158640761
2981.0,0.1493537648169334
2980.0,0.14966014541652073
2979.0,0.14984407757790774
2978.0,0.1500894416985039
2977.0,0.1503963419175529
2976.0,0.15076490868527737
2975.0,0.15131834597604965
2974.0,0.1519957285027318
2973.0,0.1527358982292355
2972.0,0.1534154971019539
2971.0,0.15403423845451636
2970.0,0.15465386258859137
2969.0,0.15533647175976073
2968.0,0.15614457737683884
2967.0,0.15695418946543072
2966.0,0.15776531365276036
2965.0,0.15864052954514496
2964.0,0.159517512786558
2963.0,0.16039627052916305
2962.0,0.16115090926274478
2961.0,0.16184381524785207
2960.0,0.16253782851400533
2959.0,0.16323295260579473
2958.0,0.16399254087446846
2957.0,0.1646899991309374
2956.0,0.16519794595130088
2955.0,0.16545214231905137
2954.0,0.16545214231905137
2953.0,0.165261481096159
2952.0,0.16513442009996204
2951.0,0.16500739626697003
2950.0,0.16500739626697003
2949.0,0.16488040957545036
2948.0,0.16456310519814177
2947.0,0.16411926818260536
2946.0,0.16348600110932865
2945.0,0.1627904721987936
2944.0,0.16203298163134527
2943.0,0.16127680996862814
2942.0,0.16058480731610647
2941.0,0.159956669396506
2940.0,0.15932943866659088
2939.0,0.15870311250971825
2938.0,0.15814019022493886
2937.0,0.1576404266693252
2936.0,0.15720360482441986
2935.0,0.15676722190199066
2934.0,0.15639352807548912
2933.0,0.15602015552184012
2932.0,0.15570925674565683
2931.0,0.15552282425431851
2930.0,0.15533647175976073
2929.0,0.15508812608785938
2928.0,0.15477789357098626
2927.0,0.15440590683997568
2926.0,0.15403423845451636
2925.0,0.1537866361206126
2924.0,0.15360102696532518
2923.0,0.15360102696532518
2922.0,0.15366288787019466
2921.0,0.15366288787019466
2920.0,0.15347733158371324
2919.0,0.15310645668337486
2918.0,0.15267416921457633
2917.0,0.1523039792658345
2916.0,0.15218065270476067
2915.0,0.15224231160766877
2914.0,0.1524890347967518
2913.0,0.15267416921457633
2912.0,0.15285938258659382
2911.0,0.15292113793428452
2910.0,0.15304467498017615
2909.0,0.1531682471767426
2908.0,0.1531682471767426
2907.0,0.15310645668337486
2906.0,0.15298290206464582
2905.0,0.15292113793428452
2904.0,0.15304467498017615
2903.0,0.1532918545439932
2902.0,0.15347733158371324
2901.0,0.15347733158371324
2900.0,0.1532918545439932
2899.0,0.1531682471767426
2898.0,0.15323004646278116
2897.0,0.15347733158371324
2896.0,0.15366288787019466
2895.0,0.1538485234711846
2894.0,0.15391041964201602
2893.0,0.15391041964201602
2892.0,0.15397232463562127
2891.0,0.15403423845451636
2890.0,0.15415809257824264
2889.0,0.15428198203334142
2888.0,0.15446788250642451
2887.0,0.1545918603782066
2886.0,0.15465386258859137
2885.0,0.15465386258859137
2884.0,0.15452986701832638
2883.0,0.15446788250642451
2882.0,0.1545918603782066
2881.0,0.15477789357098626
2880.0,0.15496400648658493
2879.0,0.15496400648658493
2878.0,0.1548399223480541
2877.0,0.15465386258859137
2876.0,0.1545918603782066
2875.0,0.1545918603782066
2874.0,0.15471587365200845
2873.0,0.1548399223480541
2872.0,0.15490195998574308
2871.0,0.15477789357098626
2870.0,0.15452986701832638
2869.0,0.15440590683997568
2868.0,0.15434394001645568
2867.0,0.15434394001645568
2866.0,0.1542200328881107
2865.0,0.15403423845451636
2864.0,0.1537866361206126
2863.0,0.15360102696532518
2862.0,0.1535391748706676
2861.0,0.1535391748706676
2860.0,0.15360102696532518
2859.0,0.1537866361206126
2858.0,0.15397232463562127
2857.0,0.15415809257824264
2856.0,0.1542200328881107
2855.0,0.1540961611012175
2854.0,0.15403423845451636
2853.0,0.15403423845451636
2852.0,0.15415809257824264
2851.0,0.15428198203334142
2850.0,0.1542200328881107
2849.0,0.15397232463562127
2848.0,0.1535391748706676
2847.0,0.15323004646278116
2846.0,0.15298290206464582
2845.0,0.15285938258659382
2844.0,0.15279763601907614
2843.0,0.15285938258659382
2842.0,0.15292113793428452
2841.0,0.15292113793428452
2840.0,0.15285938258659382
2839.0,0.15267416921457633
2838.0,0.1524890347967518
2837.0,0.15242734085788778
2836.0,0.1523039792658345
2835.0,0.15218065270476067
2834.0,0.1519957285027318
2833.0,0.15168769637271562
2832.0,0.1515029819096334
2831.0,0.1513798825658661
2830.0,0.1514414278762366
2829.0,0.1515029819096334
2828.0,0.15162611615539823
2827.0,0.15168769637271562
2826.0,0.15168769637271562
2825.0,0.1517492853229574
2824.0,0.1517492853229574
2823.0,0.15168769637271562
2822.0,0.15162611615539823
2821.0,0.1514414278762366
2820.0,0.15125681810431635
2819.0,0.15113378850522063
2818.0,0.15113378850522063
2817.0,0.15119529894819617
2816.0,0.1513798825658661
2815.0,0.1514414278762366
2814.0,0.1513798825658661
2813.0,0.15113378850522063
2812.0,0.15088783381542248
2811.0,0.1507034591652734
2810.0,0.15064201833870117
2809.0,0.15064201833870117
2808.0,0.1507034591652734
2807.0,0.15076490868527737
2806.0,0.15082636690117335
2805.0,0.15082636690117335
2804.0,0.15076490868527737
2803.0,0.1507034591652734
2802.0,0.15058058620310066
2801.0,0.15051916275601385
2800.0,0.15058058620310066
2799.0,0.1507034591652734
2798.0,0.15101079374883275
2797.0,0.15125681810431635
2796.0,0.15131834597604965
2795.0,0.15119529894819617
2794.0,0.15088783381542248
2793.0,0.15058058620310066
2792.0,0.15045774799498335
2791.0,0.15045774799498335
2790.0,0.15045774799498335
2789.0,0.15051916275601385
2788.0,0.15058058620310066
2787.0,0.15064201833870117
2786.0,0.1507034591652734
2785.0,0.15064201833870117
2784.0,0.15051916275601385
2783.0,0.15033494452126717
2782.0,0.15027355580367208
2781.0,0.15033494452126717
2780.0,0.15051916275601385
2779.0,0.15076490868527737
2778.0,0.15088783381542248
2777.0,0.15088783381542248
2776.0,0.1507034591652734
2775.0,0.15064201833870117
2774.0,0.15064201833870117
2773.0,0.1507034591652734
2772.0,0.1507034591652734
2771.0,0.1507034591652734
2770.0,0.15064201833870117
2769.0,0.15058058620310066
2768.0,0.15051916275601385
2767.0,0.15058058620310066
2766.0,0.15064201833870117
2765.0,0.15076490868527737
2764.0,0.1507034591652734
2763.0,0.15064201833870117
2762.0,0.15051916275601385
2761.0,0.15045774799498335
2760.0,0.15045774799498335
2759.0,0.15058058620310066
2758.0,0.1507034591652734
2757.0,0.1507034591652734
2756.0,0.15058058620310066
2755.0,0.1503963419175529
2754.0,0.15033494452126717
2753.0,0.15033494452126717
2752.0,0.1503963419175529
2751.0,0.15051916275601385
2750.0,0.15051916275601385
2749.0,0.15051916275601385
2748.0,0.15051916275601385
2747.0,0.15058058620310066
2746.0,0.1507034591652734
2745.0,0.1507034591652734
2744.0,0.1507034591652734
2743.0,0.15064201833870117
2742.0,0.15064201833870117
2741.0,0.1507034591652734
2740.0,0.1507034591652734
2739.0,0.15064201833870117
2738.0,0.15064201833870117
2737.0,0.15064201833870117
2736.0,0.15064201833870117
2735.0,0.15058058620310066
2734.0,0.15051916275601385
2733.0,0.1503963419175529
2732.0,0.15033494452126717
2731.0,0.1502121757623145
2730.0,0.15015080439474215
2729.0,0.1502121757623145
2728.0,0.15033494452126717
2727.0,0.15045774799498335
2726.0,0.15058058620310066
2725.0,0.1507034591652734
2724.0,0.15082636690117335
2723.0,0.15088783381542248
2722.0,0.15088783381542248
2721.0,0.1507034591652734
2720.0,0.1503963419175529
2719.0,0.1500894416985039
2718.0,0.14984407757790774
2717.0,0.14978275820161047
2716.0,0.14990540561329913
2715.0,0.1500894416985039
2714.0,0.15027355580367208
2713.0,0.1503963419175529
2712.0,0.1503963419175529
2711.0,0.1503963419175529
2710.0,0.1503963419175529
2709.0,0.15045774799498335
2708.0,0.15051916275601385
2707.0,0.15058058620310066
2706.0,0.15058058620310066
2705.0,0.15045774799498335
2704.0,0.15015080439474215
2703.0,0.14984407757790774
2702.0,0.14966014541652073
2701.0,0.14966014541652073
2700.0,0.14984407757790774
2699.0,0.15002808767114995
2698.0,0.15015080439474215
2697.0,0.1500894416985039
2696.0,0.1500894416985039
2695.0,0.1500894416985039
2694.0,0.15015080439474215
2693.0,0.1500894416985039
2692.0,0.14990540561329913
2691.0,0.14966014541652073
2690.0,0.1494762911210057
2689.0,0.1494762911210057
2688.0,0.1497214474819628
2687.0,0.1499667423102311
2686.0,0.15015080439474215
2685.0,0.15027355580367208
2684.0,0.1503963419175529
2683.0,0.15051916275601385
2682.0,0.15064201833870117
2681.0,0.1507034591652734
2680.0,0.1507034591652734
2679.0,0.15058058620310066
2678.0,0.15045774799498335
2677.0,0.15033494452126717
2676.0,0.15027355580367208
2675.0,0.1500894416985039
2674.0,0.1499667423102311
2673.0,0.14984407757790774
2672.0,0.14990540561329913
2671.0,0.15002808767114995
2670.0,0.15015080439474215
2669.0,0.1502121757623145
2668.0,0.15027355580367208
2667.0,0.15027355580367208
2666.0,0.15033494452126717
2665.0,0.15027355580367208
2664.0,0.1502121757623145
2663.0,0.15015080439474215
2662.0,0.1499667423102311
2661.0,0.14978275820161047
2660.0,0.14966014541652073
2659.0,0.1495988520028415
2658.0,0.1495988520028415
2657.0,0.1495988520028415
2656.0,0.14966014541652073
2655.0,0.14978275820161047
2654.0,0.1499667423102311
2653.0,0.15002808767114995
2652.0,0.15002808767114995
2651.0,0.1499667423102311
2650.0,0.14984407757790774
2649.0,0.14978275820161047
2648.0,0.1497214474819628
2647.0,0.1497214474819628
2646.0,0.14978275820161047
2645.0,0.14984407757790774
2644.0,0.14990540561329913
2643.0,0.14990540561329913
2642.0,0.14978275820161047
2641.0,0.1497214474819628
2640.0,0.14978275820161047
2639.0,0.1499667423102311
2638.0,0.15015080439474215
2637.0,0.15033494452126717
2636.0,0.1503963419175529
2635.0,0.15045774799498335
2634.0,0.15051916275601385
2633.0,0.15051916275601385
2632.0,0.15045774799498335
2631.0,0.15045774799498335
2630.0,0.15064201833870117
2629.0,0.15082636690117335
2628.0,0.15101079374883275
2627.0,0.15107228677292173
2626.0,0.15107228677292173
2625.0,0.15107228677292173
2624.0,0.15113378850522063
2623.0,0.15113378850522063
2622.0,0.15101079374883275
2621.0,0.15082636690117335
2620.0,0.1507034591652734
2619.0,0.1507034591652734
2618.0,0.15076490868527737
2617.0,0.15082636690117335
2616.0,0.15082636690117335
2615.0,0.15076490868527737
2614.0,0.15082636690117335
2613.0,0.15088783381542248
2612.0,0.15101079374883275
2611.0,0.15113378850522063
2610.0,0.15125681810431635
2609.0,0.15125681810431635
2608.0,0.15107228677292173
2607.0,0.15088783381542248
2606.0,0.15088783381542248
2605.0,0.15101079374883275
2604.0,0.15119529894819617
2603.0,0.15125681810431635
2602.0,0.15119529894819617
2601.0,0.15101079374883275
2600.0,0.15088783381542248
2599.0,0.1509493094304879
2598.0,0.15113378850522063
2597.0,0.1513798825658661
2596.0,0.1515029819096334
2595.0,0.1515029819096334
2594.0,0.1515029819096334
2593.0,0.15168769637271562
2592.0,0.15181088300860135
2591.0,0.15187248943212528
2590.0,0.15181088300860135
2589.0,0.15168769637271562
2588.0,0.15162611615539823
2587.0,0.1515645446685292
2586.0,0.15162611615539823
2585.0,0.15162611615539823
2584.0,0.1517492853229574
2583.0,0.15193410459600853
2582.0,0.15211900255462485
2581.0,0.15224231160766877
2580.0,0.1523039792658345
2579.0,0.1523039792658345
2578.0,0.1523039792658345
2577.0,0.15224231160766877
2576.0,0.15218065270476067
2575.0,0.15211900255462485
2574.0,0.15218065270476067
2573.0,0.1523039792658345
2572.0,0.15242734085788778
2571.0,0.15242734085788778
2570.0,0.15242734085788778
2569.0,0.15236565568174498
2568.0,0.15236565568174498
2567.0,0.15236565568174498
2566.0,0.15224231160766877
2565.0,0.15205736115477642
2564.0,0.15181088300860135
2563.0,0.1517492853229574
2562.0,0.15181088300860135
2561.0,0.15205736115477642
2560.0,0.1523039792658345
2559.0,0.1524890347967518
2558.0,0.15267416921457633
2557.0,0.1527358982292355
2556.0,0.1527358982292355
2555.0,0.15267416921457633
2554.0,0.1524890347967518
2553.0,0.15236565568174498
2552.0,0.15224231160766877
2551.0,0.15224231160766877
2550.0,0.1523039792658345
2549.0,0.15242734085788778
2548.0,0.15261244897260462
2547.0,0.15279763601907614
2546.0,0.15285938258659382
2545.0,0.15292113793428452
2544.0,0.15292113793428452
2543.0,0.15304467498017615
2542.0,0.15304467498017615
2541.0,0.15298290206464582
2540.0,0.1527358982292355
2539.0,0.15242734085788778
2538.0,0.1523039792658345
2537.0,0.15242734085788778
2536.0,0.15267416921457633
2535.0,0.15292113793428452
2534.0,0.15310645668337486
2533.0,0.15310645668337486
2532.0,0.15310645668337486
2531.0,0.15310645668337486
2530.0,0.1531682471767426
2529.0,0.15335367142288248
2528.0,0.15347733158371324
2527.0,0.15347733158371324
2526.0,0.15347733158371324
2525.0,0.1534154971019539
2524.0,0.1534154971019539
2523.0,0.15335367142288248
2522.0,0.15335367142288248
2521.0,0.1534154971019539
2520.0,0.1534154971019539
2519.0,0.15335367142288248
2518.0,0.15323004646278116
2517.0,0.15310645668337486
2516.0,0.15298290206464582
2515.0,0.15304467498017615
2514.0,0.15310645668337486
2513.0,0.15310645668337486
2512.0,0.15304467498017615
2511.0,0.15298290206464582
2510.0,0.15298290206464582
2509.0,0.15310645668337486
2508.0,0.15335367142288248
2507.0,0.1535391748706676
2506.0,0.15372475758778692
2505.0,0.15391041964201602
2504.0,0.15403423845451636
2503.0,0.15403423845451636
2502.0,0.15397232463562127
2501.0,0.1538485234711846
2500.0,0.15366288787019466
2499.0,0.1535391748706676
2498.0,0.1535391748706676
2497.0,0.15360102696532518
2496.0,0.15372475758778692
2495.0,0.1538485234711846
2494.0,0.15397232463562127
2493.0,0.15397232463562127
2492.0,0.15397232463562127
2491.0,0.1538485234711846
2490.0,0.1537866361206126
2489.0,0.15372475758778692
2488.0,0.15372475758778692
2487.0,0.15372475758778692
2486.0,0.1535391748706676
2485.0,0.1532918545439932
2484.0,0.15310645668337486
2483.0,0.15310645668337486
2482.0,0.15323004646278116
2481.0,0.1534154971019539
2480.0,0.15347733158371324
2479.0,0.1534154971019539
2478.0,0.15323004646278116
2477.0,0.15304467498017615
2476.0,0.15304467498017615
2475.0,0.1531682471767426
2474.0,0.15335367142288248
2473.0,0.1534154971019539
2472.0,0.15335367142288248
2471.0,0.15323004646278116
2470.0,0.15310645668337486
2469.0,0.15304467498017615
2468.0,0.15304467498017615
2467.0,0.1531682471767426
2466.0,0.15310645668337486
2465.0,0.15292113793428452
2464.0,0.1527358982292355
2463.0,0.15261244897260462
2462.0,0.1527358982292355
2461.0,0.15292113793428452
2460.0,0.15310645668337486
2459.0,0.15323004646278116
2458.0,0.1531682471767426
2457.0,0.15310645668337486
2456.0,0.15298290206464582
2455.0,0.15285938258659382
2454.0,0.15279763601907614
2453.0,0.15279763601907614
2452.0,0.1527358982292355
2451.0,0.1527358982292355
2450.0,0.1527358982292355
2449.0,0.15279763601907614
2448.0,0.15279763601907614
2447.0,0.15279763601907614
2446.0,0.15279763601907614
2445.0,0.15279763601907614
2444.0,0.15285938258659382
2443.0,0.15292113793428452
2442.0,0.15298290206464582
2441.0,0.15304467498017615
2440.0,0.15304467498017615
2439.0,0.15298290206464582
2438.0,0.15298290206464582
2437.0,0.15285938258659382
2436.0,0.15279763601907614
2435.0,0.1527358982292355
2434.0,0.15279763601907614
2433.0,0.15292113793428452
2432.0,0.15298290206464582
2431.0,0.15304467498017615
2430.0,0.15310645668337486
2429.0,0.1531682471767426
2428.0,0.1532918545439932
2427.0,0.15323004646278116
2426.0,0.15304467498017615
2425.0,0.15279763601907614
2424.0,0.15261244897260462
2423.0,0.15267416921457633
2422.0,0.15279763601907614
2421.0,0.15292113793428452
2420.0,0.15298290206464582
2419.0,0.15304467498017615
2418.0,0.15310645668337486
2417.0,0.1531682471767426
2416.0,0.1531682471767426
2415.0,0.15310645668337486
2414.0,0.15304467498017615
2413.0,0.15304467498017615
2412.0,0.15298290206464582
2411.0,0.15310645668337486
2410.0,0.1532918545439932
2409.0,0.15347733158371324
2408.0,0.15366288787019466
2407.0,0.15372475758778692
2406.0,0.15372475758778692
2405.0,0.15366288787019466
2404.0,0.1535391748706676
2403.0,0.15347733158371324
2402.0,0.1535391748706676
2401.0,0.15372475758778692
2400.0,0.1538485234711846
2399.0,0.15391041964201602
2398.0,0.15391041964201602
2397.0,0.1537866361206126
2396.0,0.15360102696532518
2395.0,0.1535391748706676
2394.0,0.1534154971019539
2393.0,0.1532918545439932
2392.0,0.15323004646278116
2391.0,0.15323004646278116
2390.0,0.1534154971019539
2389.0,0.15372475758778692
2388.0,0.15397232463562127
2387.0,0.1542200328881107
2386.0,0.15434394001645568
2385.0,0.15434394001645568
2384.0,0.15434394001645568
2383.0,0.15434394001645568
2382.0,0.15440590683997568
2381.0,0.1545918603782066
2380.0,0.15471587365200845
2379.0,0.15477789357098626
2378.0,0.15471587365200845
2377.0,0.15446788250642451
2376.0,0.15403423845451636
2375.0,0.1532918545439932
2374.0,0.15242734085788778
2373.0,0.1517492853229574
2372.0,0.1514414278762366
2371.0,0.1517492853229574
2370.0,0.1524890347967518
2369.0,0.15323004646278116
2368.0,0.1538485234711846
2367.0,0.15465386258859137
2366.0,0.1560823619936076
2365.0,0.15801519540988607
2364.0,0.15958022226351387
2363.0,0.159956669396506
2362.0,0.15882830550046778
2361.0,0.15639352807548912
2360.0,0.1531682471767426
2359.0,0.15015080439474215
2358.0,0.14861933203440336
2357.0,0.14923127307111983
2356.0,0.15168769637271562
2355.0,0.15446788250642451
2354.0,0.1558335895497993
2353.0,0.15546069787099204
2352.0,0.15440590683997568
2351.0,0.15366288787019466
2350.0,0.1535391748706676
2349.0,0.15391041964201602
2348.0,0.15446788250642451
2347.0,0.15440590683997568
2346.0,0.15372475758778692
2345.0,0.1531682471767426
2344.0,0.15335367142288248
2343.0,0.1537866361206126
2342.0,0.15397232463562127
2341.0,0.15397232463562127
2340.0,0.1538485234711846
2339.0,0.15397232463562127
2338.0,0.1540961611012175
2337.0,0.15403423845451636
2336.0,0.1534154971019539
2335.0,0.15255073750082726
2334.0,0.1515645446685292
2333.0,0.15058058620310066
2332.0,0.1499667423102311
2331.0,0.1502121757623145
2330.0,0.1515029819096334
2329.0,0.15323004646278116
2328.0,0.1545918603782066
2327.0,0.15508812608785938
2326.0,0.15515019919336104
2325.0,0.15496400648658493
2324.0,0.1548399223480541
2323.0,0.1545918603782066
2322.0,0.1540961611012175
2321.0,0.15335367142288248
2320.0,0.1527358982292355
2319.0,0.15267416921457633
2318.0,0.15310645668337486
2317.0,0.1537866361206126
2316.0,0.1542200328881107
2315.0,0.15440590683997568
2314.0,0.15446788250642451
2313.0,0.15465386258859137
2312.0,0.1550260618531123
2311.0,0.15552282425431851
2310.0,0.1558335895497993
2309.0,0.1558335895497993
2308.0,0.15564710368910672
2307.0,0.15533647175976073
2306.0,0.15508812608785938
2305.0,0.15496400648658493
2304.0,0.1548399223480541
2303.0,0.1548399223480541
2302.0,0.15490195998574308
2301.0,0.15496400648658493
2300.0,0.15490195998574308
2299.0,0.15477789357098626
2298.0,0.15471587365200845
2297.0,0.15471587365200845
2296.0,0.15477789357098626
2295.0,0.15477789357098626
2294.0,0.15471587365200845
2293.0,0.15465386258859137
2292.0,0.15452986701832638
2291.0,0.15452986701832638
2290.0,0.1545918603782066
2289.0,0.15477789357098626
2288.0,0.15490195998574308
2287.0,0.15496400648658493
2286.0,0.15477789357098626
2285.0,0.15452986701832638
2284.0,0.15415809257824264
2283.0,0.15391041964201602
2282.0,0.1537866361206126
2281.0,0.1538485234711846
2280.0,0.15391041964201602
2279.0,0.15397232463562127
2278.0,0.15397232463562127
2277.0,0.15391041964201602
2276.0,0.1538485234711846
2275.0,0.15366288787019466
2274.0,0.15347733158371324
2273.0,0.1532918545439932
2272.0,0.15323004646278116
2271.0,0.1532918545439932
2270.0,0.15347733158371324
2269.0,0.15366288787019466
2268.0,0.15391041964201602
2267.0,0.15397232463562127
2266.0,0.15397232463562127
2265.0,0.1537866361206126
2264.0,0.15360102696532518
2263.0,0.15347733158371324
2262.0,0.15347733158371324
2261.0,0.1534154971019539
2260.0,0.1532918545439932
2259.0,0.1531682471767426
2258.0,0.15304467498017615
2257.0,0.15304467498017615
2256.0,0.1531682471767426
2255.0,0.1532918545439932
2254.0,0.15347733158371324
2253.0,0.15347733158371324
2252.0,0.15335367142288248
2251.0,0.15323004646278116
2250.0,0.15310645668337486
2249.0,0.15310645668337486
2248.0,0.1531682471767426
2247.0,0.15310645668337486
2246.0,0.15298290206464582
2245.0,0.15285938258659382
2244.0,0.15279763601907614
2243.0,0.15292113793428452
2242.0,0.15298290206464582
2241.0,0.15298290206464582
2240.0,0.15298290206464582
2239.0,0.15292113793428452
2238.0,0.15292113793428452
2237.0,0.15292113793428452
2236.0,0.15292113793428452
2235.0,0.15304467498017615
2234.0,0.15310645668337486
2233.0,0.15310645668337486
2232.0,0.15292113793428452
2231.0,0.15279763601907614
2230.0,0.1527358982292355
2229.0,0.15279763601907614
2228.0,0.15279763601907614
2227.0,0.15267416921457633
2226.0,0.15255073750082726
2225.0,0.1524890347967518
2224.0,0.15261244897260462
2223.0,0.15279763601907614
2222.0,0.15292113793428452
2221.0,0.15285938258659382
2220.0,0.15267416921457633
2219.0,0.15242734085788778
2218.0,0.15224231160766877
2217.0,0.15224231160766877
2216.0,0.1523039792658345
2215.0,0.15236565568174498
2214.0,0.15236565568174498
2213.0,0.15236565568174498
2212.0,0.1523039792658345
2211.0,0.15236565568174498
2210.0,0.15242734085788778
2209.0,0.15242734085788778
2208.0,0.15224231160766877
2207.0,0.15205736115477642
2206.0,0.15193410459600853
2205.0,0.15193410459600853
2204.0,0.1519957285027318
2203.0,0.15205736115477642
2202.0,0.15205736115477642
2201.0,0.15205736115477642
2200.0,0.1519957285027318
2199.0,0.15187248943212528
2198.0,0.15168769637271562
2197.0,0.1515029819096334
2196.0,0.1513798825658661
2195.0,0.1515645446685292
2194.0,0.15193410459600853
2193.0,0.1523039792658345
2192.0,0.1524890347967518
2191.0,0.1523039792658345
2190.0,0.1519957285027318
2189.0,0.15168769637271562
2188.0,0.1515029819096334
2187.0,0.1514414278762366
2186.0,0.1515029819096334
2185.0,0.1515029819096334
2184.0,0.1513798825658661
2183.0,0.1513798825658661
2182.0,0.1513798825658661
2181.0,0.1515029819096334
2180.0,0.1515029819096334
2179.0,0.1515645446685292
2178.0,0.15162611615539823
2177.0,0.15181088300860135
2176.0,0.15187248943212528
2175.0,0.15181088300860135
2174.0,0.15168769637271562
2173.0,0.1515029819096334
2172.0,0.15131834597604965
2171.0,0.15125681810431635
2170.0,0.15131834597604965
2169.0,0.1513798825658661
2168.0,0.1513798825658661
2167.0,0.1513798825658661
2166.0,0.1513798825658661
2165.0,0.1514414278762366
2164.0,0.1515029819096334
2163.0,0.1515029819096334
2162.0,0.1514414278762366
2161.0,0.1513798825658661
2160.0,0.1514414278762366
2159.0,0.1514414278762366
2158.0,0.1515029819096334
2157.0,0.15162611615539823
2156.0,0.1517492853229574
2155.0,0.15181088300860135
2154.0,0.15168769637271562
2153.0,0.1514414278762366
2152.0,0.15125681810431635
2151.0,0.15113378850522063
2150.0,0.15119529894819617
2149.0,0.1513798825658661
2148.0,0.1515029819096334
2147.0,0.1515645446685292
2146.0,0.1515645446685292
2145.0,0.1514414278762366
2144.0,0.15125681810431635
2143.0,0.15113378850522063
2142.0,0.15113378850522063
2141.0,0.15125681810431635
2140.0,0.1513798825658661
2139.0,0.1513798825658661
2138.0,0.15131834597604965
2137.0,0.15125681810431635
2136.0,0.15125681810431635
2135.0,0.15125681810431635
2134.0,0.15125681810431635
2133.0,0.15125681810431635
2132.0,0.15113378850522063
2131.0,0.15107228677292173
2130.0,0.15101079374883275
2129.0,0.15088783381542248
2128.0,0.15088783381542248
2127.0,0.15088783381542248
2126.0,0.15101079374883275
2125.0,0.15119529894819617
2124.0,0.1513798825658661
2123.0,0.1515029819096334
2122.0,0.1515645446685292
2121.0,0.1515645446685292
2120.0,0.1515645446685292
2119.0,0.1515029819096334
2118.0,0.1513798825658661
2117.0,0.15131834597604965
2116.0,0.15125681810431635
2115.0,0.15113378850522063
2114.0,0.1509493094304879
2113.0,0.15076490868527737
2112.0,0.15064201833870117
2111.0,0.1507034591652734
2110.0,0.15082636690117335
2109.0,0.1509493094304879
2108.0,0.15107228677292173
2107.0,0.15113378850522063
2106.0,0.15119529894819617
2105.0,0.15125681810431635
2104.0,0.15125681810431635
2103.0,0.15125681810431635
2102.0,0.15131834597604965
2101.0,0.1513798825658661
2100.0,0.15131834597604965
2099.0,0.15113378850522063
2098.0,0.1509493094304879
2097.0,0.15082636690117335
2096.0,0.15082636690117335
2095.0,0.15088783381542248
2094.0,0.1509493094304879
2093.0,0.1509493094304879
2092.0,0.15088783381542248
2091.0,0.15082636690117335
2090.0,0.1509493094304879
2089.0,0.15107228677292173
2088.0,0.15107228677292173
2087.0,0.15101079374883275
2086.0,0.15082636690117335
2085.0,0.15058058620310066
2084.0,0.15045774799498335
2083.0,0.1503963419175529
2082.0,0.1503963419175529
2081.0,0.15051916275601385
2080.0,0.15045774799498335
2079.0,0.1503963419175529
2078.0,0.15015080439474215
2077.0,0.14990540561329913
2076.0,0.1495988520028415
2075.0,0.1493537648169334
2074.0,0.14929251462546267
2073.0,0.14929251462546267
2072.0,0.1493537648169334
2071.0,0.14941502364796855
2070.0,0.14941502364796855
2069.0,0.1493537648169334
2068.0,0.14929251462546267
2067.0,0.14929251462546267
2066.0,0.1493537648169334
2065.0,0.1493537648169334
2064.0,0.14929251462546267
2063.0,0.14917004015146906
2062.0,0.14898639317633
2061.0,0.14880282382583943
2060.0,0.14861933203440336
2059.0,0.14843591773651155
2058.0,0.14831368455757254
2057.0,0.14819148577176255
2056.0,0.1480693213597324
2055.0,0.14800825203784274
2054.0,0.14800825203784274
2053.0,0.1479471913021495
2052.0,0.1478861391502384
2051.0,0.1477030341730745
2050.0,0.1475810070629986
2049.0,0.14752000636314366
2048.0,0.14745901423020125
2047.0,0.14745901423020125
2046.0,0.14739803066176504
2045.0,0.1472760892087941
2044.0,0.14703230897118158
2043.0,0.146788665496683
2042.0,0.1466060225493342
2041.0,0.14648430324307138
2040.0,0.1463626180414057
2039.0,0.14618015414323682
2038.0,0.14599776687301103
2037.0,0.14581545616639335
2036.0,0.1456939581989194
2035.0,0.1455724942121388
2034.0,0.1455724942121388
2033.0,0.14551177495556966
2032.0,0.14551177495556966
2031.0,0.14545106418704923
2030.0,0.14545106418704923
2029.0,0.14539036190420496
2028.0,0.14526898278605782
2027.0,0.14514763758216587
2026.0,0.1450869776921444
2025.0,0.1450869776921444
2024.0,0.14502632627358292
2023.0,0.14490504884137811
2022.0,0.1447838052666366
2021.0,0.14466259553045968
2020.0,0.1446020033459312
2019.0,0.14466259553045968
2018.0,0.14472319616990825
2017.0,0.1447838052666366
2016.0,0.1447838052666366
2015.0,0.14466259553045968
2014.0,0.1446020033459312
2013.0,0.14448084433219988
2012.0,0.14435971910985468
2011.0,0.14423862766005224
2010.0,0.1441175699639643
2009.0,0.143996546002779
2008.0,0.14393604666690019
2007.0,0.14393604666690019
2006.0,0.14393604666690019
2005.0,0.143996546002779
2004.0,0.1441175699639643
2003.0,0.1441175699639643
2002.0,0.14393604666690019
2001.0,0.14369413356670102
2000.0,0.14345235514325205
1999.0,0.14339193156306385
1998.0,0.14339193156306385
1997.0,0.14339193156306385
1996.0,0.14345235514325205
1995.0,0.14357322752975565
1994.0,0.14363367634075197
1993.0,0.14363367634075197
1992.0,0.14363367634075197
1991.0,0.14363367634075197
1990.0,0.14363367634075197
1989.0,0.14345235514325205
1988.0,0.14333151638846497
1987.0,0.1432711096171173
1986.0,0.14333151638846497
1985.0,0.14339193156306385
1984.0,0.14339193156306385
1983.0,0.14339193156306385
1982.0,0.14339193156306385
1981.0,0.14333151638846497
1980.0,0.1432711096171173
1979.0,0.14315032127482774
1978.0,0.14302956651750764
1977.0,0.14284849731250704
1976.0,0.1427278264359586
1975.0,0.1427881576831076
1974.0,0.14290884532648618
1973.0,0.14296920172737604
1972.0,0.14290884532648618
1971.0,0.1427881576831076
1970.0,0.1427278264359586
1969.0,0.14266750356873148
1968.0,0.14260718907909875
1967.0,0.14266750356873148
1966.0,0.1427881576831076
1965.0,0.14290884532648618
1964.0,0.14302956651750764
1963.0,0.1430899396992138
1962.0,0.14315032127482774
1961.0,0.14315032127482774
1960.0,0.14315032127482774
1959.0,0.1432711096171173
1958.0,0.14345235514325205
1957.0,0.14363367634075197
1956.0,0.14363367634075197
1955.0,0.14357322752975565
1954.0,0.14345235514325205
1953.0,0.14333151638846497
1952.0,0.1432711096171173
1951.0,0.1432711096171173
1950.0,0.14345235514325205
1949.0,0.14369413356670102
1948.0,0.14375459920994582
1947.0,0.14375459920994582
1946.0,0.14363367634075197
1945.0,0.14345235514325205
1944.0,0.1432711096171173
1943.0,0.14321071124668383
1942.0,0.14333151638846497
1941.0,0.14345235514325205
1940.0,0.14333151638846497
1939.0,0.1430899396992138
1938.0,0.14266750356873148
1937.0,0.14212497447643746
1936.0,0.1415831222765116
1935.0,0.14122226269455074
1934.0,0.1410419452819942
1933.0,0.1409818561111058
1932.0,0.1409217752530305
1931.0,0.14086170270546927
1930.0,0.1407415825326932
1929.0,0.14056146454494378
1928.0,0.14032142337155173
1927.0,0.14002155835797914
1926.0,0.1396619934290062
1925.0,0.13930272594796111
1924.0,0.13894375542312654
1923.0,0.13858508136400327
1922.0,0.13834612978608907
1921.0,0.13816700234205515
1920.0,0.13798794874978348
1919.0,0.13792828062000573
1918.0,0.13792828062000573
1917.0,0.13786862068696282
1916.0,0.1375704438939911
1915.0,0.13715334001706125
1914.0,0.1367961409713705
1913.0,0.1363797797296844
1912.0,0.1360232160956132
1911.0,0.13560759484941132
1910.0,0.13531096586314884
1909.0,0.1350738084609946
1908.0,0.13483678049391368
1907.0,0.1345998818206986
1906.0,0.13442229258007088
1905.0,0.13436311230037123
1904.0,0.1341264717921853
1903.0,0.1337717526203528
1902.0,0.13335827943396006
1901.0,0.13306318226836056
1900.0,0.13270933014511588
1899.0,0.13241467345296387
1898.0,0.13212021654162043
1897.0,0.13194363817695853
1896.0,0.13176713157753506
1895.0,0.13153190097901324
1894.0,0.13123804178794973
1893.0,0.13094438129809216
1892.0,0.13053358991913355
1891.0,0.13018179202067182
1890.0,0.12994741830645506
1889.0,0.12971317100740865
1888.0,0.12942053944731513
1887.0,0.12901118623942476
1886.0,0.12854382597704617
1885.0,0.1280769681176266
1884.0,0.12761061158217912
1883.0,0.12726117252733116
1882.0,0.12702836926155658
1881.0,0.12691201440971422
1880.0,0.1267375405612734
1879.0,0.12638880300353272
1878.0,0.12592425477696523
1877.0,0.12540223129680017
1876.0,0.1248808345374317
1875.0,0.1244757360506914
1874.0,0.12418661116024232
1873.0,0.12389767862220635
1872.0,0.12355121312165873
1871.0,0.12314735239865637
1870.0,0.12285911021517903
1869.0,0.12274386688641381
1868.0,0.12262865413022594
1867.0,0.12228319913502328
1866.0,0.12188051530283239
1865.0,0.12153565465853111
1864.0,0.12124847982699793
1863.0,0.12096149476276286
1862.0,0.12061736282565727
1861.0,0.1202162199095842
1860.0,0.11981544717356662
1859.0,0.11930071078129845
1858.0,0.11890078161098283
1857.0,0.11867241589944855
1856.0,0.11850122038501709
1855.0,0.11833009232793867
1854.0,0.11798803837334138
1853.0,0.11758931562603192
1852.0,0.1170772093974013
1851.0,0.1165089098110701
1850.0,0.11594135290606156
1849.0,0.11554450392951199
1848.0,0.11514801725400226
1847.0,0.11503480179926728
1846.0,0.11514801725400226
1845.0,0.11543118508166672
1844.0,0.11548784080960606
1843.0,0.11514801725400226
1842.0,0.1145256971708426
1841.0,0.11401718864502697
1840.0,0.1136220932414278
1839.0,0.11328372588352176
1838.0,0.112945621949043
1837.0,0.11272036546997688
1836.0,0.11243895906999102
1835.0,0.1120452961911984
1834.0,0.1117081546434846
1833.0,0.1114835389250548
1832.0,0.11131515334030118
1831.0,0.11120293254331926
1830.0,0.11103465569966264
1829.0,0.11058623595729111
1828.0,0.11002636159600376
1827.0,0.10952309103982927
1826.0,0.10924374808178183
1825.0,0.10890877353227624
1824.0,0.10846254232743546
1823.0,0.10790539730951965
1822.0,0.10734896612269962
1821.0,0.10684878687013422
1820.0,0.10640466618011679
1819.0,0.10601643278815298
1818.0,0.10551778498990938
1817.0,0.10490910306560064
1816.0,0.10424605792627206
1815.0,0.10347378251044459
1814.0,0.10275789719463457
1813.0,0.10198826120249849
1812.0,0.10127481841050656
1811.0,0.1005078038618683
1810.0,0.09968750301627338
1809.0,0.09892328427374508
1808.0,0.09821485469640057
1807.0,0.09750757884139638
1806.0,0.09680145295702158
1805.0,0.09620485725896466
1804.0,0.09566320779750503
1803.0,0.0950141189006366
1802.0,0.09425807260839858
1801.0,0.09339562827501968
1800.0,0.09242742120144909
1799.0,0.09146136782804049
1798.0,0.0905509530187334
1797.0,0.08969583193143116
1796.0,0.08884239126002336
1795.0,0.0881502035005799
1794.0,0.08761850108119962
1793.0,0.08687520961044104
1792.0,0.08581556657675371
1791.0,0.08449463824562353
1790.0,0.08312512146131668
1789.0,0.08207457793525874
1788.0,0.08118360963962057
1787.0,0.08034671768963575
1786.0,0.0794592834975203
1785.0,0.07841755960658348
1784.0,0.0772226580712021
1783.0,0.0760310351245288
1782.0,0.07499749231902242
1781.0,0.07355465218161061
1780.0,0.07232173586200852
1779.0,0.07109230975604719
1778.0,0.06956040523329987
1777.0,0.0680846829187538
1776.0,0.06656333217371957
1775.0,0.06514819703433927
1774.0,0.06373765809652254
1773.0,0.06223143295006417
1772.0,0.06068046892176193
1771.0,0.05923456436878238
1770.0,0.05779345772290467
1769.0,0.05610995175152733
1768.0,0.05438372077326825
1767.0,0.05207638016827354
1766.0,0.04997609347667353
1765.0,0.048565334467987054
1764.0,0.04754660357696672
1763.0,0.04662694927330402
1762.0,0.0451788169482068
1761.0,0.0431115453499229
1760.0,0.04124505013091051
1759.0,0.0402909757535701
1758.0,0.0400527842915015
1757.0,0.03957679292217042
1756.0,0.038673844065289176
1755.0,0.038151940981675736
1754.0,0.03848398855105106
1753.0,0.039338992729018196
1752.0,0.04014804520039483
1751.0,0.041101805289228244
1750.0,0.04248848854552012
1749.0,0.04455278942230456
1748.0,0.047643522676209304
1747.0,0.05197846685889629
1746.0,0.05734718830678798
1745.0,0.06348625752110681
1744.0,0.07083661679493547
1743.0,0.07966792846041071
1742.0,0.08958906008531176
1741.0,0.10045306890913297
1740.0,0.112945621949043
1739.0,0.12731939284807026
1738.0,0.1415229581866595
1737.0,0.15372475758778692
1736.0,0.16494389827988365
1735.0,0.17815907279954568
1734.0,0.19702114466473808
1733.0,0.21853185715820178
1732.0,0.23619777592540725
1731.0,0.25142438306900816
1730.0,0.2677671197795022
1729.0,0.28567024025476706
1728.0,0.3042557248026767
1727.0,0.32230181852548934
1726.0,0.33989377827675593
1725.0,0.3578323655950548
1724.0,0.3771645204784797
1723.0,0.39772291569980744
1722.0,0.41816407594235194
1721.0,0.43663759051339257
1720.0,0.4528408786725824
1719.0,0.4683933680672778
1718.0,0.4851867050007146
1717.0,0.5032086842999575
1716.0,0.5182708030399841
1715.0,0.5291486754738823
1714.0,0.5370033879719438
1713.0,0.5424208530042374
1712.0,0.5446982283429236
1711.0,0.5440897596172571
1710.0,0.5409092103994135
1709.0,0.5358086293590003
1708.0,0.5290018303391264
1707.0,0.5204246898250116
1706.0,0.5094796906366512
1705.0,0.4970269409343686
1704.0,0.4869156395348557
1703.0,0.4800408192479315
1702.0,0.4737899961583356
1701.0,0.4639468448407953
1700.0,0.4495270428934366
1699.0,0.4361630813354551
1698.0,0.42736070295718664
1697.0,0.4198736745884175
1696.0,0.41060897686306697
1695.0,0.40088143494463724
1694.0,0.3934036908207148
1693.0,0.38848911287334364
1692.0,0.38415511712529793
1691.0,0.3791355247348789
1690.0,0.37314658533327427
1689.0,0.36744148546732824
1688.0,0.3629107264696696
1687.0,0.35922052265514304
1686.0,0.3550692920864127
1685.0,0.3494011018273431
1684.0,0.3434227086038859
1683.0,0.3395139842150323
1682.0,0.3375254962496905
1681.0,0.3357341998523251
1680.0,0.3332948638801012
1679.0,0.3305901327122174
1678.0,0.3279945549770482
1677.0,0.325414397697086
1676.0,0.32248429520124255
1675.0,0.31921138849331765
1674.0,0.3159629625134803
1673.0,0.31291715539562936
1672.0,0.3099812192113047
1671.0,0.3068888845378588
1670.0,0.30364361126666783
1669.0,0.30042240860109093
1668.0,0.2978280491422889
1667.0,0.2956778591777647
1666.0,0.29353826236864533
1665.0,0.2912392763096834
1664.0,0.2884458317498304
1663.0,0.28550259135019407
1662.0,0.28282897316768985
1661.0,0.28042014228627665
1660.0,0.2781069837850425
1659.0,0.27572413039921084
1658.0,0.2735173032151703
1657.0,0.2714838952402334
1656.0,0.26970233790285025
1655.0,0.2678475819347863
1654.0,0.2654401784205238
1653.0,0.2629664686661224
1652.0,0.2599532759485059
1651.0,0.25688237478525844
1650.0,0.255237762934422
1649.0,0.2543787786930616
1648.0,0.25297682254837217
1647.0,0.25134690657573255
1646.0,0.25041826513444065
1645.0,0.24964591123729196
1644.0,0.24848994972995864
1643.0,0.24726030606467186
1642.0,0.2461106685401666
1641.0,0.24488773360492888
1640.0,0.24359212745104175
1639.0,0.2423003749122612
1638.0,0.24093681183951277
1637.0,0.2393513804186438
1636.0,0.2379219126653609
1635.0,0.23709647150094293
1634.0,0.2363474294354697
1633.0,0.23545028093553277
1632.0,0.23433144524098592
1631.0,0.23314118897858238
1630.0,0.23195418589758332
1629.0,0.23077041826340627
1628.0,0.22973726182940668
1627.0,0.2287800980504664
1626.0,0.22797183467514515
1625.0,0.22709180502872828
1624.0,0.22606735253235488
1623.0,0.22504531091986135
1622.0,0.22417118553538762
1621.0,0.22337144657984997
1620.0,0.2225731776106885
1619.0,0.22177637323390353
1618.0,0.22112552799726037
1617.0,0.22112552799726037
1616.0,0.221921138062545
1615.0,0.2228632874958274
1614.0,0.22373478173189043
1613.0,0.2243167509739561
1612.0,0.22446236521904295
1611.0,0.2240256688706308
1610.0,0.22337144657984997
1609.0,0.222500680409635
1608.0,0.22148698826107527
1607.0,0.22033137279285198
1606.0,0.2192507688964478
1605.0,0.21795758337944582
1604.0,0.21652521241775347
1603.0,0.2150975501133452
1602.0,0.21381665443236653
1601.0,0.2126103786478899
1600.0,0.21133678687914248
1599.0,0.20999647960951062
1598.0,0.2087305190897315
1597.0,0.20739821883503362
1596.0,0.20593041601836748
1595.0,0.20467623567068616
1594.0,0.2037726859705613
1593.0,0.2032175882986922
1592.0,0.20259395032361804
1591.0,0.20183294028406085
1590.0,0.2010042655561186
1589.0,0.200246033588114
1588.0,0.19948912310563194
1587.0,0.19880216554085117
1586.0,0.19845909380968174
1585.0,0.1985276864785288
1584.0,0.19921420967223735
1583.0,0.20086630669793704
1582.0,0.20342566678957041
1581.0,0.20662875108104428
1580.0,0.20992605157369537
1579.0,0.2128939069634299
1578.0,0.2150975501133452
1577.0,0.21631076365268354
1576.0,0.21652521241775347
1575.0,0.21566805197785177
1574.0,0.21438547505317596
1573.0,0.21339052735134012
1572.0,0.2122562283535332
1571.0,0.2107013888405589
1570.0,0.2088007535011247
1569.0,0.2069083998234198
1568.0,0.20502425594886842
1567.0,0.20349504844670374
1566.0,0.20204035626280392
1565.0,0.200521601162019
1564.0,0.19914550849643908
1563.0,0.1981162928747604
1562.0,0.1974315016860435
1561.0,0.19654288435158618
1560.0,0.19504320014250842
1559.0,0.19429529556613567
1558.0,0.1944311824514442
1557.0,0.1934808659192948
1556.0,0.19232969876951622
1555.0,0.19145144875959463
1554.0,0.19064232978889417
1553.0,0.189767482004916
1552.0,0.18882730493344568
1551.0,0.188023055663046
1550.0,0.18735398376688117
1549.0,0.1867526991023949
1548.0,0.18608557995139652
1547.0,0.18541948398968144
1546.0,0.18455508375564977
1545.0,0.18349356295364294
1544.0,0.18223636771963214
1543.0,0.18111458540599013
1542.0,0.18006143064460467
1541.0,0.17920761891179637
1540.0,0.1784864715952268
1539.0,0.17750501472124913
1538.0,0.17633018673186363
1537.0,0.17580905934741686
1536.0,0.17587416608345108
1535.0,0.17606954487443605
1534.0,0.17619984625012197
1533.0,0.1764605663431411
1532.0,0.1765909851074554
1531.0,0.17626501160126873
1530.0,0.17567887514922864
1529.0,0.17509352869788763
1528.0,0.1745089701205691
1527.0,0.1739900222088997
1526.0,0.17353645090719882
1525.0,0.1730186630880064
1524.0,0.17230771132555445
1523.0,0.1712756728612086
1522.0,0.1701175535565067
1521.0,0.16915480769138846
1520.0,0.16845014800424418
1519.0,0.16787445746599094
1518.0,0.1673633724032968
1517.0,0.16653413982930765
1516.0,0.16557929631846746
1515.0,0.16475346000368907
1514.0,0.16424603248061653
1513.0,0.1637391971415132
1512.0,0.16323295260579473
1511.0,0.1627904721987936
1510.0,0.16266413198498508
1509.0,0.16316971351112097
1508.0,0.16564288728159493
1507.0,0.1739900222088997
1506.0,0.18735398376688117
1505.0,0.19592875111433883
1504.0,0.19825338078053978
1503.0,0.19784224681303852
1502.0,0.19592875111433883
1501.0,0.1928033392890527
1500.0,0.1886261029461067
1499.0,0.18395765907800343
1498.0,0.17907641211868253
1497.0,0.1745089701205691
1496.0,0.1705032502798176
1495.0,0.16717187046064663
1494.0,0.16462654752999129
1493.0,0.1627904721987936
1492.0,0.16121385505340546
1491.0,0.15945481236316117
1490.0,0.15745316350498495
1489.0,0.15577141869837208
1488.0,0.15471587365200845
1487.0,0.1538485234711846
1486.0,0.15292113793428452
1485.0,0.15211900255462485
1484.0,0.15131834597604965
1483.0,0.15064201833870117
1482.0,0.14990540561329913
1481.0,0.1493537648169334
1480.0,0.14898639317633
1479.0,0.14880282382583943
1478.0,0.14861933203440336
1477.0,0.14843591773651155
1476.0,0.14819148577176255
1475.0,0.1477030341730745
1474.0,0.14703230897118158
1473.0,0.14642345638035836
1472.0,0.1459369881335788
1471.0,0.14539036190420496
1470.0,0.14484442282300614
1469.0,0.14454141961396383
1468.0,0.14466259553045968
1467.0,0.14502632627358292
1466.0,0.14575470293388149
1465.0,0.14709324120304634
1464.0,0.1490476002065071
1463.0,0.15107228677292173
1462.0,0.15292113793428452
1461.0,0.1550260618531123
1460.0,0.15751557558842988
1459.0,0.16045910703103106
1458.0,0.16418264570652719
1457.0,0.1693471862025755
1456.0,0.1742494186519723
1455.0,0.17685194018930606
1454.0,0.17835548245778288
1453.0,0.17986424812957003
1452.0,0.18131233655848633
1451.0,0.18236853280948462
1450.0,0.18309616062433975
1449.0,0.18362611124763806
1448.0,0.18395765907800343
1447.0,0.18395765907800343
1446.0,0.18375870000821704
1445.0,0.1835598320438614
1444.0,0.18362611124763806
1443.0,0.1838250095711984
1442.0,0.1838913292600961
1441.0,0.1838913292600961
1440.0,0.1838913292600961
1439.0,0.1838250095711984
1438.0,0.18336105510153855
1437.0,0.18223636771963214
1436.0,0.17979854051435984
1435.0,0.17639537164484187
1434.0,0.17276000049435458
1433.0,0.16928305056310244
1432.0,0.16557929631846746
1431.0,0.1614027471833437
1430.0,0.15676722190199066
1429.0,0.15193410459600853
1428.0,0.1472151313194523
1427.0,0.14302956651750764
1426.0,0.13930272594796111
1425.0,0.13554825284181704
1424.0,0.1316495003520317
1423.0,0.1282519810081284
1422.0,0.12586622117202761
1421.0,0.12407101507707297
1420.0,0.12239832027072817
1419.0,0.1213058996038916
1418.0,0.12159311241900439
1417.0,0.12412880927263426
1416.0,0.12936203678919433
1415.0,0.13763006287711765
1414.0,0.1493537648169334
1413.0,0.1646899991309374
1412.0,0.18369240056806024
1411.0,0.20516354218543853
1410.0,0.2258481410452895
1409.0,0.24267990345332757
1408.0,0.2541448048262711
1407.0,0.2594794139463352
1406.0,0.25900606841511387
1405.0,0.2539888922480742
1404.0,0.2467234298155816
1403.0,0.23920068836928232
1402.0,0.23239893194966443
1401.0,0.22628667472297836
1400.0,0.2204035087421754
1399.0,0.21445663004340698
1398.0,0.2088709992727138
1397.0,0.2040505010971967
1396.0,0.19983300979863605
1395.0,0.19551981089400727
1394.0,0.19097927951632743
1393.0,0.1867526991023949
1392.0,0.1831623690979649
1391.0,0.17992996568767428
1390.0,0.17685194018930606
1389.0,0.17366599437777985
1388.0,0.1701175535565067
1387.0,0.16634300310712757
1386.0,0.1627904721987936
1385.0,0.1600822243213189
1384.0,0.1582027011256446
1383.0,0.15682953548010214
1382.0,0.1558335895497993
1381.0,0.15533647175976073
1380.0,0.15552282425431851
1379.0,0.15639352807548912
1378.0,0.15776531365276036
1377.0,0.15970566838856382
1376.0,0.16209605540705763
1375.0,0.16519794595130088
1374.0,0.16928305056310244
1373.0,0.17373078060627378
1372.0,0.17763574755845046
1371.0,0.18065351591954726
1370.0,0.18289759574307696
1369.0,0.18422307970163732
1368.0,0.18435585086803474
1367.0,0.18309616062433975
1366.0,0.18039026724841478
1365.0,0.17626501160126873
1364.0,0.1706318920111798
1363.0,0.16354928627984533
1362.0,0.15589576930248672
1361.0,0.148864004988426
1360.0,0.14302956651750764
1359.0,0.13798794874978348
1358.0,0.13347637446715632
1357.0,0.12924505510985984
1356.0,0.12540223129680017
1355.0,0.12188051530283239
1354.0,0.11872949607064243
1353.0,0.11605480496572018
1352.0,0.1137349409702435
1351.0,0.11182050608167504
1350.0,0.11025022473596224
1349.0,0.10929960230112479
1348.0,0.10896458468468917
1347.0,0.10929960230112479
1346.0,0.11036219959333216
1345.0,0.1120452961911984
1344.0,0.11418662533951118
1343.0,0.11662251025166115
1342.0,0.11890078161098283
1341.0,0.12061736282565727
1340.0,0.1213058996038916
1339.0,0.1207320431753871
1338.0,0.11878658374498086
1337.0,0.11565785235294102
1336.0,0.11142740314240007
1335.0,0.1063491830140364
1334.0,0.10094593200182911
1333.0,0.09560907998763835
1332.0,0.09060445403289452
1331.0,0.086239113587677
1330.0,0.08259953204474924
1329.0,0.07977228854307139
1328.0,0.07779372256098371
1327.0,0.07654873036034848
1326.0,0.0760310351245288
1325.0,0.07613452481449845
1324.0,0.07670415934449615
1323.0,0.07763790321520991
1322.0,0.07878187880504961
1321.0,0.08013774644446192
1320.0,0.08155025759884227
1319.0,0.08301995267961781
1318.0,0.08449463824562353
1317.0,0.08597434830367123
1316.0,0.08745911720936239
1315.0,0.08889568219596411
1314.0,0.09044397075882471
1313.0,0.09226626300234453
1312.0,0.09447395156495153
1311.0,0.09718153191774648
1310.0,0.10012480397898926
1309.0,0.10330847343711591
1308.0,0.10662666975397506
1307.0,0.11002636159600376
1306.0,0.11339648571328764
1305.0,0.11667932161702477
1304.0,0.11992991593593283
1303.0,0.12337808396572703
1302.0,0.12743585690934855
1301.0,0.13241467345296387
1300.0,0.1384058553561347
1299.0,0.1455724942121388
1298.0,0.15360102696532518
1297.0,0.16247469055039865
1296.0,0.17192040944325404
1295.0,0.18170810920000413
1294.0,0.19151894343404896
1293.0,0.20121128604875071
1292.0,0.21077194273266486
1291.0,0.22025924882325953
1290.0,0.22944252514900487
1289.0,0.23822246249182188
1288.0,0.24649354300903004
1287.0,0.25422278211024096
1286.0,0.2613779720820575
1285.0,0.26808905788312765
1284.0,0.2742516670044517
1283.0,0.27992342723185937
1282.0,0.28483264215154214
1281.0,0.28903688100472436
1280.0,0.29268536641129206
1279.0,0.29576366269121235
1278.0,0.2983456826742519
1277.0,0.3005091547277956
1276.0,0.3028578737245404
1275.0,0.30574588797472146
1274.0,0.30927245612963317
1273.0,0.31398970868471454
1272.0,0.32029961912803584
1271.0,0.32845691473742633
1270.0,0.33837659077076987
1269.0,0.34978964533964096
1268.0,0.362610349870788
1267.0,0.37664731846200805
1266.0,0.3912600809312121
1265.0,0.40604970473601254
1264.0,0.4209026734473562
1263.0,0.4352156154960132
1262.0,0.4484280263257463
1261.0,0.4601714416221019
1260.0,0.47056964563301396
1259.0,0.47925452848051764
1258.0,0.4858508655245626
1257.0,0.49079747766889725
1256.0,0.4951215405897842
1255.0,0.49894073778224857
1254.0,0.5026556189824201
1253.0,0.5064025509994732
1252.0,0.5108856306210807
1251.0,0.5164127030311059
1250.0,0.5223000716678692
1249.0,0.5291486754738823
1248.0,0.5368538632736504
1247.0,0.5450027826905399
1246.0,0.5529971015338377
1245.0,0.5605094096103165
1244.0,0.5681539543012746
1243.0,0.5756084455897224
1242.0,0.582196277360119
1241.0,0.5877074906769535
1240.0,0.5922692719736646
1239.0,0.5955083822413141
1238.0,0.5965362986546825
1237.0,0.595850750790305
1236.0,0.5936301645307325
1235.0,0.5900668766687054
1234.0,0.5845258318907642
1233.0,0.5777385491863973
1232.0,0.5707323335668315
1231.0,0.5636782998602667
1230.0,0.5564241202497424
1229.0,0.5491353076202339
1228.0,0.5422694517540014
1227.0,0.5356595153723327
1226.0,0.5287082889410615
1225.0,0.5217221680803954
1224.0,0.514988785421427
1223.0,0.5083582065224139
1222.0,0.5015515968260003
1221.0,0.49457867241671893
1220.0,0.48798303050387326
1219.0,0.4818810528568469
1218.0,0.475603877896158
1217.0,0.4694161403548822
1216.0,0.4634415574284698
1215.0,0.4577972175659717
1214.0,0.45197930509446893
1213.0,0.4463596637686458
1212.0,0.4410515540219604
1211.0,0.43592602102285327
1210.0,0.4309774139704363
1209.0,0.42596873227228116
1208.0,0.42113167133397145
1207.0,0.416461180745648
1206.0,0.41161623162127237
1205.0,0.40682473652189755
1204.0,0.40208552879747184
1203.0,0.3976144098948948
1202.0,0.3930814740517088
1201.0,0.38859536228840663
1200.0,0.384365531122584
1199.0,0.3801764995427219
1198.0,0.3757179041643317
1197.0,0.37130461728597663
1196.0,0.36683464631609675
1195.0,0.362610349870788
1194.0,0.3584267468218245
1193.0,0.3540867249661557
1192.0,0.34978964533964096
1191.0,0.34534224535047553
1190.0,0.3406543642538229
1189.0,0.3358282946380693
1188.0,0.331334584545508
1187.0,0.32716354582860285
1186.0,0.3230321857052414
1185.0,0.31903028153410284
1184.0,0.31524437789137605
1183.0,0.3119363030536557
1182.0,0.3091839420190845
1181.0,0.3070649974688622
1180.0,0.30583370406680177
1179.0,0.3051316720175439
1178.0,0.304781081094849
1177.0,0.3046058917088901
1176.0,0.30451832350980257
1175.0,0.3044307729638145
1174.0,0.3040807471686
1173.0,0.3032942190660828
1172.0,0.30189945437661003
1171.0,0.29972906264356314
1170.0,0.2963647624161041
1169.0,0.29191918953176854
1168.0,0.28676153845433827
1167.0,0.2811662816961378
1166.0,0.2753146117626406
1165.0,0.2692177243336109
1164.0,0.26328486639438897
1163.0,0.2575105354182248
1162.0,0.25204469309327027
1161.0,0.2465701584245772
1160.0,0.241315150117559
1159.0,0.23597339230796277
1158.0,0.23084430928560118
1157.0,0.22592119924748122
1156.0,0.22134236805264473
1155.0,0.21731243176503368
1154.0,0.2137456042102197
1153.0,0.2108425080885603
1152.0,0.20859008433283988
1151.0,0.20697834015401684
1150.0,0.20620961530918125
1149.0,0.20641913263184408
1148.0,0.20774842809673588
1147.0,0.2100669190682496
1146.0,0.2133195468033513
1145.0,0.2173840679683965
1144.0,0.22221081256513253
1143.0,0.2276049389179997
1142.0,0.23328979273774086
1141.0,0.2389747482886273
1140.0,0.2445062715848807
1139.0,0.2498774732165998
1138.0,0.25492520841794253
1137.0,0.2596373105057561
1136.0,0.26408188346870287
1135.0,0.26808905788312765
1134.0,0.27164621797877153
1133.0,0.27506908580760214
1132.0,0.2785191452299507
1131.0,0.28207997416300645
1130.0,0.28583795390114686
1129.0,0.2899673009342465
1128.0,0.2949063894521269
1127.0,0.30094314545233236
1126.0,0.30803489723263966
1125.0,0.31623273857468837
1124.0,0.325414397697086
1123.0,0.3353580244438745
1122.0,0.3455346664798542
1121.0,0.3556599011736774
1120.0,0.3656235059116322
1119.0,0.3743789185750923
1118.0,0.3812199754937853
1117.0,0.3857357126412948
1116.0,0.3877460939035626
1115.0,0.38742804593482383
1114.0,0.38489201255680605
1113.0,0.38080228420705264
1112.0,0.37633729264379534
1111.0,0.37242933581945703
1110.0,0.3698773571406879
1109.0,0.36926710718280353
1108.0,0.37130461728597663
1107.0,0.3759242688543174
1106.0,0.38299965887910115
1105.0,0.3925449767853315
1104.0,0.40439356513439706
1103.0,0.4180503416266821
1102.0,0.43309134477319655
1101.0,0.449038247701824
1100.0,0.46546624399488445
1099.0,0.4813544756696886
1098.0,0.4960731958064897
1097.0,0.5091990479891451
1096.0,0.5208567520213869
1095.0,0.5310621943345386
1094.0,0.5392524581558029
1093.0,0.5453075507605232
1092.0,0.5492891218530807
1091.0,0.5514482607984219
1090.0,0.5520671344078198
1089.0,0.5516028965422324
1088.0,0.550521600812635
1087.0,0.5489815478445426
1086.0,0.5466816599529623
1085.0,0.5439377755450485
1084.0,0.541211118289155
1083.0,0.5382014424748907
1082.0,0.5341711846425636
1081.0,0.5295895090240692
1080.0,0.5249101966109935
1079.0,0.520280764560429
1078.0,0.5152731957013381
1077.0,0.509900994936695
1076.0,0.5044556624535514
1075.0,0.49894073778224857
1074.0,0.4929541275726743
1073.0,0.48678239993206107
1072.0,0.4806971507645712
1071.0,0.47482557216472854
1070.0,0.468904453129972
1069.0,0.46293685721838296
1068.0,0.4575480526240234
1067.0,0.45247142354021785
1066.0,0.44769689066164586
1065.0,0.44297427761361674
1064.0,0.43830246734600653
1063.0,0.4336803784751886
1062.0,0.42910696378160784
1061.0,0.4244657816801356
1060.0,0.4198736745884175
1059.0,0.4153296155356512
1058.0,0.4104972037362362
1057.0,0.40593909872958167
1056.0,0.402195157595707
1055.0,0.3993537643376055
1054.0,0.39718065756730025
1053.0,0.3956659268970888
1052.0,0.3950183703925685
1051.0,0.3951262294473643
1050.0,0.3957739469155299
1049.0,0.3966390756516196
1048.0,0.39772291569980744
1047.0,0.3992448503603818
1046.0,0.40088143494463724
1045.0,0.4028535121663046
1044.0,0.4050552633049167
1043.0,0.4072682336060378
1042.0,0.4090467648120142
1041.0,0.4103854593687337
1040.0,0.4113921952573134
1039.0,0.4120646513636439
1038.0,0.4122890349810886
1037.0,0.412176828681045
1036.0,0.4119525030139173
1035.0,0.4112802203999435
1034.0,0.41005039867429227
1033.0,0.4082677610481644
1032.0,0.40638169187046413
1031.0,0.40439356513439706
1030.0,0.40208552879747184
1029.0,0.3992448503603818
1028.0,0.39609816826832867
1027.0,0.39265222323158655
1026.0,0.3889142665851273
1025.0,0.3852082080435826
1024.0,0.38226596463598206
1023.0,0.3812199754937853
1022.0,0.383419469914114
1021.0,0.39008558991400233
1020.0,0.40197592766581036
1019.0,0.41816407594235194
1018.0,0.43663759051339257
1017.0,0.4546928835341759
1016.0,0.4694161403548822
1015.0,0.4782083503608765
1014.0,0.4804344991194909
1013.0,0.47716468633947007
1012.0,0.4706980022120195
1011.0,0.4631891340084586
1010.0,0.45593195564972433
1009.0,0.4494047925106721
1008.0,0.4433357378774314
1007.0,0.43782613663535175
1006.0,0.43250310889577737
1005.0,0.4281747509591709
1004.0,0.42458120878564
1003.0,0.4214753947250067
1002.0,0.4182778400509013
1001.0,0.41487781369318455
1000.0,0.4115041989927899
999.0,0.4084901910053458
998.0,0.40582852088508803
997.0,0.4034029043735399
996.0,0.40142833651785903
995.0,0.39968067024833887
994.0,0.39783144862100284
993.0,0.39599006758776967
992.0,0.39437177799238143
991.0,0.39275949616825745
990.0,0.39104630072413715
989.0,0.38933983691012
988.0,0.3877460939035626
987.0,0.38647529714634765
986.0,0.38541913300251385
985.0,0.3844707763628672
984.0,0.38373459471829174
983.0,0.3828947694976219
982.0,0.3817426551595986
981.0,0.3805935891132226
980.0,0.3795516152882912
979.0,0.37882371822496475
978.0,0.37809703910876946
977.0,0.3776823391661557
976.0,0.37778597703370465
975.0,0.37820077599733226
974.0,0.37830453767072125
973.0,0.3779933269931952
972.0,0.3773715738706751
971.0,0.3768541253620603
970.0,0.37633729264379534
969.0,0.37582107425197764
968.0,0.3753054687279187
967.0,0.3743789185750923
966.0,0.3732491463166068
965.0,0.3719177390093207
964.0,0.37089634982286346
963.0,0.3700809644964582
962.0,0.36916548217194944
961.0,0.36804917374078294
960.0,0.36683464631609675
959.0,0.365724305374056
958.0,0.3643152374527774
957.0,0.3629107264696696
956.0,0.36151074304536257
955.0,0.3605135107314139
954.0,0.3595185630295781
953.0,0.3583276267753135
952.0,0.3571399474155086
951.0,0.3560540872519333
950.0,0.3550692920864127
949.0,0.354381261757305
948.0,0.35369431971524135
947.0,0.35291057128344505
946.0,0.35193287055106537
945.0,0.35095736591382365
944.0,0.3500812812645808
943.0,0.3492069603480692
942.0,0.3482375526198891
941.0,0.3471736974389954
940.0,0.34620881261218805
939.0,0.3451499094386059
938.0,0.3441895055047477
937.0,0.34313550845108276
936.0,0.34217954398430295
935.0,0.3411304077980377
934.0,0.3400837999301498
933.0,0.3392293564723028
932.0,0.33856594960608
931.0,0.33818731446273875
930.0,0.3377144842778699
929.0,0.33686468504224587
928.0,0.3358282946380693
927.0,0.334606649720288
926.0,0.33310778893346393
925.0,0.33170728955177897
924.0,0.3305901327122174
923.0,0.3296613588725579
922.0,0.32845691473742633
921.0,0.3268868957617663
920.0,0.3253225321268012
919.0,0.32413004468104334
918.0,0.32312356802686293
917.0,0.32202824718926015
916.0,0.32066296947920603
915.0,0.31921138849331765
914.0,0.3177646430974359
913.0,0.31650268232018863
912.0,0.31551370781126575
911.0,0.3147958655289853
910.0,0.31425826139773627
909.0,0.3139002280040841
908.0,0.3139002280040841
907.0,0.3143478158844757
906.0,0.31506491735911046
905.0,0.3158730743869247
904.0,0.31686286851699297
903.0,0.3183970012691315
902.0,0.3203904282202441
901.0,0.3225755622987525
900.0,0.32477174640693596
899.0,0.32670256024036415
898.0,0.3283644033978703
897.0,0.3298469548078198
896.0,0.3310552655422663
895.0,0.33170728955177897
894.0,0.3315208970674144
893.0,0.33096219911484415
892.0,0.3302183847914635
891.0,0.32993978252686573
890.0,0.33003263009149597
889.0,0.33049716589565703
888.0,0.33096219911484415
887.0,0.3314277308154421
886.0,0.33170728955177897
885.0,0.3318005158013382
884.0,0.3318937620672686
883.0,0.33236029394358924
882.0,0.3334820194451191
881.0,0.3355460714188425
880.0,0.3386606599939601
879.0,0.34246611244201386
878.0,0.3468840068344332
877.0,0.3520305416370282
876.0,0.35793137265849584
875.0,0.3644157336887699
874.0,0.37110043557939343
873.0,0.3773715738706751
872.0,0.3827899054425661
871.0,0.38679264789624024
870.0,0.3889142665851273
869.0,0.38944629468290537
868.0,0.38880793913156575
867.0,0.38732208168349813
866.0,0.384576047114056
865.0,0.38090666937325723
864.0,0.3769575657536184
863.0,0.37314658533327427
862.0,0.36957212497497616
861.0,0.36632959394855624
860.0,0.3636124141868433
859.0,0.36111157529492455
858.0,0.358724242768087
857.0,0.35634996178267087
856.0,0.35428306063039616
855.0,0.3527148549746333
854.0,0.351835221425999
853.0,0.35144484433732925
852.0,0.35115229162710637
851.0,0.35076252765039273
850.0,0.3500812812645808
849.0,0.3493040202393891
848.0,0.3488189375553121
847.0,0.3489159107569886
846.0,0.3491099221436875
845.0,0.3494011018273431
844.0,0.3494982051216331
843.0,0.3494982051216331
842.0,0.3495953301319683
841.0,0.3499840475281615
840.0,0.35047043405218115
839.0,0.35056777675838346
838.0,0.3502758140704776
837.0,0.34988683555642863
836.0,0.34978964533964096
835.0,0.34978964533964096
834.0,0.3493040202393891
833.0,0.3484312611342082
832.0,0.34736693191688994
831.0,0.3464016181567102
830.0,0.3455346664798542
829.0,0.3446694419906591
828.0,0.3436142809413123
827.0,0.34256167729703746
826.0,0.341511618690983
825.0,0.3407495312273392
824.0,0.3400837999301498
823.0,0.3391345219961308
822.0,0.3376199799837525
821.0,0.33611070137733856
820.0,0.33517005885690954
819.0,0.3347943715653994
818.0,0.334606649720288
817.0,0.3342314492806202
816.0,0.33395026151948404
815.0,0.3337629041041956
814.0,0.3332948638801012
813.0,0.33292079453578327
812.0,0.33282732752113153
811.0,0.33292079453578327
810.0,0.3327338806177258
809.0,0.3318937620672686
808.0,0.33096219911484415
807.0,0.3302183847914635
806.0,0.329754146925876
805.0,0.32938311359967454
804.0,0.32901239698996587
803.0,0.328271911760442
802.0,0.32725580169340085
801.0,0.3258740172572918
800.0,0.3245883062851367
799.0,0.3237637832366884
798.0,0.3233063903751334
797.0,0.3237637832366884
796.0,0.3255981871547182
795.0,0.32873456705284165
794.0,0.33245366048848357
793.0,0.3357341998523251
792.0,0.3378090091409929
791.0,0.3384712598680175
790.0,0.3377144842778699
789.0,0.33611070137733856
788.0,0.3338565727084417
787.0,0.331334584545508
786.0,0.32845691473742633
785.0,0.325414397697086
784.0,0.32230181852548934
783.0,0.31948319061874497
782.0,0.3169529617611504
781.0,0.3149752148942859
780.0,0.31327437892545795
779.0,0.31149119234347866
778.0,0.3091839420190845
777.0,0.3066248489748147
776.0,0.3042557248026767
775.0,0.3025962767995123
774.0,0.30120374820956886
773.0,0.2994693430214084
772.0,0.297224922098956
771.0,0.2946495371142881
770.0,0.292089334286894
769.0,0.2898826348881838
768.0,0.28793985753892537
767.0,0.28575408898210597
766.0,0.283078926833239
765.0,0.2803373169819534
764.0,0.27777753603026967
763.0,0.2756421957735735
762.0,0.2732727909734278
761.0,0.2703493316640797
760.0,0.2668830185579356
759.0,0.26320524507563947
758.0,0.25940048718884356
757.0,0.2555505425532014
756.0,0.25157937753243176
755.0,0.24749059921115713
754.0,0.24298376526869947
753.0,0.23807216157947098
752.0,0.2326214758858196
751.0,0.22657927670938993
750.0,0.2196826878598488
749.0,0.2119731159041962
748.0,0.2036338450224786
747.0,0.19517932127883775
746.0,0.18681946741398825
745.0,0.17887967622317635
744.0,0.17179138553205453
743.0,0.1657700971483227
742.0,0.16146572948813143
741.0,0.15983115075924403
740.0,0.16209605540705763
739.0,0.16928305056310244
738.0,0.18144422070219735
737.0,0.19797924822802404
736.0,0.21745571598998992
735.0,0.23807216157947098
734.0,0.25900606841511387
733.0,0.28058584029740663
732.0,0.3039058400047767
731.0,0.329754146925876
730.0,0.35822852934604077
729.0,0.3898723869240046
728.0,0.4251588049366153
727.0,0.46331532737907
726.0,0.5019652763129732
725.0,0.5371529641683264
724.0,0.563519304990505
723.0,0.5775743236287953
722.0,0.5775743236287953
721.0,0.5662301660751343
720.0,0.5495969138446337
719.0,0.5332806283184013
718.0,0.5197055399969934
717.0,0.5082182244158342
716.0,0.4975728800155672
715.0,0.48731560378283634
714.0,0.47755576649368026
713.0,0.4687766254669732
712.0,0.461929212956828
711.0,0.456925764966468
710.0,0.45308735681875745
709.0,0.449771646944906
708.0,0.44721014980721807
707.0,0.4452686233240335
706.0,0.4430947309445521
705.0,0.44033272161194237
704.0,0.437231456983481
703.0,0.43415218132648237
702.0,0.4309774139704363
701.0,0.42712839779951994
700.0,0.4229680143739687
699.0,0.4191890273390537
698.0,0.41668784801692227
697.0,0.41476493663422476
696.0,0.41251353458903584
695.0,0.4090467648120142
694.0,0.40450377817442584
693.0,0.40011692792631215
692.0,0.3964226318485333
691.0,0.3932962586663258
690.0,0.38976582466561127
689.0,0.38626385873812863
688.0,0.3835244861114344
687.0,0.3818472666214805
686.0,0.3801764995427219
685.0,0.3779933269931952
684.0,0.3757179041643317
683.0,0.37468754903832613
682.0,0.3749963989851366
681.0,0.3756147585797349
680.0,0.37613073164969757
679.0,0.37602748798300367
678.0,0.3753054687279187
677.0,0.3739677521709812
676.0,0.37283904762522413
675.0,0.37212230542002844
674.0,0.37089634982286346
673.0,0.3687592197644909
672.0,0.3659259745125316
671.0,0.3625102704874894
670.0,0.3570411205902093
669.0,0.3482375526198891
668.0,0.3400837999301498
667.0,0.3390397082239165
666.0,0.3434227086038859
665.0,0.34746358140697464
664.0,0.3486250560869568
663.0,0.34746358140697464
662.0,0.3458234581220394
661.0,0.3446694419906591
660.0,0.3442854503812902
659.0,0.3450537734156558
658.0,0.34649805303706716
657.0,0.3466909870615211
656.0,0.34457341225408133
655.0,0.341035157335565
654.0,0.3382819423053407
653.0,0.3376199799837525
652.0,0.3386606599939601
651.0,0.3395139842150323
650.0,0.33856594960608
649.0,0.3357341998523251
648.0,0.33282732752113153
647.0,0.3314277308154421
646.0,0.331334584545508
645.0,0.3305901327122174
644.0,0.3286419965565084
643.0,0.3270713095572775
642.0,0.32771737521107935
641.0,0.3304042189756866
640.0,0.3335756274812405
639.0,0.3363932918754797
638.0,0.33941908757270056
637.0,0.34380593782081426
636.0,0.34988683555642863
635.0,0.35634996178267087
634.0,0.3610118406563181
633.0,0.36221017063777095
632.0,0.3600157519584115
631.0,0.3557584141562713
630.0,0.35056777675838346
629.0,0.344861565188618
628.0,0.3388501427552135
627.0,0.3335756274812405
626.0,0.33049716589565703
625.0,0.3298469548078198
624.0,0.3304042189756866
623.0,0.3304042189756866
622.0,0.329197715739056
621.0,0.3279021420642825
620.0,0.3279021420642825
619.0,0.32938311359967454
618.0,0.33096219911484415
617.0,0.3304042189756866
616.0,0.3269790928711038
615.0,0.32230181852548934
614.0,0.31893975636818817
613.0,0.318306607995436
612.0,0.31948319061874497
611.0,0.3203904282202441
610.0,0.31975516295739226
609.0,0.31803554100531684
608.0,0.31623273857468837
607.0,0.3148855309534606
606.0,0.3137213219327988
605.0,0.31291715539562936
604.0,0.3128278954052004
603.0,0.31363189652696377
602.0,0.31461659019851274
601.0,0.3148855309534606
600.0,0.3141687253739365
