cm-1,A
4000.0,0.007225635744644521
3999.0,0.007181479933320523
3998.0,0.007181479933320523
3997.0,0.007137328610972382
3996.0,0.007093181776687496
3995.0,0.007049039429553483
3994.0,0.007004901568658406
3993.0,0.00696076819309055
3992.0,0.007004901568658406
3991.0,0.007004901568658406
3990.0,0.007049039429553483
3989.0,0.007093181776687496
3988.0,0.007049039429553483
3987.0,0.007004901568658406
3986.0,0.006872514894289861
3985.0,0.006740168563263094
3984.0,0.006651960076740071
3983.0,0.006607862550997545
3982.0,0.006651960076740071
3981.0,0.006784279525863024
3980.0,0.006916639301937977
3979.0,0.007004901568658406
3978.0,0.007137328610972382
3977.0,0.007137328610972382
3976.0,0.007093181776687496
3975.0,0.007049039429553483
3974.0,0.00696076819309055
3973.0,0.006916639301937977
3972.0,0.006916639301937977
3971.0,0.00696076819309055
3970.0,0.007004901568658406
3969.0,0.007049039429553483
3968.0,0.007049039429553483
3967.0,0.007049039429553483
3966.0,0.007004901568658406
3965.0,0.007004901568658406
3964.0,0.00696076819309055
3963.0,0.007004901568658406
3962.0,0.00696076819309055
3961.0,0.00696076819309055
3960.0,0.007004901568658406
3959.0,0.007004901568658406
3958.0,0.007049039429553483
3957.0,0.007049039429553483
3956.0,0.007004901568658406
3955.0,0.00696076819309055
3954.0,0.006872514894289861
3953.0,0.006828394969235152
3952.0,0.006784279525863024
3951.0,0.006784279525863024
3950.0,0.006872514894289861
3949.0,0.00696076819309055
3948.0,0.007004901568658406
3947.0,0.00696076819309055
3946.0,0.006872514894289861
3945.0,0.006828394969235152
3944.0,0.006828394969235152
3943.0,0.006872514894289861
3942.0,0.00696076819309055
3941.0,0.007004901568658406
3940.0,0.007049039429553483
3939.0,0.007093181776687496
3938.0,0.007093181776687496
3937.0,0.007049039429553483
3936.0,0.00696076819309055
3935.0,0.00696076819309055
3934.0,0.007004901568658406
3933.0,0.007049039429553483
3932.0,0.007004901568658406
3931.0,0.006916639301937977
3930.0,0.006828394969235152
3929.0,0.006784279525863024
3928.0,0.006784279525863024
3927.0,0.006872514894289861
3926.0,0.00696076819309055
3925.0,0.007004901568658406
3924.0,0.00696076819309055
3923.0,0.006872514894289861
3922.0,0.006872514894289861
3921.0,0.006916639301937977
3920.0,0.00696076819309055
3919.0,0.007004901568658406
3918.0,0.007049039429553483
3917.0,0.007049039429553483
3916.0,0.007093181776687496
3915.0,0.007181479933320523
3914.0,0.007313960837872058
3913.0,0.007402303897961815
3912.0,0.0074464821678643656
3911.0,0.007358130121602358
3910.0,0.007181479933320523
3909.0,0.006916639301937977
3908.0,0.006696062080525422
3907.0,0.006475596832934416
3906.0,0.006431517210272464
3905.0,0.00656376950238835
3904.0,0.006740168563263094
3903.0,0.006872514894289861
3902.0,0.007004901568658406
3901.0,0.007181479933320523
3900.0,0.007313960837872058
3899.0,0.007358130121602358
3898.0,0.007269796045857202
3897.0,0.007181479933320523
3896.0,0.007137328610972382
3895.0,0.007093181776687496
3894.0,0.007093181776687496
3893.0,0.007225635744644521
3892.0,0.007313960837872058
3891.0,0.007181479933320523
3890.0,0.006828394969235152
3889.0,0.00656376950238835
3888.0,0.006607862550997545
3887.0,0.006696062080525422
3886.0,0.006651960076740071
3885.0,0.006431517210272464
3884.0,0.00621118618129457
3883.0,0.00625524344553785
3882.0,0.006519680930003435
3881.0,0.006740168563263094
3880.0,0.006784279525863024
3879.0,0.006651960076740071
3878.0,0.006607862550997545
3877.0,0.006740168563263094
3876.0,0.006828394969235152
3875.0,0.006696062080525422
3874.0,0.006343371384537999
3873.0,0.006035001804881146
3872.0,0.006079041198713275
3871.0,0.006431517210272464
3870.0,0.006651960076740071
3869.0,0.006519680930003435
3868.0,0.006387442061109638
3867.0,0.006475596832934416
3866.0,0.006651960076740071
3865.0,0.006696062080525422
3864.0,0.006651960076740071
3863.0,0.006651960076740071
3862.0,0.006740168563263094
3861.0,0.006872514894289861
3860.0,0.006872514894289861
3859.0,0.006740168563263094
3858.0,0.00656376950238835
3857.0,0.006343371384537999
3856.0,0.00625524344553785
3855.0,0.006475596832934416
3854.0,0.006872514894289861
3853.0,0.006828394969235152
3852.0,0.006387442061109638
3851.0,0.006475596832934416
3850.0,0.007004901568658406
3849.0,0.007313960837872058
3848.0,0.007269796045857202
3847.0,0.007049039429553483
3846.0,0.006784279525863024
3845.0,0.006607862550997545
3844.0,0.006431517210272464
3843.0,0.00625524344553785
3842.0,0.006079041198713275
3841.0,0.005990966876386672
3840.0,0.006035001804881146
3839.0,0.00612308505878878
3838.0,0.006167133386013823
3837.0,0.006079041198713275
3836.0,0.006035001804881146
3835.0,0.006167133386013823
3834.0,0.006387442061109638
3833.0,0.00656376950238835
3832.0,0.006696062080525422
3831.0,0.006651960076740071
3830.0,0.006607862550997545
3829.0,0.006696062080525422
3828.0,0.006828394969235152
3827.0,0.006828394969235152
3826.0,0.006651960076740071
3825.0,0.006343371384537999
3824.0,0.00612308505878878
3823.0,0.006167133386013823
3822.0,0.006343371384537999
3821.0,0.006299305179649828
3820.0,0.00590291041179003
3819.0,0.00577085918230158
3818.0,0.006167133386013823
3817.0,0.006784279525863024
3816.0,0.007137328610972382
3815.0,0.007093181776687496
3814.0,0.007049039429553483
3813.0,0.007269796045857202
3812.0,0.0074464821678643656
3811.0,0.007402303897961815
3810.0,0.007181479933320523
3809.0,0.007093181776687496
3808.0,0.007137328610972382
3807.0,0.007049039429553483
3806.0,0.006607862550997545
3805.0,0.00625524344553785
3804.0,0.00621118618129457
3803.0,0.006519680930003435
3802.0,0.006828394969235152
3801.0,0.006740168563263094
3800.0,0.006475596832934416
3799.0,0.00656376950238835
3798.0,0.007004901568658406
3797.0,0.007402303897961815
3796.0,0.0074464821678643656
3795.0,0.007358130121602358
3794.0,0.007313960837872058
3793.0,0.0074464821678643656
3792.0,0.00762324020119709
3791.0,0.007667440952535687
3790.0,0.00762324020119709
3789.0,0.007534852191956709
3788.0,0.007490664932224611
3787.0,0.007490664932224611
3786.0,0.007534852191956709
3785.0,0.007490664932224611
3784.0,0.007313960837872058
3783.0,0.007137328610972382
3782.0,0.007093181776687496
3781.0,0.007181479933320523
3780.0,0.007358130121602358
3779.0,0.0074464821678643656
3778.0,0.0074464821678643656
3777.0,0.007490664932224611
3776.0,0.00762324020119709
3775.0,0.007667440952535687
3774.0,0.007534852191956709
3773.0,0.007358130121602358
3772.0,0.007181479933320523
3771.0,0.007093181776687496
3770.0,0.006916639301937977
3769.0,0.006740168563263094
3768.0,0.006740168563263094
3767.0,0.007004901568658406
3766.0,0.007313960837872058
3765.0,0.0074464821678643656
3764.0,0.007313960837872058
3763.0,0.007137328610972382
3762.0,0.007004901568658406
3761.0,0.006872514894289861
3760.0,0.006740168563263094
3759.0,0.006651960076740071
3758.0,0.00656376950238835
3757.0,0.006475596832934416
3756.0,0.006343371384537999
3755.0,0.006167133386013823
3754.0,0.005946936412324799
3753.0,0.005726851026829571
3752.0,0.005814871797682919
3751.0,0.006079041198713275
3750.0,0.00621118618129457
3749.0,0.006035001804881146
3748.0,0.005946936412324799
3747.0,0.00612308505878878
3746.0,0.006607862550997545
3745.0,0.007049039429553483
3744.0,0.00696076819309055
3743.0,0.006519680930003435
3742.0,0.006519680930003435
3741.0,0.006828394969235152
3740.0,0.006872514894289861
3739.0,0.006651960076740071
3738.0,0.006387442061109638
3737.0,0.006343371384537999
3736.0,0.006475596832934416
3735.0,0.006651960076740071
3734.0,0.006784279525863024
3733.0,0.006916639301937977
3732.0,0.007004901568658406
3731.0,0.007049039429553483
3730.0,0.007181479933320523
3729.0,0.007402303897961815
3728.0,0.00762324020119709
3727.0,0.00762324020119709
3726.0,0.0074464821678643656
3725.0,0.007313960837872058
3724.0,0.007313960837872058
3723.0,0.007402303897961815
3722.0,0.007534852191956709
3721.0,0.0075790439479759275
3720.0,0.00762324020119709
3719.0,0.007711646202907652
3718.0,0.007711646202907652
3717.0,0.0075790439479759275
3716.0,0.007358130121602358
3715.0,0.007137328610972382
3714.0,0.006916639301937977
3713.0,0.006828394969235152
3712.0,0.006916639301937977
3711.0,0.007093181776687496
3710.0,0.007181479933320523
3709.0,0.007313960837872058
3708.0,0.0074464821678643656
3707.0,0.00762324020119709
3706.0,0.007667440952535687
3705.0,0.00762324020119709
3704.0,0.0075790439479759275
3703.0,0.007534852191956709
3702.0,0.007490664932224611
3701.0,0.0074464821678643656
3700.0,0.0074464821678643656
3699.0,0.00762324020119709
3698.0,0.007888512213050314
3697.0,0.008065450281052211
3696.0,0.008021209005416363
3695.0,0.007844288957383316
3694.0,0.00762324020119709
3693.0,0.007402303897961815
3692.0,0.007269796045857202
3691.0,0.007269796045857202
3690.0,0.007490664932224611
3689.0,0.00762324020119709
3688.0,0.007534852191956709
3687.0,0.007534852191956709
3686.0,0.007711646202907652
3685.0,0.008021209005416363
3684.0,0.008109696063975047
3683.0,0.007976972236149349
3682.0,0.007755855953228474
3681.0,0.007490664932224611
3680.0,0.007093181776687496
3679.0,0.006607862550997545
3678.0,0.006299305179649828
3677.0,0.006387442061109638
3676.0,0.006784279525863024
3675.0,0.006740168563263094
3674.0,0.006343371384537999
3673.0,0.006299305179649828
3672.0,0.006651960076740071
3671.0,0.007093181776687496
3670.0,0.0074464821678643656
3669.0,0.0075790439479759275
3668.0,0.00762324020119709
3667.0,0.007844288957383316
3666.0,0.008153946355103248
3665.0,0.008375265465994541
3664.0,0.008419542825660153
3663.0,0.008419542825660153
3662.0,0.008419542825660153
3661.0,0.008375265465994541
3660.0,0.008286724286910463
3659.0,0.008198201155356077
3658.0,0.008153946355103248
3657.0,0.008109696063975047
3656.0,0.007932739972333236
3655.0,0.00762324020119709
3654.0,0.007358130121602358
3653.0,0.007137328610972382
3652.0,0.006828394969235152
3651.0,0.006475596832934416
3650.0,0.006519680930003435
3649.0,0.006784279525863024
3648.0,0.007049039429553483
3647.0,0.007313960837872058
3646.0,0.0075790439479759275
3645.0,0.007844288957383316
3644.0,0.008021209005416363
3643.0,0.008153946355103248
3642.0,0.008198201155356077
3641.0,0.008153946355103248
3640.0,0.008153946355103248
3639.0,0.008153946355103248
3638.0,0.008153946355103248
3637.0,0.008109696063975047
3636.0,0.008109696063975047
3635.0,0.008109696063975047
3634.0,0.008065450281052211
3633.0,0.007976972236149349
3632.0,0.007888512213050314
3631.0,0.007932739972333236
3630.0,0.008198201155356077
3629.0,0.008330992620051436
3628.0,0.008153946355103248
3627.0,0.007976972236149349
3626.0,0.008153946355103248
3625.0,0.008463824699968647
3624.0,0.00850811108984062
3623.0,0.008286724286910463
3622.0,0.008109696063975047
3621.0,0.008065450281052211
3620.0,0.008153946355103248
3619.0,0.008242460465651913
3618.0,0.008109696063975047
3617.0,0.008021209005416363
3616.0,0.008065450281052211
3615.0,0.008153946355103248
3614.0,0.008286724286910463
3613.0,0.008286724286910463
3612.0,0.008242460465651913
3611.0,0.008198201155356077
3610.0,0.008242460465651913
3609.0,0.008419542825660153
3608.0,0.008596697419959609
3607.0,0.008773924307505121
3606.0,0.008862564879688284
3605.0,0.008906891951112605
3604.0,0.008862564879688284
3603.0,0.008818242332126802
3602.0,0.008818242332126802
3601.0,0.008818242332126802
3600.0,0.008818242332126802
3599.0,0.008818242332126802
3598.0,0.008773924307505121
3597.0,0.008773924307505121
3596.0,0.008818242332126802
3595.0,0.008862564879688284
3594.0,0.008906891951112605
3593.0,0.008906891951112605
3592.0,0.008906891951112605
3591.0,0.008906891951112605
3590.0,0.008862564879688284
3589.0,0.008862564879688284
3588.0,0.008951223547323472
3587.0,0.008995559669244813
3586.0,0.008995559669244813
3585.0,0.009039900317800775
3584.0,0.009217308196862062
3583.0,0.009306039320248427
3582.0,0.009350411681145587
3581.0,0.009350411681145587
3580.0,0.009261671492462709
3579.0,0.009172949432521227
3578.0,0.009128595198514056
3577.0,0.00908424549391551
3576.0,0.00908424549391551
3575.0,0.009128595198514056
3574.0,0.009172949432521227
3573.0,0.009172949432521227
3572.0,0.00908424549391551
3571.0,0.008995559669244813
3570.0,0.008862564879688284
3569.0,0.008818242332126802
3568.0,0.008906891951112605
3567.0,0.008951223547323472
3566.0,0.008995559669244813
3565.0,0.008995559669244813
3564.0,0.00908424549391551
3563.0,0.009217308196862062
3562.0,0.009306039320248427
3561.0,0.009350411681145587
3560.0,0.009306039320248427
3559.0,0.009306039320248427
3558.0,0.009306039320248427
3557.0,0.009350411681145587
3556.0,0.009439170005980158
3555.0,0.009439170005980158
3554.0,0.009439170005980158
3553.0,0.009483555971770974
3552.0,0.009483555971770974
3551.0,0.009439170005980158
3550.0,0.00939478857608056
3549.0,0.00939478857608056
3548.0,0.009439170005980158
3547.0,0.009483555971770974
3546.0,0.009572341514736404
3545.0,0.009572341514736404
3544.0,0.009616741093766423
3543.0,0.009616741093766423
3542.0,0.00974996707218323
3541.0,0.009838807101520963
3540.0,0.009972101229705377
3539.0,0.010060986715464404
3538.0,0.010149890396819572
3537.0,0.010194349063173958
3536.0,0.010194349063173958
3535.0,0.010105436281226954
3534.0,0.010060986715464404
3533.0,0.009972101229705377
3532.0,0.009927665307847056
3531.0,0.009883233932095559
3530.0,0.009794384815193347
3529.0,0.00966114521239847
3528.0,0.009572341514736404
3527.0,0.009527946474380489
3526.0,0.009527946474380489
3525.0,0.009572341514736404
3524.0,0.00974996707218323
3523.0,0.009883233932095559
3522.0,0.009972101229705377
3521.0,0.009972101229705377
3520.0,0.010060986715464404
3519.0,0.01023881228122181
3518.0,0.010327752376126709
3517.0,0.01037222925484893
3516.0,0.010283280051895272
3515.0,0.010149890396819572
3514.0,0.009972101229705377
3513.0,0.009838807101520963
3512.0,0.009794384815193347
3511.0,0.009794384815193347
3510.0,0.009883233932095559
3509.0,0.01001654169860089
3508.0,0.010149890396819572
3507.0,0.010283280051895272
3506.0,0.01037222925484893
3505.0,0.01037222925484893
3504.0,0.010283280051895272
3503.0,0.010194349063173958
3502.0,0.010194349063173958
3501.0,0.01023881228122181
3500.0,0.010327752376126709
3499.0,0.010327752376126709
3498.0,0.010327752376126709
3497.0,0.010327752376126709
3496.0,0.010327752376126709
3495.0,0.01037222925484893
3494.0,0.01037222925484893
3493.0,0.010327752376126709
3492.0,0.010327752376126709
3491.0,0.010283280051895272
3490.0,0.010283280051895272
3489.0,0.010327752376126709
3488.0,0.01037222925484893
3487.0,0.01046119667949763
3486.0,0.010550182333308289
3485.0,0.010550182333308289
3484.0,0.010505687227290839
3483.0,0.01046119667949763
3482.0,0.010416710688994968
3481.0,0.010416710688994968
3480.0,0.010416710688994968
3479.0,0.01046119667949763
3478.0,0.010505687227290839
3477.0,0.010550182333308289
3476.0,0.010550182333308289
3475.0,0.010550182333308289
3474.0,0.010550182333308289
3473.0,0.010550182333308289
3472.0,0.010550182333308289
3471.0,0.010594681998483901
3470.0,0.010683695010048622
3469.0,0.010728208358306901
3468.0,0.010817248744452446
3467.0,0.01086177578421088
3466.0,0.01086177578421088
3465.0,0.010817248744452446
3464.0,0.01077272626946324
3463.0,0.010728208358306901
3462.0,0.010728208358306901
3461.0,0.01077272626946324
3460.0,0.01086177578421088
3459.0,0.010950843561779777
3458.0,0.010995384301463185
3457.0,0.010995384301463185
3456.0,0.010950843561779777
3455.0,0.010817248744452446
3454.0,0.010683695010048622
3453.0,0.010594681998483901
3452.0,0.010550182333308289
3451.0,0.010594681998483901
3450.0,0.010683695010048622
3449.0,0.01077272626946324
3448.0,0.01077272626946324
3447.0,0.010728208358306901
3446.0,0.010683695010048622
3445.0,0.01077272626946324
3444.0,0.010906307389674463
3443.0,0.011084479487313281
3442.0,0.011218156546359825
3441.0,0.011262724711199823
3440.0,0.011307297450183107
3439.0,0.011307297450183107
3438.0,0.011262724711199823
3437.0,0.011262724711199823
3436.0,0.011218156546359825
3435.0,0.01117359295472431
3434.0,0.011129033935354915
3433.0,0.011084479487313281
3432.0,0.011039929609661936
3431.0,0.010995384301463185
3430.0,0.010906307389674463
3429.0,0.01086177578421088
3428.0,0.01086177578421088
3427.0,0.010950843561779777
3426.0,0.010995384301463185
3425.0,0.011039929609661936
3424.0,0.011039929609661936
3423.0,0.011039929609661936
3422.0,0.011039929609661936
3421.0,0.011084479487313281
3420.0,0.011084479487313281
3419.0,0.011084479487313281
3418.0,0.011039929609661936
3417.0,0.010995384301463185
3416.0,0.010950843561779777
3415.0,0.010950843561779777
3414.0,0.010950843561779777
3413.0,0.010950843561779777
3412.0,0.010995384301463185
3411.0,0.011039929609661936
3410.0,0.011084479487313281
3409.0,0.011129033935354915
3408.0,0.01117359295472431
3407.0,0.011218156546359825
3406.0,0.011218156546359825
3405.0,0.01117359295472431
3404.0,0.01117359295472431
3403.0,0.011218156546359825
3402.0,0.01117359295472431
3401.0,0.011129033935354915
3400.0,0.011129033935354915
3399.0,0.011084479487313281
3398.0,0.011129033935354915
3397.0,0.01117359295472431
3396.0,0.01117359295472431
3395.0,0.011129033935354915
3394.0,0.011084479487313281
3393.0,0.011039929609661936
3392.0,0.010995384301463185
3391.0,0.011039929609661936
3390.0,0.011039929609661936
3389.0,0.011039929609661936
3388.0,0.010950843561779777
3387.0,0.010950843561779777
3386.0,0.011039929609661936
3385.0,0.011218156546359825
3384.0,0.011307297450183107
3383.0,0.011307297450183107
3382.0,0.011262724711199823
3381.0,0.01117359295472431
3380.0,0.011129033935354915
3379.0,0.011129033935354915
3378.0,0.011129033935354915
3377.0,0.01117359295472431
3376.0,0.011218156546359825
3375.0,0.011307297450183107
3374.0,0.011307297450183107
3373.0,0.011218156546359825
3372.0,0.011084479487313281
3371.0,0.010995384301463185
3370.0,0.010950843561779777
3369.0,0.011039929609661936
3368.0,0.011129033935354915
3367.0,0.01117359295472431
3366.0,0.011218156546359825
3365.0,0.011218156546359825
3364.0,0.011218156546359825
3363.0,0.011218156546359825
3362.0,0.011218156546359825
3361.0,0.011262724711199823
3360.0,0.011307297450183107
3359.0,0.011351874764248926
3358.0,0.011351874764248926
3357.0,0.011351874764248926
3356.0,0.011307297450183107
3355.0,0.011351874764248926
3354.0,0.011396456654336085
3353.0,0.011441043121384498
3352.0,0.011396456654336085
3351.0,0.011262724711199823
3350.0,0.011129033935354915
3349.0,0.011039929609661936
3348.0,0.010995384301463185
3347.0,0.010950843561779777
3346.0,0.010995384301463185
3345.0,0.011084479487313281
3344.0,0.01117359295472431
3343.0,0.011262724711199823
3342.0,0.011307297450183107
3341.0,0.011218156546359825
3340.0,0.011129033935354915
3339.0,0.011039929609661936
3338.0,0.010995384301463185
3337.0,0.010995384301463185
3336.0,0.011039929609661936
3335.0,0.011039929609661936
3334.0,0.011039929609661936
3333.0,0.011084479487313281
3332.0,0.011129033935354915
3331.0,0.011129033935354915
3330.0,0.011129033935354915
3329.0,0.011129033935354915
3328.0,0.011129033935354915
3327.0,0.01117359295472431
3326.0,0.011218156546359825
3325.0,0.011218156546359825
3324.0,0.011218156546359825
3323.0,0.011218156546359825
3322.0,0.01117359295472431
3321.0,0.011129033935354915
3320.0,0.011084479487313281
3319.0,0.011039929609661936
3318.0,0.010995384301463185
3317.0,0.011039929609661936
3316.0,0.011129033935354915
3315.0,0.011218156546359825
3314.0,0.011262724711199823
3313.0,0.011262724711199823
3312.0,0.011218156546359825
3311.0,0.011129033935354915
3310.0,0.010995384301463185
3309.0,0.010906307389674463
3308.0,0.010906307389674463
3307.0,0.010995384301463185
3306.0,0.011129033935354915
3305.0,0.011262724711199823
3304.0,0.011307297450183107
3303.0,0.011351874764248926
3302.0,0.011351874764248926
3301.0,0.011351874764248926
3300.0,0.011307297450183107
3299.0,0.011262724711199823
3298.0,0.011262724711199823
3297.0,0.011262724711199823
3296.0,0.01117359295472431
3295.0,0.011084479487313281
3294.0,0.010950843561779777
3293.0,0.010906307389674463
3292.0,0.010906307389674463
3291.0,0.010950843561779777
3290.0,0.011039929609661936
3289.0,0.011039929609661936
3288.0,0.011039929609661936
3287.0,0.011039929609661936
3286.0,0.011084479487313281
3285.0,0.011129033935354915
3284.0,0.011218156546359825
3283.0,0.011262724711199823
3282.0,0.011218156546359825
3281.0,0.011129033935354915
3280.0,0.010995384301463185
3279.0,0.01086177578421088
3278.0,0.010817248744452446
3277.0,0.01086177578421088
3276.0,0.010950843561779777
3275.0,0.010995384301463185
3274.0,0.011084479487313281
3273.0,0.011129033935354915
3272.0,0.011129033935354915
3271.0,0.011129033935354915
3270.0,0.011084479487313281
3269.0,0.011039929609661936
3268.0,0.010995384301463185
3267.0,0.010995384301463185
3266.0,0.010995384301463185
3265.0,0.011084479487313281
3264.0,0.011084479487313281
3263.0,0.011039929609661936
3262.0,0.010995384301463185
3261.0,0.010950843561779777
3260.0,0.010950843561779777
3259.0,0.011039929609661936
3258.0,0.011129033935354915
3257.0,0.011262724711199823
3256.0,0.011262724711199823
3255.0,0.011262724711199823
3254.0,0.01117359295472431
3253.0,0.011039929609661936
3252.0,0.010950843561779777
3251.0,0.010906307389674463
3250.0,0.01086177578421088
3249.0,0.01086177578421088
3248.0,0.010906307389674463
3247.0,0.010950843561779777
3246.0,0.011039929609661936
3245.0,0.011129033935354915
3244.0,0.011129033935354915
3243.0,0.011039929609661936
3242.0,0.010950843561779777
3241.0,0.01086177578421088
3240.0,0.010906307389674463
3239.0,0.010950843561779777
3238.0,0.011039929609661936
3237.0,0.010995384301463185
3236.0,0.010950843561779777
3235.0,0.01086177578421088
3234.0,0.010817248744452446
3233.0,0.010817248744452446
3232.0,0.01077272626946324
3231.0,0.010728208358306901
3230.0,0.010683695010048622
3229.0,0.010639186223752484
3228.0,0.010639186223752484
3227.0,0.010639186223752484
3226.0,0.010639186223752484
3225.0,0.010639186223752484
3224.0,0.010639186223752484
3223.0,0.010639186223752484
3222.0,0.010639186223752484
3221.0,0.010639186223752484
3220.0,0.010683695010048622
3219.0,0.010728208358306901
3218.0,0.010728208358306901
3217.0,0.010728208358306901
3216.0,0.010683695010048622
3215.0,0.010683695010048622
3214.0,0.010683695010048622
3213.0,0.010728208358306901
3212.0,0.010728208358306901
3211.0,0.010683695010048622
3210.0,0.010639186223752484
3209.0,0.010594681998483901
3208.0,0.010594681998483901
3207.0,0.010728208358306901
3206.0,0.010817248744452446
3205.0,0.01086177578421088
3204.0,0.01077272626946324
3203.0,0.010639186223752484
3202.0,0.010505687227290839
3201.0,0.010416710688994968
3200.0,0.01046119667949763
3199.0,0.010505687227290839
3198.0,0.010594681998483901
3197.0,0.010639186223752484
3196.0,0.010683695010048622
3195.0,0.010639186223752484
3194.0,0.010594681998483901
3193.0,0.010550182333308289
3192.0,0.010505687227290839
3191.0,0.010505687227290839
3190.0,0.010505687227290839
3189.0,0.010505687227290839
3188.0,0.01046119667949763
3187.0,0.010416710688994968
3186.0,0.01037222925484893
3185.0,0.01037222925484893
3184.0,0.01037222925484893
3183.0,0.010416710688994968
3182.0,0.010416710688994968
3181.0,0.01037222925484893
3180.0,0.010283280051895272
3179.0,0.010149890396819572
3178.0,0.01001654169860089
3177.0,0.009972101229705377
3176.0,0.009972101229705377
3175.0,0.010060986715464404
3174.0,0.010194349063173958
3173.0,0.010283280051895272
3172.0,0.010327752376126709
3171.0,0.010283280051895272
3170.0,0.01023881228122181
3169.0,0.010194349063173958
3168.0,0.010194349063173958
3167.0,0.01023881228122181
3166.0,0.010283280051895272
3165.0,0.010283280051895272
3164.0,0.010194349063173958
3163.0,0.010105436281226954
3162.0,0.01001654169860089
3161.0,0.009972101229705377
3160.0,0.009927665307847056
3159.0,0.009927665307847056
3158.0,0.009883233932095559
3157.0,0.009838807101520963
3156.0,0.009794384815193347
3155.0,0.00974996707218323
3154.0,0.009794384815193347
3153.0,0.009838807101520963
3152.0,0.009883233932095559
3151.0,0.009883233932095559
3150.0,0.009883233932095559
3149.0,0.009794384815193347
3148.0,0.009794384815193347
3147.0,0.009838807101520963
3146.0,0.009883233932095559
3145.0,0.009883233932095559
3144.0,0.009838807101520963
3143.0,0.00974996707218323
3142.0,0.009705553871561357
3141.0,0.00966114521239847
3140.0,0.009572341514736404
3139.0,0.009439170005980158
3138.0,0.00939478857608056
3137.0,0.009439170005980158
3136.0,0.009527946474380489
3135.0,0.009705553871561357
3134.0,0.009794384815193347
3133.0,0.009838807101520963
3132.0,0.009838807101520963
3131.0,0.00974996707218323
3130.0,0.00966114521239847
3129.0,0.009572341514736404
3128.0,0.009439170005980158
3127.0,0.00939478857608056
3126.0,0.009350411681145587
3125.0,0.009350411681145587
3124.0,0.009350411681145587
3123.0,0.009350411681145587
3122.0,0.009350411681145587
3121.0,0.009350411681145587
3120.0,0.009306039320248427
3119.0,0.009217308196862062
3118.0,0.00908424549391551
3117.0,0.008995559669244813
3116.0,0.008951223547323472
3115.0,0.009039900317800775
3114.0,0.009128595198514056
3113.0,0.009217308196862062
3112.0,0.009217308196862062
3111.0,0.009172949432521227
3110.0,0.009128595198514056
3109.0,0.00908424549391551
3108.0,0.009039900317800775
3107.0,0.008995559669244813
3106.0,0.008951223547323472
3105.0,0.008862564879688284
3104.0,0.008773924307505121
3103.0,0.008773924307505121
3102.0,0.008773924307505121
3101.0,0.008818242332126802
3100.0,0.008862564879688284
3099.0,0.008862564879688284
3098.0,0.008906891951112605
3097.0,0.008951223547323472
3096.0,0.008995559669244813
3095.0,0.009039900317800775
3094.0,0.00908424549391551
3093.0,0.009128595198514056
3092.0,0.009128595198514056
3091.0,0.009128595198514056
3090.0,0.009128595198514056
3089.0,0.00908424549391551
3088.0,0.009039900317800775
3087.0,0.008951223547323472
3086.0,0.008862564879688284
3085.0,0.0087296108049002
3084.0,0.008685301823389224
3083.0,0.0087296108049002
3082.0,0.008773924307505121
3081.0,0.008818242332126802
3080.0,0.008818242332126802
3079.0,0.008773924307505121
3078.0,0.008685301823389224
3077.0,0.008640997362049818
3076.0,0.008596697419959609
3075.0,0.008552401996197112
3074.0,0.00850811108984062
3073.0,0.008463824699968647
3072.0,0.00850811108984062
3071.0,0.00850811108984062
3070.0,0.00850811108984062
3069.0,0.008463824699968647
3068.0,0.008375265465994541
3067.0,0.008330992620051436
3066.0,0.008330992620051436
3065.0,0.008375265465994541
3064.0,0.008375265465994541
3063.0,0.008375265465994541
3062.0,0.008286724286910463
3061.0,0.008242460465651913
3060.0,0.008242460465651913
3059.0,0.008242460465651913
3058.0,0.008286724286910463
3057.0,0.008286724286910463
3056.0,0.008286724286910463
3055.0,0.008242460465651913
3054.0,0.008198201155356077
3053.0,0.008109696063975047
3052.0,0.008021209005416363
3051.0,0.007976972236149349
3050.0,0.007932739972333236
3049.0,0.007976972236149349
3048.0,0.007976972236149349
3047.0,0.007976972236149349
3046.0,0.007932739972333236
3045.0,0.007888512213050314
3044.0,0.007844288957383316
3043.0,0.007800070204414977
3042.0,0.007755855953228474
3041.0,0.007800070204414977
3040.0,0.007844288957383316
3039.0,0.007844288957383316
3038.0,0.007800070204414977
3037.0,0.007755855953228474
3036.0,0.007711646202907652
3035.0,0.007711646202907652
3034.0,0.007711646202907652
3033.0,0.007667440952535687
3032.0,0.007667440952535687
3031.0,0.007711646202907652
3030.0,0.007711646202907652
3029.0,0.007755855953228474
3028.0,0.007711646202907652
3027.0,0.00762324020119709
3026.0,0.007490664932224611
3025.0,0.007358130121602358
3024.0,0.007225635744644521
3023.0,0.007181479933320523
3022.0,0.007137328610972382
3021.0,0.007181479933320523
3020.0,0.007269796045857202
3019.0,0.007313960837872058
3018.0,0.007358130121602358
3017.0,0.007358130121602358
3016.0,0.007313960837872058
3015.0,0.007269796045857202
3014.0,0.007225635744644521
3013.0,0.007137328610972382
3012.0,0.007049039429553483
3011.0,0.007004901568658406
3010.0,0.007004901568658406
3009.0,0.007004901568658406
3008.0,0.007049039429553483
3007.0,0.007049039429553483
3006.0,0.007049039429553483
3005.0,0.00696076819309055
3004.0,0.006872514894289861
3003.0,0.006784279525863024
3002.0,0.006740168563263094
3001.0,0.006696062080525422
3000.0,0.006740168563263094
2999.0,0.006740168563263094
2998.0,0.006696062080525422
2997.0,0.006696062080525422
2996.0,0.006651960076740071
2995.0,0.006651960076740071
2994.0,0.006696062080525422
2993.0,0.006740168563263094
2992.0,0.006740168563263094
2991.0,0.006696062080525422
2990.0,0.006651960076740071
2989.0,0.006607862550997545
2988.0,0.00656376950238835
2987.0,0.006519680930003435
2986.0,0.006431517210272464
2985.0,0.006387442061109638
2984.0,0.006343371384537999
2983.0,0.006343371384537999
2982.0,0.006343371384537999
2981.0,0.006299305179649828
2980.0,0.006299305179649828
2979.0,0.00621118618129457
2978.0,0.00621118618129457
2977.0,0.00621118618129457
2976.0,0.00625524344553785
2975.0,0.006299305179649828
2974.0,0.006387442061109638
2973.0,0.006431517210272464
2972.0,0.006475596832934416
2971.0,0.006475596832934416
2970.0,0.006519680930003435
2969.0,0.006519680930003435
2968.0,0.006607862550997545
2967.0,0.006696062080525422
2966.0,0.006872514894289861
2965.0,0.007004901568658406
2964.0,0.007181479933320523
2963.0,0.007313960837872058
2962.0,0.0074464821678643656
2961.0,0.00762324020119709
2960.0,0.007755855953228474
2959.0,0.007888512213050314
2958.0,0.007976972236149349
2957.0,0.008065450281052211
2956.0,0.008153946355103248
2955.0,0.008242460465651913
2954.0,0.008286724286910463
2953.0,0.008286724286910463
2952.0,0.008286724286910463
2951.0,0.008375265465994541
2950.0,0.008552401996197112
2949.0,0.008862564879688284
2948.0,0.009217308196862062
2947.0,0.009616741093766423
2946.0,0.010060986715464404
2945.0,0.010683695010048622
2944.0,0.011530229790124524
2943.0,0.012512493866907004
2942.0,0.01372104409400876
2941.0,0.015067833932588037
2940.0,0.01646391839700767
2939.0,0.01800028587012159
2938.0,0.019678413991243593
2937.0,0.021499930688540836
2936.0,0.02355831062115543
2935.0,0.025856900097785074
2934.0,0.028445846553939003
2933.0,0.031236951802751545
2932.0,0.03428102975577918
2931.0,0.03763066432997886
2930.0,0.04124505013091051
2929.0,0.04527520902093718
2928.0,0.04987865248862655
2927.0,0.05507339001378431
2926.0,0.06103020277710969
2925.0,0.06767846801070698
2924.0,0.07504911108438939
2923.0,0.08296737783760655
2922.0,0.09113982698272349
2921.0,0.09914149529800831
2920.0,0.10651565378151395
2919.0,0.11272036546997688
2918.0,0.1170772093974013
2917.0,0.11912926746757657
2916.0,0.11884367892443626
2915.0,0.1163953390777075
2914.0,0.11249522576462212
2913.0,0.10779405402422748
2912.0,0.10292299679057959
2911.0,0.09816040794877057
2910.0,0.09371884422784693
2909.0,0.08964244272712252
2908.0,0.08602728844902896
2907.0,0.08280969148843575
2906.0,0.07998108397108505
2905.0,0.07743023101428781
2904.0,0.07520400420208784
2903.0,0.0732460948102629
2902.0,0.07160414774328627
2901.0,0.07017251876930874
2900.0,0.06879647454924775
2899.0,0.06752623532284674
2898.0,0.06625970050306473
2897.0,0.06499684854634524
2896.0,0.06373765809652254
2895.0,0.06253226035662252
2894.0,0.061380218497318895
2893.0,0.06028111764589528
2892.0,0.059135024033278416
2891.0,0.05799194697768684
2890.0,0.05680236993107379
2889.0,0.05551732784983132
2888.0,0.05413767551038262
2887.0,0.052762392129333646
2886.0,0.05139145012356372
2885.0,0.05002482217034632
2884.0,0.04866248120408234
2883.0,0.04730440041308315
2882.0,0.045902279520810385
2881.0,0.044360346976747955
2880.0,0.04282386959515394
2879.0,0.041197296600497646
2878.0,0.03957679292217042
2877.0,0.03800971255993524
2876.0,0.03649550058570927
2875.0,0.03512779136222477
2874.0,0.033905220553829274
2873.0,0.03277974021703267
2872.0,0.03175060589208267
2871.0,0.030770520137356927
2870.0,0.029839156962686353
2869.0,0.029002634427514717
2868.0,0.02826040911222183
2867.0,0.027658283674251827
2866.0,0.027288159452933503
2865.0,0.027195677663422346
2864.0,0.027426919073445077
2863.0,0.028028723600243666
2862.0,0.029095501846216454
2861.0,0.03067729388779794
2860.0,0.03277974021703267
2859.0,0.03559892883726867
2858.0,0.03924390909822728
2857.0,0.0439276630048171
2856.0,0.04987865248862655
2855.0,0.057396751157843484
2854.0,0.0665127121512945
2853.0,0.07696333132921396
2852.0,0.08793744441149753
2851.0,0.09816040794877057
2850.0,0.10601643278815298
2849.0,0.11036219959333216
2848.0,0.11081038795292675
2847.0,0.10812816955441629
2846.0,0.10330847343711591
2845.0,0.09745322068600859
2844.0,0.09135416109288674
2843.0,0.08539243222891946
2842.0,0.07982447798997727
2841.0,0.07479107858799638
2840.0,0.07037674848475972
2839.0,0.06656333217371957
2838.0,0.06328524178879635
2837.0,0.060430831344098435
2836.0,0.05784307153250956
2835.0,0.05551732784983132
2834.0,0.053449489430144714
2833.0,0.0515870342213991
2832.0,0.04997609347667353
2831.0,0.04851676924770687
2830.0,0.04725597598510167
2829.0,0.046143701775014145
2828.0,0.04513062893352182
2827.0,0.044167989767578186
2826.0,0.04320747962950522
2825.0,0.04229695845116854
2824.0,0.04138834223512067
2823.0,0.04057697805689475
2822.0,0.03981472339538916
2821.0,0.03914884628031379
2820.0,0.038531444649213764
2819.0,0.03796231343498735
2818.0,0.03744126420403626
2817.0,0.03692083935817303
2816.0,0.036401037402758574
2815.0,0.03592902944204468
2814.0,0.03550466044490741
2813.0,0.03508070571335731
2812.0,0.03470420418834386
2811.0,0.03432802877989327
2810.0,0.033952178923546183
2809.0,0.03357665405630694
2808.0,0.0332483359486222
2807.0,0.032873418923587305
2806.0,0.032545631817259224
2805.0,0.032218091924200776
2804.0,0.03189079887180224
2803.0,0.03151705144606498
2802.0,0.031190286087141805
2801.0,0.030910397045078586
2800.0,0.03063068826647264
2799.0,0.030397735151460825
2798.0,0.030071810571884017
2797.0,0.029839156962686353
2796.0,0.029560137048236124
2795.0,0.029374223311705583
2794.0,0.029141943003497595
2793.0,0.02890978686288448
2792.0,0.02872415126189476
2791.0,0.028538594975413334
2790.0,0.02839947976994095
2789.0,0.02826040911222183
2788.0,0.028075050815808744
2787.0,0.027843464140506313
2786.0,0.027612000892527133
2785.0,0.027334407733889066
2784.0,0.02710321556345563
2783.0,0.026872146400301444
2782.0,0.026687379547098322
2781.0,0.026456531467510258
2780.0,0.02617967564731627
2779.0,0.025949097207122573
2778.0,0.025810808881832736
2777.0,0.025764722556973707
2776.0,0.025718641122169483
2775.0,0.025672564576383117
2774.0,0.02558042614771394
2773.0,0.02544225514642018
2772.0,0.025304128090317013
2771.0,0.02512002699306959
2770.0,0.024936003904763915
2769.0,0.02475205875931885
2768.0,0.024568191490736968
2767.0,0.02438440203310499
2766.0,0.024246610963712723
2765.0,0.024200690320592466
2764.0,0.024154774532432866
2763.0,0.024108863598207186
2762.0,0.024017056287453542
2761.0,0.023879381700184332
2760.0,0.023741750742954926
2759.0,0.02365002099672653
2758.0,0.02355831062115543
2757.0,0.023466619608062178
2756.0,0.023374947949272418
2755.0,0.023329119375188556
2754.0,0.023283295636617574
2753.0,0.023191662661933732
2752.0,0.023100049017062307
2751.0,0.02300845469384938
2750.0,0.02296266477531872
2749.0,0.02291687968414724
2748.0,0.022871099419317753
2747.0,0.02282532397981263
2746.0,0.02277955336461468
2745.0,0.022688026603074007
2744.0,0.02259651912656535
2743.0,0.022505030926963654
2742.0,0.022505030926963654
2741.0,0.022505030926963654
2740.0,0.022505030926963654
2739.0,0.022413561996148967
2738.0,0.022322112326006227
2737.0,0.022230681908425698
2736.0,0.0221849739168134
2735.0,0.022139270735302752
2734.0,0.022093572362881675
2733.0,0.02200219004126036
2732.0,0.021819483062586187
2731.0,0.02168250325324883
2730.0,0.02159120737696063
2729.0,0.021499930688540836
2728.0,0.0214542995372613
2727.0,0.0214542995372613
2726.0,0.0214542995372613
2725.0,0.0214542995372613
2724.0,0.02140867317992523
2723.0,0.021317434843055594
2722.0,0.02122621566987748
2721.0,0.021135015652343103
2720.0,0.021089422824428272
2719.0,0.0209982515252789
2718.0,0.020952673052035298
2717.0,0.020952673052035298
2716.0,0.020907099361673565
2715.0,0.020861530453190058
2714.0,0.02081596632558158
2713.0,0.020770406977844713
2712.0,0.020724852408976924
2711.0,0.02067930261797568
2710.0,0.020633757603838898
2709.0,0.02058821736556471
2708.0,0.020542681902151694
2707.0,0.02045162529590483
2706.0,0.020315076172974234
2705.0,0.02022406727031445
2704.0,0.020178569969774962
2703.0,0.02013307743509718
2702.0,0.020087589665283012
2701.0,0.020087589665283012
2700.0,0.019996628416253603
2699.0,0.01995115493504329
2698.0,0.01995115493504329
2697.0,0.019996628416253603
2696.0,0.02004210665933459
2695.0,0.02004210665933459
2694.0,0.01995115493504329
2693.0,0.019814763052665052
2692.0,0.019678413991243593
2691.0,0.019632973815224997
2690.0,0.019632973815224997
2689.0,0.019632973815224997
2688.0,0.019632973815224997
2687.0,0.019632973815224997
2686.0,0.019632973815224997
2685.0,0.019632973815224997
2684.0,0.019678413991243593
2683.0,0.019678413991243593
2682.0,0.019678413991243593
2681.0,0.019632973815224997
2680.0,0.01958753839310856
2679.0,0.01949668180660491
2678.0,0.019451260640229506
2677.0,0.01940584422377989
2676.0,0.019451260640229506
2675.0,0.01954210772389997
2674.0,0.01958753839310856
2673.0,0.01958753839310856
2672.0,0.01958753839310856
2671.0,0.01958753839310856
2670.0,0.01958753839310856
2669.0,0.01954210772389997
2668.0,0.01949668180660491
2667.0,0.01949668180660491
2666.0,0.01949668180660491
2665.0,0.01949668180660491
2664.0,0.01954210772389997
2663.0,0.01954210772389997
2662.0,0.01954210772389997
2661.0,0.01949668180660491
2660.0,0.01940584422377989
2659.0,0.01940584422377989
2658.0,0.01940584422377989
2657.0,0.019451260640229506
2656.0,0.019451260640229506
2655.0,0.01940584422377989
2654.0,0.019315025636685412
2653.0,0.0192242260373785
2652.0,0.019178833355664393
2651.0,0.019178833355664393
2650.0,0.0192242260373785
2649.0,0.0192242260373785
2648.0,0.0192242260373785
2647.0,0.0192242260373785
2646.0,0.019178833355664393
2645.0,0.019133445417920836
2644.0,0.019133445417920836
2643.0,0.0190880622231564
2642.0,0.019133445417920836
2641.0,0.019178833355664393
2640.0,0.019178833355664393
2639.0,0.019178833355664393
2638.0,0.019133445417920836
2637.0,0.0190880622231564
2636.0,0.019042683770379876
2635.0,0.01899731005860028
2634.0,0.019042683770379876
2633.0,0.0190880622231564
2632.0,0.019178833355664393
2631.0,0.0192242260373785
2630.0,0.0192242260373785
2629.0,0.019178833355664393
2628.0,0.0190880622231564
2627.0,0.019042683770379876
2626.0,0.019042683770379876
2625.0,0.019042683770379876
2624.0,0.019042683770379876
2623.0,0.01899731005860028
2622.0,0.018906576854070378
2621.0,0.018815862601645694
2620.0,0.018679826740892747
2619.0,0.01858915983411169
2618.0,0.018543833477873584
2617.0,0.018498511851753108
2616.0,0.018498511851753108
2615.0,0.018543833477873584
2614.0,0.018543833477873584
2613.0,0.01858915983411169
2612.0,0.018498511851753108
2611.0,0.01840788278591865
2610.0,0.018271974638383703
2609.0,0.018181392829336396
2608.0,0.018181392829336396
2607.0,0.018226681372252695
2606.0,0.018271974638383703
2605.0,0.018271974638383703
2604.0,0.018226681372252695
2603.0,0.018136109008649592
2602.0,0.01809082990920774
2601.0,0.01809082990920774
2600.0,0.018136109008649592
2599.0,0.018136109008649592
2598.0,0.01809082990920774
2597.0,0.01800028587012159
2596.0,0.017909760704207134
2595.0,0.017864505196230507
2594.0,0.01781925440359733
2593.0,0.01781925440359733
2592.0,0.01781925440359733
2591.0,0.01781925440359733
2590.0,0.017864505196230507
2589.0,0.017864505196230507
2588.0,0.017909760704207134
2587.0,0.017864505196230507
2586.0,0.01781925440359733
2585.0,0.017728766960431575
2584.0,0.01768353030793479
2583.0,0.01759307113620534
2582.0,0.017547848615010242
2581.0,0.017457417697056554
2580.0,0.017367005605150476
2579.0,0.017321806616515723
2578.0,0.01727661233145472
2577.0,0.01727661233145472
2576.0,0.017321806616515723
2575.0,0.017367005605150476
2574.0,0.017412209298337533
2573.0,0.017412209298337533
2572.0,0.017321806616515723
2571.0,0.017186237868137555
2570.0,0.017095882207371904
2569.0,0.017050711425501408
2568.0,0.017095882207371904
2567.0,0.017141057687924732
2566.0,0.017186237868137555
2565.0,0.017231422748988034
2564.0,0.017231422748988034
2563.0,0.017186237868137555
2562.0,0.017141057687924732
2561.0,0.017095882207371904
2560.0,0.017141057687924732
2559.0,0.017186237868137555
2558.0,0.017186237868137555
2557.0,0.017141057687924732
2556.0,0.017095882207371904
2555.0,0.017050711425501408
2554.0,0.017050711425501408
2553.0,0.017050711425501408
2552.0,0.017050711425501408
2551.0,0.017050711425501408
2550.0,0.017005545341335804
2549.0,0.016960383953898095
2548.0,0.016915227262211507
2547.0,0.016915227262211507
2546.0,0.016915227262211507
2545.0,0.016870075265299933
2544.0,0.016870075265299933
2543.0,0.01677978535189717
2542.0,0.016734647433454652
2541.0,0.016689514205884493
2540.0,0.016689514205884493
2539.0,0.016644385668211692
2538.0,0.016644385668211692
2537.0,0.016734647433454652
2536.0,0.01677978535189717
2535.0,0.01677978535189717
2534.0,0.01677978535189717
2533.0,0.016734647433454652
2532.0,0.016689514205884493
2531.0,0.016644385668211692
2530.0,0.016599261819461697
2529.0,0.016644385668211692
2528.0,0.016644385668211692
2527.0,0.016689514205884493
2526.0,0.016734647433454652
2525.0,0.01677978535189717
2524.0,0.01677978535189717
2523.0,0.016689514205884493
2522.0,0.016644385668211692
2521.0,0.016554142658660398
2520.0,0.016509028184833463
2519.0,0.016509028184833463
2518.0,0.016509028184833463
2517.0,0.01646391839700767
2516.0,0.01646391839700767
2515.0,0.016509028184833463
2514.0,0.016554142658660398
2513.0,0.016554142658660398
2512.0,0.016509028184833463
2511.0,0.01646391839700767
2510.0,0.016373712875465518
2509.0,0.01632861713980338
2508.0,0.01632861713980338
2507.0,0.016373712875465518
2506.0,0.016418813294209356
2505.0,0.016418813294209356
2504.0,0.016373712875465518
2503.0,0.01632861713980338
2502.0,0.01628352608625061
2501.0,0.01628352608625061
2500.0,0.01628352608625061
2499.0,0.01632861713980338
2498.0,0.01632861713980338
2497.0,0.01632861713980338
2496.0,0.01632861713980338
2495.0,0.01632861713980338
2494.0,0.016238439713835096
2493.0,0.016193358021584725
2492.0,0.016103208673694303
2491.0,0.016058141016111804
2490.0,0.016013078034810446
2489.0,0.016058141016111804
2488.0,0.016103208673694303
2487.0,0.016193358021584725
2486.0,0.016238439713835096
2485.0,0.01628352608625061
2484.0,0.01628352608625061
2483.0,0.016238439713835096
2482.0,0.01628352608625061
2481.0,0.01632861713980338
2480.0,0.016373712875465518
2479.0,0.016373712875465518
2478.0,0.016373712875465518
2477.0,0.016373712875465518
2476.0,0.01632861713980338
2475.0,0.01628352608625061
2474.0,0.01628352608625061
2473.0,0.01628352608625061
2472.0,0.01628352608625061
2471.0,0.016238439713835096
2470.0,0.016193358021584725
2469.0,0.016148281008528276
2468.0,0.016148281008528276
2467.0,0.016103208673694303
2466.0,0.016013078034810446
2465.0,0.01596801972881945
2464.0,0.015922966097169144
2463.0,0.015877917138889863
2462.0,0.015877917138889863
2461.0,0.015922966097169144
2460.0,0.015922966097169144
2459.0,0.015922966097169144
2458.0,0.015877917138889863
2457.0,0.015832872853011715
2456.0,0.015832872853011715
2455.0,0.015832872853011715
2454.0,0.015832872853011715
2453.0,0.015877917138889863
2452.0,0.015877917138889863
2451.0,0.015922966097169144
2450.0,0.01596801972881945
2449.0,0.01596801972881945
2448.0,0.01596801972881945
2447.0,0.015922966097169144
2446.0,0.015877917138889863
2445.0,0.015832872853011715
2444.0,0.015832872853011715
2443.0,0.01578783323856614
2442.0,0.01578783323856614
2441.0,0.01578783323856614
2440.0,0.015742798294583915
2439.0,0.015742798294583915
2438.0,0.015742798294583915
2437.0,0.01578783323856614
2436.0,0.01578783323856614
2435.0,0.01578783323856614
2434.0,0.015742798294583915
2433.0,0.015697768020096703
2432.0,0.015652742414136167
2431.0,0.015607721475734415
2430.0,0.015652742414136167
2429.0,0.015697768020096703
2428.0,0.015742798294583915
2427.0,0.015832872853011715
2426.0,0.015832872853011715
2425.0,0.015832872853011715
2424.0,0.015832872853011715
2423.0,0.015832872853011715
2422.0,0.015832872853011715
2421.0,0.01578783323856614
2420.0,0.01578783323856614
2419.0,0.015742798294583915
2418.0,0.015742798294583915
2417.0,0.015832872853011715
2416.0,0.015922966097169144
2415.0,0.016013078034810446
2414.0,0.016058141016111804
2413.0,0.016058141016111804
2412.0,0.016058141016111804
2411.0,0.01596801972881945
2410.0,0.015877917138889863
2409.0,0.015742798294583915
2408.0,0.015697768020096703
2407.0,0.015697768020096703
2406.0,0.01578783323856614
2405.0,0.015877917138889863
2404.0,0.015877917138889863
2403.0,0.015832872853011715
2402.0,0.01578783323856614
2401.0,0.015742798294583915
2400.0,0.015742798294583915
2399.0,0.01578783323856614
2398.0,0.01578783323856614
2397.0,0.015832872853011715
2396.0,0.01578783323856614
2395.0,0.01578783323856614
2394.0,0.01578783323856614
2393.0,0.015832872853011715
2392.0,0.015832872853011715
2391.0,0.015832872853011715
2390.0,0.01578783323856614
2389.0,0.015742798294583915
2388.0,0.015697768020096703
2387.0,0.015652742414136167
2386.0,0.015607721475734415
2385.0,0.015562705203923999
2384.0,0.015562705203923999
2383.0,0.015562705203923999
2382.0,0.015562705203923999
2381.0,0.015517693597737248
2380.0,0.015427684378367834
2379.0,0.015337693809893471
2378.0,0.015247721884586563
2377.0,0.015112798935672522
2376.0,0.014977917890464765
2375.0,0.014843078722943437
2374.0,0.014708281407112
2373.0,0.014708281407112
2372.0,0.014753209197138295
2371.0,0.014888020460646079
2370.0,0.015112798935672522
2369.0,0.015427684378367834
2368.0,0.015652742414136167
2367.0,0.015652742414136167
2366.0,0.01547268665620738
2365.0,0.015202742910707112
2364.0,0.014977917890464765
2363.0,0.014932966849499074
2362.0,0.015022873584506602
2361.0,0.015112798935672522
2360.0,0.015202742910707112
2359.0,0.01538268676325183
2358.0,0.015562705203923999
2357.0,0.015652742414136167
2356.0,0.015562705203923999
2355.0,0.015562705203923999
2354.0,0.01578783323856614
2353.0,0.016238439713835096
2352.0,0.016599261819461697
2351.0,0.016689514205884493
2350.0,0.016509028184833463
2349.0,0.016193358021584725
2348.0,0.015742798294583915
2347.0,0.015247721884586563
2346.0,0.014798141635428141
2345.0,0.01452861671041239
2344.0,0.0144837121472845
2343.0,0.014663358264387139
2342.0,0.014932966849499074
2341.0,0.015157768594724175
2340.0,0.015337693809893471
2339.0,0.015562705203923999
2338.0,0.015832872853011715
2337.0,0.016148281008528276
2336.0,0.016238439713835096
2335.0,0.016103208673694303
2334.0,0.01578783323856614
2333.0,0.015607721475734415
2332.0,0.015652742414136167
2331.0,0.016058141016111804
2330.0,0.016599261819461697
2329.0,0.016915227262211507
2328.0,0.016915227262211507
2327.0,0.016644385668211692
2326.0,0.016373712875465518
2325.0,0.016238439713835096
2324.0,0.016193358021584725
2323.0,0.01632861713980338
2322.0,0.016599261819461697
2321.0,0.016824927962187042
2320.0,0.016960383953898095
2319.0,0.017005545341335804
2318.0,0.017005545341335804
2317.0,0.016915227262211507
2316.0,0.016734647433454652
2315.0,0.01646391839700767
2314.0,0.01628352608625061
2313.0,0.016238439713835096
2312.0,0.01628352608625061
2311.0,0.016373712875465518
2310.0,0.016418813294209356
2309.0,0.016418813294209356
2308.0,0.016418813294209356
2307.0,0.016418813294209356
2306.0,0.01646391839700767
2305.0,0.01646391839700767
2304.0,0.016418813294209356
2303.0,0.01628352608625061
2302.0,0.016103208673694303
2301.0,0.016013078034810446
2300.0,0.01596801972881945
2299.0,0.01596801972881945
2298.0,0.01596801972881945
2297.0,0.015922966097169144
2296.0,0.015922966097169144
2295.0,0.015922966097169144
2294.0,0.015922966097169144
2293.0,0.01596801972881945
2292.0,0.016013078034810446
2291.0,0.016058141016111804
2290.0,0.016013078034810446
2289.0,0.01596801972881945
2288.0,0.015832872853011715
2287.0,0.01578783323856614
2286.0,0.015742798294583915
2285.0,0.01578783323856614
2284.0,0.01578783323856614
2283.0,0.015832872853011715
2282.0,0.01578783323856614
2281.0,0.015742798294583915
2280.0,0.015742798294583915
2279.0,0.015742798294583915
2278.0,0.015832872853011715
2277.0,0.015877917138889863
2276.0,0.015877917138889863
2275.0,0.01578783323856614
2274.0,0.015697768020096703
2273.0,0.015607721475734415
2272.0,0.015607721475734415
2271.0,0.015652742414136167
2270.0,0.015697768020096703
2269.0,0.015742798294583915
2268.0,0.01578783323856614
2267.0,0.015742798294583915
2266.0,0.015742798294583915
2265.0,0.015742798294583915
2264.0,0.015742798294583915
2263.0,0.01578783323856614
2262.0,0.015832872853011715
2261.0,0.015877917138889863
2260.0,0.015877917138889863
2259.0,0.015877917138889863
2258.0,0.015832872853011715
2257.0,0.015832872853011715
2256.0,0.01578783323856614
2255.0,0.01578783323856614
2254.0,0.01578783323856614
2253.0,0.01578783323856614
2252.0,0.01578783323856614
2251.0,0.015742798294583915
2250.0,0.015742798294583915
2249.0,0.015742798294583915
2248.0,0.01578783323856614
2247.0,0.015832872853011715
2246.0,0.015832872853011715
2245.0,0.015877917138889863
2244.0,0.015877917138889863
2243.0,0.015832872853011715
2242.0,0.015877917138889863
2241.0,0.015877917138889863
2240.0,0.015922966097169144
2239.0,0.01596801972881945
2238.0,0.01596801972881945
2237.0,0.015922966097169144
2236.0,0.015832872853011715
2235.0,0.015697768020096703
2234.0,0.015652742414136167
2233.0,0.015697768020096703
2232.0,0.015742798294583915
2231.0,0.01578783323856614
2230.0,0.01578783323856614
2229.0,0.015742798294583915
2228.0,0.015697768020096703
2227.0,0.015652742414136167
2226.0,0.015652742414136167
2225.0,0.015652742414136167
2224.0,0.015697768020096703
2223.0,0.015697768020096703
2222.0,0.015697768020096703
2221.0,0.015697768020096703
2220.0,0.015652742414136167
2219.0,0.015607721475734415
2218.0,0.015607721475734415
2217.0,0.015697768020096703
2216.0,0.01578783323856614
2215.0,0.015877917138889863
2214.0,0.015877917138889863
2213.0,0.015832872853011715
2212.0,0.015742798294583915
2211.0,0.015697768020096703
2210.0,0.015652742414136167
2209.0,0.015607721475734415
2208.0,0.015607721475734415
2207.0,0.015607721475734415
2206.0,0.015607721475734415
2205.0,0.015562705203923999
2204.0,0.015562705203923999
2203.0,0.015562705203923999
2202.0,0.015652742414136167
2201.0,0.015697768020096703
2200.0,0.01578783323856614
2199.0,0.01578783323856614
2198.0,0.01578783323856614
2197.0,0.01578783323856614
2196.0,0.01578783323856614
2195.0,0.015742798294583915
2194.0,0.015742798294583915
2193.0,0.015742798294583915
2192.0,0.015697768020096703
2191.0,0.015697768020096703
2190.0,0.015697768020096703
2189.0,0.015697768020096703
2188.0,0.015697768020096703
2187.0,0.015697768020096703
2186.0,0.015697768020096703
2185.0,0.015742798294583915
2184.0,0.015742798294583915
2183.0,0.01578783323856614
2182.0,0.01578783323856614
2181.0,0.01578783323856614
2180.0,0.015742798294583915
2179.0,0.015697768020096703
2178.0,0.015697768020096703
2177.0,0.015697768020096703
2176.0,0.015742798294583915
2175.0,0.015742798294583915
2174.0,0.015742798294583915
2173.0,0.015697768020096703
2172.0,0.015697768020096703
2171.0,0.015652742414136167
2170.0,0.015652742414136167
2169.0,0.015607721475734415
2168.0,0.015607721475734415
2167.0,0.015607721475734415
2166.0,0.015652742414136167
2165.0,0.015742798294583915
2164.0,0.01578783323856614
2163.0,0.01578783323856614
2162.0,0.01578783323856614
2161.0,0.01578783323856614
2160.0,0.01578783323856614
2159.0,0.01578783323856614
2158.0,0.015832872853011715
2157.0,0.015877917138889863
2156.0,0.015922966097169144
2155.0,0.015922966097169144
2154.0,0.015877917138889863
2153.0,0.015877917138889863
2152.0,0.015877917138889863
2151.0,0.015877917138889863
2150.0,0.015832872853011715
2149.0,0.015832872853011715
2148.0,0.01578783323856614
2147.0,0.01578783323856614
2146.0,0.015832872853011715
2145.0,0.015922966097169144
2144.0,0.015922966097169144
2143.0,0.015877917138889863
2142.0,0.015832872853011715
2141.0,0.015832872853011715
2140.0,0.015832872853011715
2139.0,0.01578783323856614
2138.0,0.015742798294583915
2137.0,0.015742798294583915
2136.0,0.015697768020096703
2135.0,0.015697768020096703
2134.0,0.015697768020096703
2133.0,0.015697768020096703
2132.0,0.015697768020096703
2131.0,0.015697768020096703
2130.0,0.015742798294583915
2129.0,0.01578783323856614
2128.0,0.01578783323856614
2127.0,0.01578783323856614
2126.0,0.015742798294583915
2125.0,0.015742798294583915
2124.0,0.015697768020096703
2123.0,0.015697768020096703
2122.0,0.015697768020096703
2121.0,0.015742798294583915
2120.0,0.01578783323856614
2119.0,0.015832872853011715
2118.0,0.01578783323856614
2117.0,0.01578783323856614
2116.0,0.01578783323856614
2115.0,0.015742798294583915
2114.0,0.015742798294583915
2113.0,0.015697768020096703
2112.0,0.015697768020096703
2111.0,0.015697768020096703
2110.0,0.015742798294583915
2109.0,0.015697768020096703
2108.0,0.015697768020096703
2107.0,0.015652742414136167
2106.0,0.015652742414136167
2105.0,0.015652742414136167
2104.0,0.015697768020096703
2103.0,0.015697768020096703
2102.0,0.015742798294583915
2101.0,0.015742798294583915
2100.0,0.015742798294583915
2099.0,0.015742798294583915
2098.0,0.015742798294583915
2097.0,0.015742798294583915
2096.0,0.01578783323856614
2095.0,0.01578783323856614
2094.0,0.01578783323856614
2093.0,0.01578783323856614
2092.0,0.01578783323856614
2091.0,0.01578783323856614
2090.0,0.015832872853011715
2089.0,0.015877917138889863
2088.0,0.015922966097169144
2087.0,0.015922966097169144
2086.0,0.015877917138889863
2085.0,0.015832872853011715
2084.0,0.01578783323856614
2083.0,0.01578783323856614
2082.0,0.015742798294583915
2081.0,0.015652742414136167
2080.0,0.015562705203923999
2079.0,0.01547268665620738
2078.0,0.01547268665620738
2077.0,0.015562705203923999
2076.0,0.015652742414136167
2075.0,0.015742798294583915
2074.0,0.01578783323856614
2073.0,0.015832872853011715
2072.0,0.015832872853011715
2071.0,0.01578783323856614
2070.0,0.015742798294583915
2069.0,0.015742798294583915
2068.0,0.01578783323856614
2067.0,0.01578783323856614
2066.0,0.015832872853011715
2065.0,0.015832872853011715
2064.0,0.015832872853011715
2063.0,0.015832872853011715
2062.0,0.015832872853011715
2061.0,0.015832872853011715
2060.0,0.015832872853011715
2059.0,0.01578783323856614
2058.0,0.015832872853011715
2057.0,0.015832872853011715
2056.0,0.015877917138889863
2055.0,0.015877917138889863
2054.0,0.015877917138889863
2053.0,0.015922966097169144
2052.0,0.01596801972881945
2051.0,0.016013078034810446
2050.0,0.016103208673694303
2049.0,0.016148281008528276
2048.0,0.016148281008528276
2047.0,0.016148281008528276
2046.0,0.016103208673694303
2045.0,0.016103208673694303
2044.0,0.016103208673694303
2043.0,0.016148281008528276
2042.0,0.016193358021584725
2041.0,0.016238439713835096
2040.0,0.016193358021584725
2039.0,0.016148281008528276
2038.0,0.016103208673694303
2037.0,0.016058141016111804
2036.0,0.016058141016111804
2035.0,0.016058141016111804
2034.0,0.016058141016111804
2033.0,0.016058141016111804
2032.0,0.016103208673694303
2031.0,0.016103208673694303
2030.0,0.016148281008528276
2029.0,0.016148281008528276
2028.0,0.016193358021584725
2027.0,0.016238439713835096
2026.0,0.016238439713835096
2025.0,0.016193358021584725
2024.0,0.016148281008528276
2023.0,0.016103208673694303
2022.0,0.016103208673694303
2021.0,0.016148281008528276
2020.0,0.016193358021584725
2019.0,0.016238439713835096
2018.0,0.01628352608625061
2017.0,0.01632861713980338
2016.0,0.016373712875465518
2015.0,0.016418813294209356
2014.0,0.016418813294209356
2013.0,0.016418813294209356
2012.0,0.016373712875465518
2011.0,0.01632861713980338
2010.0,0.016238439713835096
2009.0,0.016148281008528276
2008.0,0.016058141016111804
2007.0,0.016013078034810446
2006.0,0.016058141016111804
2005.0,0.016103208673694303
2004.0,0.016148281008528276
2003.0,0.016148281008528276
2002.0,0.016058141016111804
2001.0,0.01596801972881945
2000.0,0.015922966097169144
1999.0,0.015877917138889863
1998.0,0.015832872853011715
1997.0,0.015832872853011715
1996.0,0.015832872853011715
1995.0,0.015832872853011715
1994.0,0.015877917138889863
1993.0,0.015922966097169144
1992.0,0.01596801972881945
1991.0,0.016013078034810446
1990.0,0.01596801972881945
1989.0,0.015922966097169144
1988.0,0.015877917138889863
1987.0,0.015877917138889863
1986.0,0.015877917138889863
1985.0,0.015877917138889863
1984.0,0.015832872853011715
1983.0,0.01578783323856614
1982.0,0.015742798294583915
1981.0,0.01578783323856614
1980.0,0.015877917138889863
1979.0,0.015922966097169144
1978.0,0.01596801972881945
1977.0,0.016013078034810446
1976.0,0.016013078034810446
1975.0,0.016013078034810446
1974.0,0.016013078034810446
1973.0,0.016013078034810446
1972.0,0.01596801972881945
1971.0,0.015922966097169144
1970.0,0.015877917138889863
1969.0,0.015832872853011715
1968.0,0.01578783323856614
1967.0,0.015832872853011715
1966.0,0.015877917138889863
1965.0,0.015922966097169144
1964.0,0.015922966097169144
1963.0,0.015877917138889863
1962.0,0.015877917138889863
1961.0,0.015877917138889863
1960.0,0.015877917138889863
1959.0,0.015922966097169144
1958.0,0.01596801972881945
1957.0,0.016013078034810446
1956.0,0.016058141016111804
1955.0,0.016058141016111804
1954.0,0.016058141016111804
1953.0,0.01596801972881945
1952.0,0.015922966097169144
1951.0,0.015832872853011715
1950.0,0.015832872853011715
1949.0,0.015877917138889863
1948.0,0.015922966097169144
1947.0,0.01596801972881945
1946.0,0.01596801972881945
1945.0,0.015922966097169144
1944.0,0.015877917138889863
1943.0,0.015877917138889863
1942.0,0.015877917138889863
1941.0,0.015877917138889863
1940.0,0.015922966097169144
1939.0,0.015922966097169144
1938.0,0.015922966097169144
1937.0,0.01596801972881945
1936.0,0.01596801972881945
1935.0,0.016013078034810446
1934.0,0.016013078034810446
1933.0,0.016058141016111804
1932.0,0.016013078034810446
1931.0,0.01596801972881945
1930.0,0.015922966097169144
1929.0,0.015922966097169144
1928.0,0.015877917138889863
1927.0,0.015832872853011715
1926.0,0.01578783323856614
1925.0,0.015742798294583915
1924.0,0.015697768020096703
1923.0,0.015697768020096703
1922.0,0.015697768020096703
1921.0,0.015697768020096703
1920.0,0.015742798294583915
1919.0,0.015742798294583915
1918.0,0.015742798294583915
1917.0,0.01578783323856614
1916.0,0.015832872853011715
1915.0,0.015877917138889863
1914.0,0.015922966097169144
1913.0,0.01596801972881945
1912.0,0.015922966097169144
1911.0,0.015922966097169144
1910.0,0.01596801972881945
1909.0,0.01596801972881945
1908.0,0.016013078034810446
1907.0,0.016013078034810446
1906.0,0.016013078034810446
1905.0,0.016058141016111804
1904.0,0.016058141016111804
1903.0,0.016013078034810446
1902.0,0.016013078034810446
1901.0,0.016013078034810446
1900.0,0.016058141016111804
1899.0,0.016103208673694303
1898.0,0.016103208673694303
1897.0,0.016103208673694303
1896.0,0.016103208673694303
1895.0,0.016058141016111804
1894.0,0.016058141016111804
1893.0,0.016013078034810446
1892.0,0.016013078034810446
1891.0,0.015922966097169144
1890.0,0.015877917138889863
1889.0,0.015877917138889863
1888.0,0.015877917138889863
1887.0,0.015922966097169144
1886.0,0.015922966097169144
1885.0,0.015922966097169144
1884.0,0.015877917138889863
1883.0,0.015832872853011715
1882.0,0.01578783323856614
1881.0,0.01578783323856614
1880.0,0.015742798294583915
1879.0,0.015697768020096703
1878.0,0.015697768020096703
1877.0,0.015697768020096703
1876.0,0.015697768020096703
1875.0,0.015652742414136167
1874.0,0.015652742414136167
1873.0,0.015652742414136167
1872.0,0.015607721475734415
1871.0,0.015562705203923999
1870.0,0.015562705203923999
1869.0,0.015652742414136167
1868.0,0.015697768020096703
1867.0,0.015742798294583915
1866.0,0.015742798294583915
1865.0,0.015697768020096703
1864.0,0.015652742414136167
1863.0,0.015562705203923999
1862.0,0.015517693597737248
1861.0,0.015562705203923999
1860.0,0.015607721475734415
1859.0,0.015652742414136167
1858.0,0.015607721475734415
1857.0,0.015562705203923999
1856.0,0.01547268665620738
1855.0,0.015427684378367834
1854.0,0.01538268676325183
1853.0,0.01538268676325183
1852.0,0.01538268676325183
1851.0,0.015427684378367834
1850.0,0.01538268676325183
1849.0,0.01538268676325183
1848.0,0.01538268676325183
1847.0,0.01547268665620738
1846.0,0.015607721475734415
1845.0,0.015652742414136167
1844.0,0.015607721475734415
1843.0,0.015427684378367834
1842.0,0.01538268676325183
1841.0,0.015427684378367834
1840.0,0.015427684378367834
1839.0,0.01547268665620738
1838.0,0.01547268665620738
1837.0,0.015562705203923999
1836.0,0.015607721475734415
1835.0,0.015607721475734415
1834.0,0.015562705203923999
1833.0,0.015517693597737248
1832.0,0.015517693597737248
1831.0,0.015517693597737248
1830.0,0.015517693597737248
1829.0,0.01547268665620738
1828.0,0.015427684378367834
1827.0,0.01538268676325183
1826.0,0.015427684378367834
1825.0,0.015517693597737248
1824.0,0.015562705203923999
1823.0,0.015607721475734415
1822.0,0.015607721475734415
1821.0,0.015607721475734415
1820.0,0.015562705203923999
1819.0,0.015517693597737248
1818.0,0.01547268665620738
1817.0,0.015427684378367834
1816.0,0.015427684378367834
1815.0,0.015427684378367834
1814.0,0.015427684378367834
1813.0,0.01547268665620738
1812.0,0.01547268665620738
1811.0,0.01547268665620738
1810.0,0.01547268665620738
1809.0,0.015427684378367834
1808.0,0.015427684378367834
1807.0,0.01538268676325183
1806.0,0.015337693809893471
1805.0,0.015292705517326866
1804.0,0.015247721884586563
1803.0,0.015157768594724175
1802.0,0.015157768594724175
1801.0,0.015247721884586563
1800.0,0.015337693809893471
1799.0,0.015427684378367834
1798.0,0.015427684378367834
1797.0,0.015427684378367834
1796.0,0.015427684378367834
1795.0,0.01538268676325183
1794.0,0.015337693809893471
1793.0,0.015337693809893471
1792.0,0.015292705517326866
1791.0,0.015247721884586563
1790.0,0.015202742910707112
1789.0,0.015202742910707112
1788.0,0.015202742910707112
1787.0,0.015247721884586563
1786.0,0.015337693809893471
1785.0,0.01538268676325183
1784.0,0.01538268676325183
1783.0,0.015337693809893471
1782.0,0.015292705517326866
1781.0,0.015292705517326866
1780.0,0.015337693809893471
1779.0,0.015292705517326866
1778.0,0.015292705517326866
1777.0,0.015247721884586563
1776.0,0.015247721884586563
1775.0,0.015202742910707112
1774.0,0.015157768594724175
1773.0,0.015202742910707112
1772.0,0.015247721884586563
1771.0,0.015292705517326866
1770.0,0.01538268676325183
1769.0,0.01547268665620738
1768.0,0.015517693597737248
1767.0,0.015517693597737248
1766.0,0.015427684378367834
1765.0,0.015427684378367834
1764.0,0.015427684378367834
1763.0,0.01538268676325183
1762.0,0.015337693809893471
1761.0,0.015292705517326866
1760.0,0.015292705517326866
1759.0,0.015337693809893471
1758.0,0.015427684378367834
1757.0,0.015427684378367834
1756.0,0.01538268676325183
1755.0,0.015337693809893471
1754.0,0.015337693809893471
1753.0,0.015292705517326866
1752.0,0.015202742910707112
1751.0,0.015157768594724175
1750.0,0.015067833932588037
1749.0,0.015067833932588037
1748.0,0.015112798935672522
1747.0,0.015202742910707112
1746.0,0.015292705517326866
1745.0,0.015292705517326866
1744.0,0.015337693809893471
1743.0,0.01538268676325183
1742.0,0.01538268676325183
1741.0,0.015427684378367834
1740.0,0.015427684378367834
1739.0,0.015427684378367834
1738.0,0.01547268665620738
1737.0,0.015562705203923999
1736.0,0.015607721475734415
1735.0,0.015562705203923999
1734.0,0.015517693597737248
1733.0,0.01538268676325183
1732.0,0.015337693809893471
1731.0,0.015427684378367834
1730.0,0.015517693597737248
1729.0,0.015517693597737248
1728.0,0.015517693597737248
1727.0,0.015517693597737248
1726.0,0.01547268665620738
1725.0,0.01547268665620738
1724.0,0.01547268665620738
1723.0,0.015427684378367834
1722.0,0.015427684378367834
1721.0,0.015427684378367834
1720.0,0.015337693809893471
1719.0,0.015247721884586563
1718.0,0.015337693809893471
1717.0,0.015517693597737248
1716.0,0.015652742414136167
1715.0,0.015742798294583915
1714.0,0.015742798294583915
1713.0,0.015742798294583915
1712.0,0.015652742414136167
1711.0,0.015517693597737248
1710.0,0.015427684378367834
1709.0,0.015337693809893471
1708.0,0.015337693809893471
1707.0,0.015337693809893471
1706.0,0.01538268676325183
1705.0,0.015427684378367834
1704.0,0.015427684378367834
1703.0,0.015427684378367834
1702.0,0.015427684378367834
1701.0,0.01538268676325183
1700.0,0.01538268676325183
1699.0,0.015337693809893471
1698.0,0.015607721475734415
1697.0,0.01596801972881945
1696.0,0.016103208673694303
1695.0,0.015877917138889863
1694.0,0.015652742414136167
1693.0,0.015652742414136167
1692.0,0.015697768020096703
1691.0,0.015607721475734415
1690.0,0.015562705203923999
1689.0,0.015562705203923999
1688.0,0.015607721475734415
1687.0,0.015607721475734415
1686.0,0.01547268665620738
1685.0,0.01547268665620738
1684.0,0.015652742414136167
1683.0,0.015652742414136167
1682.0,0.015697768020096703
1681.0,0.015832872853011715
1680.0,0.015922966097169144
1679.0,0.015922966097169144
1678.0,0.015922966097169144
1677.0,0.015922966097169144
1676.0,0.015922966097169144
1675.0,0.015832872853011715
1674.0,0.015697768020096703
1673.0,0.015607721475734415
1672.0,0.015562705203923999
1671.0,0.015607721475734415
1670.0,0.01578783323856614
1669.0,0.015922966097169144
1668.0,0.01596801972881945
1667.0,0.015922966097169144
1666.0,0.015922966097169144
1665.0,0.015877917138889863
1664.0,0.015877917138889863
1663.0,0.016013078034810446
1662.0,0.016103208673694303
1661.0,0.016103208673694303
1660.0,0.016148281008528276
1659.0,0.016148281008528276
1658.0,0.016148281008528276
1657.0,0.016103208673694303
1656.0,0.016148281008528276
1655.0,0.016148281008528276
1654.0,0.01646391839700767
1653.0,0.016689514205884493
1652.0,0.016103208673694303
1651.0,0.01578783323856614
1650.0,0.015832872853011715
1649.0,0.015832872853011715
1648.0,0.015877917138889863
1647.0,0.016193358021584725
1646.0,0.016373712875465518
1645.0,0.01628352608625061
1644.0,0.016193358021584725
1643.0,0.016148281008528276
1642.0,0.016103208673694303
1641.0,0.016103208673694303
1640.0,0.016013078034810446
1639.0,0.015877917138889863
1638.0,0.015742798294583915
1637.0,0.01578783323856614
1636.0,0.016148281008528276
1635.0,0.016373712875465518
1634.0,0.016373712875465518
1633.0,0.016418813294209356
1632.0,0.01646391839700767
1631.0,0.016373712875465518
1630.0,0.01628352608625061
1629.0,0.016238439713835096
1628.0,0.016193358021584725
1627.0,0.016193358021584725
1626.0,0.016148281008528276
1625.0,0.016103208673694303
1624.0,0.016013078034810446
1623.0,0.01596801972881945
1622.0,0.015922966097169144
1621.0,0.015922966097169144
1620.0,0.01596801972881945
1619.0,0.01596801972881945
1618.0,0.016013078034810446
1617.0,0.016103208673694303
1616.0,0.016058141016111804
1615.0,0.016058141016111804
1614.0,0.016103208673694303
1613.0,0.016148281008528276
1612.0,0.016148281008528276
1611.0,0.016058141016111804
1610.0,0.01596801972881945
1609.0,0.015877917138889863
1608.0,0.015877917138889863
1607.0,0.015877917138889863
1606.0,0.015922966097169144
1605.0,0.015922966097169144
1604.0,0.015877917138889863
1603.0,0.015832872853011715
1602.0,0.015832872853011715
1601.0,0.01578783323856614
1600.0,0.01578783323856614
1599.0,0.01578783323856614
1598.0,0.015742798294583915
1597.0,0.015742798294583915
1596.0,0.015697768020096703
1595.0,0.015697768020096703
1594.0,0.015697768020096703
1593.0,0.015697768020096703
1592.0,0.015742798294583915
1591.0,0.015742798294583915
1590.0,0.015742798294583915
1589.0,0.01578783323856614
1588.0,0.015742798294583915
1587.0,0.015742798294583915
1586.0,0.015697768020096703
1585.0,0.015652742414136167
1584.0,0.015652742414136167
1583.0,0.015697768020096703
1582.0,0.01578783323856614
1581.0,0.01578783323856614
1580.0,0.015742798294583915
1579.0,0.015742798294583915
1578.0,0.015697768020096703
1577.0,0.015652742414136167
1576.0,0.015562705203923999
1575.0,0.015427684378367834
1574.0,0.015427684378367834
1573.0,0.01547268665620738
1572.0,0.015517693597737248
1571.0,0.01547268665620738
1570.0,0.01547268665620738
1569.0,0.01547268665620738
1568.0,0.015427684378367834
1567.0,0.01538268676325183
1566.0,0.015337693809893471
1565.0,0.015247721884586563
1564.0,0.015247721884586563
1563.0,0.015337693809893471
1562.0,0.01538268676325183
1561.0,0.015157768594724175
1560.0,0.014977917890464765
1559.0,0.015292705517326866
1558.0,0.015202742910707112
1557.0,0.015067833932588037
1556.0,0.015112798935672522
1555.0,0.015157768594724175
1554.0,0.015157768594724175
1553.0,0.015112798935672522
1552.0,0.015202742910707112
1551.0,0.015202742910707112
1550.0,0.015202742910707112
1549.0,0.015202742910707112
1548.0,0.015157768594724175
1547.0,0.015112798935672522
1546.0,0.014977917890464765
1545.0,0.014888020460646079
1544.0,0.014888020460646079
1543.0,0.014888020460646079
1542.0,0.014888020460646079
1541.0,0.015067833932588037
1540.0,0.01538268676325183
1539.0,0.015247721884586563
1538.0,0.015022873584506602
1537.0,0.014977917890464765
1536.0,0.014932966849499074
1535.0,0.014708281407112
1534.0,0.01452861671041239
1533.0,0.01452861671041239
1532.0,0.014573525916998342
1531.0,0.014618439768003144
1530.0,0.014573525916998342
1529.0,0.014573525916998342
1528.0,0.01452861671041239
1527.0,0.01452861671041239
1526.0,0.014438812226654996
1525.0,0.014393916947563534
1524.0,0.014304140310157809
1523.0,0.014079779876432497
1522.0,0.013945219230304673
1521.0,0.013945219230304673
1520.0,0.013900374944870508
1519.0,0.01385553528947936
1518.0,0.013765869865004277
1517.0,0.01381070026317599
1516.0,0.013900374944870508
1515.0,0.013945219230304673
1514.0,0.013990068146738865
1513.0,0.013990068146738865
1512.0,0.013945219230304673
1511.0,0.013765869865004277
1510.0,0.013586594534531482
1509.0,0.013541787262693505
1508.0,0.01381070026317599
1507.0,0.014259258949925524
1506.0,0.014214382227394795
1505.0,0.013945219230304673
1504.0,0.013900374944870508
1503.0,0.01385553528947936
1502.0,0.013765869865004277
1501.0,0.013676222949234651
1500.0,0.013676222949234651
1499.0,0.013676222949234651
1498.0,0.013676222949234651
1497.0,0.013765869865004277
1496.0,0.013765869865004277
1495.0,0.013631406429727155
1494.0,0.013496984613259544
1493.0,0.013496984613259544
1492.0,0.013407393177789162
1491.0,0.01322826573375524
1490.0,0.013049212141483357
1489.0,0.013004460275618523
1488.0,0.013049212141483357
1487.0,0.012914970375878188
1486.0,0.012825498912458322
1485.0,0.012870232340102872
1484.0,0.012914970375878188
1483.0,0.012914970375878188
1482.0,0.012959713020733288
1481.0,0.013317820220494436
1480.0,0.013945219230304673
1479.0,0.014888020460646079
1478.0,0.017005545341335804
1477.0,0.021499930688540836
1476.0,0.028770552723758724
1475.0,0.038341651362284734
1474.0,0.049294465226138895
1473.0,0.05843887976392925
1472.0,0.06133019897732073
1471.0,0.05908526241971446
1470.0,0.05586292684190197
1469.0,0.053449489430144714
1468.0,0.05192951848105887
1467.0,0.05173378011970464
1466.0,0.05443294655761144
1465.0,0.06048074738138154
1464.0,0.06661395809694559
1463.0,0.0690000580438479
1462.0,0.06701917807680191
1461.0,0.061830653609679764
1460.0,0.0549747987575373
1459.0,0.047934409814949674
1458.0,0.04200982159316968
1457.0,0.03810452633214956
1456.0,0.03583468937826462
1455.0,0.03437503289075727
1454.0,0.033201453616638954
1453.0,0.03189079887180224
1452.0,0.03063068826647264
1451.0,0.029513651152349718
1450.0,0.02872415126189476
1449.0,0.02798240132598462
1448.0,0.02738066094037661
1447.0,0.02696455931306696
1446.0,0.026687379547098322
1445.0,0.026410376572743033
1444.0,0.026087429580295085
1443.0,0.025810808881832736
1442.0,0.025488307262671706
1441.0,0.02516604495145991
1440.0,0.024798037742147727
1439.0,0.024522236834125355
1438.0,0.024246610963712723
1437.0,0.02406295751688936
1436.0,0.023925268380126097
1435.0,0.023787622882622816
1434.0,0.02355831062115543
1433.0,0.023283295636617574
1432.0,0.02291687968414724
1431.0,0.02259651912656535
1430.0,0.02227639471115217
1429.0,0.021956506090037076
1428.0,0.02159120737696063
1427.0,0.021271822861508305
1426.0,0.020952673052035298
1425.0,0.020633757603838898
1424.0,0.02045162529590483
1423.0,0.020406104151069693
1422.0,0.02036058777709271
1421.0,0.020178569969774962
1420.0,0.019996628416253603
1419.0,0.019860222254245663
1418.0,0.019814763052665052
1417.0,0.019723858922159776
1416.0,0.01958753839310856
1415.0,0.01949668180660491
1414.0,0.019360432556262852
1413.0,0.0192242260373785
1412.0,0.0190880622231564
1411.0,0.019042683770379876
1410.0,0.018951941086827073
1409.0,0.018861217359339655
1408.0,0.018770512579999288
1407.0,0.018725167293411005
1406.0,0.018679826740892747
1405.0,0.018679826740892747
1404.0,0.01858915983411169
1403.0,0.01845319495476394
1402.0,0.01831727262871463
1401.0,0.018136109008649592
1400.0,0.018045555530026514
1399.0,0.018045555530026514
1398.0,0.018045555530026514
1397.0,0.018045555530026514
1396.0,0.018045555530026514
1395.0,0.01809082990920774
1394.0,0.01809082990920774
1393.0,0.017955020928509757
1392.0,0.017864505196230507
1391.0,0.01781925440359733
1390.0,0.01781925440359733
1389.0,0.017774008325325275
1388.0,0.017728766960431575
1387.0,0.017774008325325275
1386.0,0.017774008325325275
1385.0,0.01781925440359733
1384.0,0.017864505196230507
1383.0,0.01800028587012159
1382.0,0.018226681372252695
1381.0,0.01845319495476394
1380.0,0.018679826740892747
1379.0,0.018815862601645694
1378.0,0.018861217359339655
1377.0,0.018815862601645694
1376.0,0.018815862601645694
1375.0,0.018906576854070378
1374.0,0.019133445417920836
1373.0,0.019360432556262852
1372.0,0.01949668180660491
1371.0,0.019632973815224997
1370.0,0.019769308608968306
1369.0,0.019814763052665052
1368.0,0.019860222254245663
1367.0,0.019814763052665052
1366.0,0.019678413991243593
1365.0,0.01949668180660491
1364.0,0.019315025636685412
1363.0,0.0192242260373785
1362.0,0.0192242260373785
1361.0,0.0192242260373785
1360.0,0.0192242260373785
1359.0,0.019178833355664393
1358.0,0.0190880622231564
1357.0,0.01899731005860028
1356.0,0.018951941086827073
1355.0,0.01899731005860028
1354.0,0.019042683770379876
1353.0,0.0190880622231564
1352.0,0.0190880622231564
1351.0,0.019042683770379876
1350.0,0.01899731005860028
1349.0,0.018906576854070378
1348.0,0.018815862601645694
1347.0,0.018725167293411005
1346.0,0.018634490921455527
1345.0,0.018498511851753108
1344.0,0.018362575344230914
1343.0,0.018181392829336396
1342.0,0.018045555530026514
1341.0,0.017909760704207134
1340.0,0.01781925440359733
1339.0,0.017774008325325275
1338.0,0.017774008325325275
1337.0,0.01768353030793479
1336.0,0.01759307113620534
1335.0,0.017547848615010242
1334.0,0.017457417697056554
1333.0,0.017367005605150476
1332.0,0.01727661233145472
1331.0,0.01727661233145472
1330.0,0.017321806616515723
1329.0,0.017321806616515723
1328.0,0.017367005605150476
1327.0,0.017412209298337533
1326.0,0.017457417697056554
1325.0,0.017457417697056554
1324.0,0.017457417697056554
1323.0,0.017502630802287644
1322.0,0.017547848615010242
1321.0,0.01759307113620534
1320.0,0.017638298366853045
1319.0,0.01768353030793479
1318.0,0.017728766960431575
1317.0,0.017774008325325275
1316.0,0.01781925440359733
1315.0,0.017864505196230507
1314.0,0.017955020928509757
1313.0,0.01800028587012159
1312.0,0.018045555530026514
1311.0,0.018136109008649592
1310.0,0.018181392829336396
1309.0,0.018226681372252695
1308.0,0.018271974638383703
1307.0,0.01831727262871463
1306.0,0.01840788278591865
1305.0,0.018362575344230914
1304.0,0.01831727262871463
1303.0,0.01831727262871463
1302.0,0.01831727262871463
1301.0,0.01831727262871463
1300.0,0.01831727262871463
1299.0,0.018271974638383703
1298.0,0.018226681372252695
1297.0,0.018181392829336396
1296.0,0.018136109008649592
1295.0,0.01809082990920774
1294.0,0.018045555530026514
1293.0,0.017955020928509757
1292.0,0.017864505196230507
1291.0,0.01781925440359733
1290.0,0.01781925440359733
1289.0,0.017774008325325275
1288.0,0.017728766960431575
1287.0,0.01768353030793479
1286.0,0.017638298366853045
1285.0,0.01759307113620534
1284.0,0.017502630802287644
1283.0,0.017457417697056554
1282.0,0.017412209298337533
1281.0,0.017412209298337533
1280.0,0.017367005605150476
1279.0,0.017367005605150476
1278.0,0.017367005605150476
1277.0,0.017367005605150476
1276.0,0.017367005605150476
1275.0,0.017367005605150476
1274.0,0.017367005605150476
1273.0,0.017321806616515723
1272.0,0.017321806616515723
1271.0,0.017321806616515723
1270.0,0.017367005605150476
1269.0,0.017367005605150476
1268.0,0.017412209298337533
1267.0,0.017457417697056554
1266.0,0.017547848615010242
1265.0,0.017547848615010242
1264.0,0.017502630802287644
1263.0,0.017412209298337533
1262.0,0.017412209298337533
1261.0,0.017457417697056554
1260.0,0.017457417697056554
1259.0,0.017457417697056554
1258.0,0.017412209298337533
1257.0,0.017367005605150476
1256.0,0.017367005605150476
1255.0,0.017367005605150476
1254.0,0.017367005605150476
1253.0,0.017367005605150476
1252.0,0.017321806616515723
1251.0,0.01727661233145472
1250.0,0.01727661233145472
1249.0,0.01727661233145472
1248.0,0.017231422748988034
1247.0,0.017186237868137555
1246.0,0.017186237868137555
1245.0,0.017141057687924732
1244.0,0.017095882207371904
1243.0,0.017095882207371904
1242.0,0.017050711425501408
1241.0,0.017050711425501408
1240.0,0.017005545341335804
1239.0,0.016960383953898095
1238.0,0.016915227262211507
1237.0,0.016870075265299933
1236.0,0.016870075265299933
1235.0,0.016915227262211507
1234.0,0.016915227262211507
1233.0,0.016915227262211507
1232.0,0.016915227262211507
1231.0,0.016915227262211507
1230.0,0.016960383953898095
1229.0,0.016915227262211507
1228.0,0.016870075265299933
1227.0,0.01677978535189717
1226.0,0.016734647433454652
1225.0,0.016689514205884493
1224.0,0.016644385668211692
1223.0,0.016689514205884493
1222.0,0.016734647433454652
1221.0,0.01677978535189717
1220.0,0.016734647433454652
1219.0,0.016644385668211692
1218.0,0.016599261819461697
1217.0,0.016554142658660398
1216.0,0.016554142658660398
1215.0,0.016644385668211692
1214.0,0.016689514205884493
1213.0,0.016689514205884493
1212.0,0.016689514205884493
1211.0,0.016689514205884493
1210.0,0.016734647433454652
1209.0,0.01677978535189717
1208.0,0.016824927962187042
1207.0,0.016870075265299933
1206.0,0.016915227262211507
1205.0,0.016915227262211507
1204.0,0.016960383953898095
1203.0,0.016915227262211507
1202.0,0.016870075265299933
1201.0,0.01677978535189717
1200.0,0.016689514205884493
1199.0,0.016734647433454652
1198.0,0.01677978535189717
1197.0,0.016824927962187042
1196.0,0.016824927962187042
1195.0,0.01677978535189717
1194.0,0.016734647433454652
1193.0,0.016689514205884493
1192.0,0.016644385668211692
1191.0,0.016599261819461697
1190.0,0.016554142658660398
1189.0,0.016554142658660398
1188.0,0.016599261819461697
1187.0,0.016689514205884493
1186.0,0.01677978535189717
1185.0,0.016870075265299933
1184.0,0.016870075265299933
1183.0,0.016915227262211507
1182.0,0.017005545341335804
1181.0,0.017141057687924732
1180.0,0.01727661233145472
1179.0,0.017412209298337533
1178.0,0.017502630802287644
1177.0,0.017547848615010242
1176.0,0.017502630802287644
1175.0,0.017502630802287644
1174.0,0.017547848615010242
1173.0,0.01759307113620534
1172.0,0.017638298366853045
1171.0,0.01768353030793479
1170.0,0.01768353030793479
1169.0,0.01768353030793479
1168.0,0.01768353030793479
1167.0,0.017638298366853045
1166.0,0.01768353030793479
1165.0,0.017638298366853045
1164.0,0.017638298366853045
1163.0,0.01759307113620534
1162.0,0.017638298366853045
1161.0,0.01768353030793479
1160.0,0.01768353030793479
1159.0,0.017728766960431575
1158.0,0.017728766960431575
1157.0,0.01768353030793479
1156.0,0.017638298366853045
1155.0,0.017638298366853045
1154.0,0.017638298366853045
1153.0,0.017638298366853045
1152.0,0.017638298366853045
1151.0,0.017638298366853045
1150.0,0.017638298366853045
1149.0,0.017638298366853045
1148.0,0.01759307113620534
1147.0,0.01759307113620534
1146.0,0.01759307113620534
1145.0,0.017547848615010242
1144.0,0.017502630802287644
1143.0,0.017502630802287644
1142.0,0.017547848615010242
1141.0,0.01759307113620534
1140.0,0.017547848615010242
1139.0,0.017547848615010242
1138.0,0.017547848615010242
1137.0,0.017547848615010242
1136.0,0.017547848615010242
1135.0,0.017547848615010242
1134.0,0.01759307113620534
1133.0,0.01759307113620534
1132.0,0.01759307113620534
1131.0,0.017638298366853045
1130.0,0.017638298366853045
1129.0,0.01768353030793479
1128.0,0.01768353030793479
1127.0,0.01768353030793479
1126.0,0.01768353030793479
1125.0,0.017638298366853045
1124.0,0.017638298366853045
1123.0,0.017638298366853045
1122.0,0.01768353030793479
1121.0,0.017728766960431575
1120.0,0.017864505196230507
1119.0,0.01800028587012159
1118.0,0.01809082990920774
1117.0,0.018181392829336396
1116.0,0.018181392829336396
1115.0,0.018226681372252695
1114.0,0.018226681372252695
1113.0,0.018271974638383703
1112.0,0.01831727262871463
1111.0,0.01831727262871463
1110.0,0.018271974638383703
1109.0,0.018226681372252695
1108.0,0.018271974638383703
1107.0,0.018362575344230914
1106.0,0.01840788278591865
1105.0,0.01845319495476394
1104.0,0.018498511851753108
1103.0,0.01845319495476394
1102.0,0.01840788278591865
1101.0,0.01831727262871463
1100.0,0.018271974638383703
1099.0,0.018271974638383703
1098.0,0.01840788278591865
1097.0,0.018543833477873584
1096.0,0.018634490921455527
1095.0,0.018634490921455527
1094.0,0.018543833477873584
1093.0,0.01845319495476394
1092.0,0.01845319495476394
1091.0,0.018498511851753108
1090.0,0.018634490921455527
1089.0,0.018725167293411005
1088.0,0.018861217359339655
1087.0,0.01899731005860028
1086.0,0.019133445417920836
1085.0,0.019269623464054586
1084.0,0.019360432556262852
1083.0,0.01940584422377989
1082.0,0.01940584422377989
1081.0,0.019360432556262852
1080.0,0.019360432556262852
1079.0,0.019360432556262852
1078.0,0.01940584422377989
1077.0,0.019451260640229506
1076.0,0.019451260640229506
1075.0,0.019360432556262852
1074.0,0.019269623464054586
1073.0,0.019178833355664393
1072.0,0.019133445417920836
1071.0,0.019133445417920836
1070.0,0.019133445417920836
1069.0,0.019178833355664393
1068.0,0.0192242260373785
1067.0,0.019269623464054586
1066.0,0.019360432556262852
1065.0,0.019451260640229506
1064.0,0.01949668180660491
1063.0,0.01949668180660491
1062.0,0.01949668180660491
1061.0,0.01940584422377989
1060.0,0.01940584422377989
1059.0,0.01940584422377989
1058.0,0.01949668180660491
1057.0,0.01954210772389997
1056.0,0.01949668180660491
1055.0,0.019360432556262852
1054.0,0.019269623464054586
1053.0,0.019269623464054586
1052.0,0.019315025636685412
1051.0,0.01940584422377989
1050.0,0.01949668180660491
1049.0,0.01958753839310856
1048.0,0.01954210772389997
1047.0,0.01949668180660491
1046.0,0.01940584422377989
1045.0,0.019360432556262852
1044.0,0.019360432556262852
1043.0,0.019360432556262852
1042.0,0.019360432556262852
1041.0,0.019315025636685412
1040.0,0.019269623464054586
1039.0,0.0192242260373785
1038.0,0.0192242260373785
1037.0,0.019269623464054586
1036.0,0.019269623464054586
1035.0,0.019315025636685412
1034.0,0.019315025636685412
1033.0,0.019360432556262852
1032.0,0.019360432556262852
1031.0,0.01940584422377989
1030.0,0.01940584422377989
1029.0,0.019451260640229506
1028.0,0.01949668180660491
1027.0,0.01954210772389997
1026.0,0.01949668180660491
1025.0,0.019451260640229506
1024.0,0.019451260640229506
1023.0,0.019451260640229506
1022.0,0.01940584422377989
1021.0,0.019269623464054586
1020.0,0.019178833355664393
1019.0,0.0190880622231564
1018.0,0.0190880622231564
1017.0,0.01899731005860028
1016.0,0.018906576854070378
1015.0,0.018815862601645694
1014.0,0.018770512579999288
1013.0,0.018725167293411005
1012.0,0.018679826740892747
1011.0,0.018634490921455527
1010.0,0.018498511851753108
1009.0,0.01831727262871463
1008.0,0.018181392829336396
1007.0,0.018045555530026514
1006.0,0.01800028587012159
1005.0,0.01800028587012159
1004.0,0.01800028587012159
1003.0,0.01800028587012159
1002.0,0.017955020928509757
1001.0,0.017864505196230507
1000.0,0.017728766960431575
999.0,0.01768353030793479
998.0,0.017728766960431575
997.0,0.017774008325325275
996.0,0.01781925440359733
995.0,0.01781925440359733
994.0,0.01781925440359733
993.0,0.01781925440359733
992.0,0.017774008325325275
991.0,0.017728766960431575
990.0,0.017774008325325275
989.0,0.017774008325325275
988.0,0.017774008325325275
987.0,0.01781925440359733
986.0,0.017864505196230507
985.0,0.01781925440359733
984.0,0.017774008325325275
983.0,0.017774008325325275
982.0,0.017774008325325275
981.0,0.01781925440359733
980.0,0.017864505196230507
979.0,0.017909760704207134
978.0,0.017955020928509757
977.0,0.018045555530026514
976.0,0.018045555530026514
975.0,0.018045555530026514
974.0,0.018045555530026514
973.0,0.018136109008649592
972.0,0.018181392829336396
971.0,0.018181392829336396
970.0,0.018181392829336396
969.0,0.018181392829336396
968.0,0.01809082990920774
967.0,0.017909760704207134
966.0,0.017774008325325275
965.0,0.01768353030793479
964.0,0.01768353030793479
963.0,0.017638298366853045
962.0,0.01759307113620534
961.0,0.017502630802287644
960.0,0.017457417697056554
959.0,0.017547848615010242
958.0,0.017638298366853045
957.0,0.017774008325325275
956.0,0.017774008325325275
955.0,0.01768353030793479
954.0,0.017547848615010242
953.0,0.017457417697056554
952.0,0.017367005605150476
951.0,0.017321806616515723
950.0,0.01727661233145472
949.0,0.017186237868137555
948.0,0.017186237868137555
947.0,0.01727661233145472
946.0,0.017367005605150476
945.0,0.017367005605150476
944.0,0.017321806616515723
943.0,0.01727661233145472
942.0,0.017231422748988034
941.0,0.017186237868137555
940.0,0.017141057687924732
939.0,0.017095882207371904
938.0,0.017095882207371904
937.0,0.017095882207371904
936.0,0.017095882207371904
935.0,0.017095882207371904
934.0,0.017141057687924732
933.0,0.01727661233145472
932.0,0.017412209298337533
931.0,0.017547848615010242
930.0,0.017547848615010242
929.0,0.017547848615010242
928.0,0.017547848615010242
927.0,0.01759307113620534
926.0,0.017638298366853045
925.0,0.01768353030793479
924.0,0.01768353030793479
923.0,0.017728766960431575
922.0,0.017864505196230507
921.0,0.01800028587012159
920.0,0.018045555530026514
919.0,0.018045555530026514
918.0,0.01800028587012159
917.0,0.017909760704207134
916.0,0.017909760704207134
915.0,0.017955020928509757
914.0,0.018045555530026514
913.0,0.018226681372252695
912.0,0.018362575344230914
911.0,0.018498511851753108
910.0,0.018543833477873584
909.0,0.018543833477873584
908.0,0.01840788278591865
907.0,0.018271974638383703
906.0,0.018226681372252695
905.0,0.018226681372252695
904.0,0.018271974638383703
903.0,0.018226681372252695
902.0,0.018181392829336396
901.0,0.018136109008649592
900.0,0.018136109008649592
899.0,0.018136109008649592
898.0,0.018136109008649592
897.0,0.018136109008649592
896.0,0.01809082990920774
895.0,0.018045555530026514
894.0,0.017955020928509757
893.0,0.017864505196230507
892.0,0.017864505196230507
891.0,0.017864505196230507
890.0,0.017864505196230507
889.0,0.017864505196230507
888.0,0.017864505196230507
887.0,0.01781925440359733
886.0,0.017774008325325275
885.0,0.017774008325325275
884.0,0.017774008325325275
883.0,0.017728766960431575
882.0,0.01768353030793479
881.0,0.01759307113620534
880.0,0.017502630802287644
879.0,0.017412209298337533
878.0,0.017412209298337533
877.0,0.017457417697056554
876.0,0.017638298366853045
875.0,0.017728766960431575
874.0,0.017774008325325275
873.0,0.017728766960431575
872.0,0.01759307113620534
871.0,0.017502630802287644
870.0,0.017502630802287644
869.0,0.01759307113620534
868.0,0.01768353030793479
867.0,0.017728766960431575
866.0,0.017774008325325275
865.0,0.017909760704207134
864.0,0.01809082990920774
863.0,0.018226681372252695
862.0,0.01831727262871463
861.0,0.018362575344230914
860.0,0.01840788278591865
859.0,0.01845319495476394
858.0,0.01845319495476394
857.0,0.01840788278591865
856.0,0.018362575344230914
855.0,0.01831727262871463
854.0,0.01831727262871463
853.0,0.018362575344230914
852.0,0.018362575344230914
851.0,0.01840788278591865
850.0,0.01845319495476394
849.0,0.018498511851753108
848.0,0.018543833477873584
847.0,0.01858915983411169
846.0,0.018725167293411005
845.0,0.018770512579999288
844.0,0.018770512579999288
843.0,0.018725167293411005
842.0,0.018725167293411005
841.0,0.018725167293411005
840.0,0.018725167293411005
839.0,0.018634490921455527
838.0,0.018543833477873584
837.0,0.01845319495476394
836.0,0.018362575344230914
835.0,0.018271974638383703
834.0,0.018226681372252695
833.0,0.018181392829336396
832.0,0.018181392829336396
831.0,0.018181392829336396
830.0,0.018226681372252695
829.0,0.018271974638383703
828.0,0.018362575344230914
827.0,0.018362575344230914
826.0,0.01831727262871463
825.0,0.018181392829336396
824.0,0.018045555530026514
823.0,0.017955020928509757
822.0,0.01800028587012159
821.0,0.01809082990920774
820.0,0.018136109008649592
819.0,0.01809082990920774
818.0,0.017955020928509757
817.0,0.01781925440359733
816.0,0.017774008325325275
815.0,0.017864505196230507
814.0,0.01800028587012159
813.0,0.018181392829336396
812.0,0.018271974638383703
811.0,0.01840788278591865
810.0,0.018543833477873584
809.0,0.018679826740892747
808.0,0.018770512579999288
807.0,0.018815862601645694
806.0,0.018951941086827073
805.0,0.0190880622231564
804.0,0.0192242260373785
803.0,0.019269623464054586
802.0,0.0192242260373785
801.0,0.019042683770379876
800.0,0.018906576854070378
799.0,0.018861217359339655
798.0,0.018951941086827073
797.0,0.019042683770379876
796.0,0.019133445417920836
795.0,0.019269623464054586
794.0,0.019360432556262852
793.0,0.019451260640229506
792.0,0.01954210772389997
791.0,0.019632973815224997
790.0,0.019678413991243593
789.0,0.019723858922159776
788.0,0.019723858922159776
787.0,0.019678413991243593
786.0,0.01958753839310856
785.0,0.01954210772389997
784.0,0.019451260640229506
783.0,0.019315025636685412
782.0,0.0192242260373785
781.0,0.019178833355664393
780.0,0.019269623464054586
779.0,0.01940584422377989
778.0,0.019451260640229506
777.0,0.019315025636685412
776.0,0.01899731005860028
775.0,0.01858915983411169
774.0,0.01831727262871463
773.0,0.018226681372252695
772.0,0.018226681372252695
771.0,0.018181392829336396
770.0,0.01809082990920774
769.0,0.01800028587012159
768.0,0.01800028587012159
767.0,0.01800028587012159
766.0,0.01800028587012159
765.0,0.01800028587012159
764.0,0.018045555530026514
763.0,0.018181392829336396
762.0,0.01840788278591865
761.0,0.01858915983411169
760.0,0.018543833477873584
759.0,0.018226681372252695
758.0,0.017909760704207134
757.0,0.01768353030793479
756.0,0.017638298366853045
755.0,0.01781925440359733
754.0,0.017955020928509757
753.0,0.018045555530026514
752.0,0.01800028587012159
751.0,0.017955020928509757
750.0,0.01800028587012159
749.0,0.01809082990920774
748.0,0.018226681372252695
747.0,0.018498511851753108
746.0,0.018725167293411005
745.0,0.018815862601645694
744.0,0.018679826740892747
743.0,0.01840788278591865
742.0,0.018271974638383703
741.0,0.018271974638383703
740.0,0.01840788278591865
739.0,0.018634490921455527
738.0,0.019133445417920836
737.0,0.02013307743509718
736.0,0.02200219004126036
735.0,0.02558042614771394
734.0,0.03235843591698884
733.0,0.04325545471730896
732.0,0.057049929922901255
731.0,0.07001940948448526
730.0,0.07763790321520991
729.0,0.07779372256098371
728.0,0.0725783049495814
727.0,0.06600683616875758
726.0,0.06118017497378969
725.0,0.059135024033278416
724.0,0.060231224546650086
723.0,0.06514819703433927
722.0,0.07463633264589853
721.0,0.08719360733870762
720.0,0.09777947172068524
719.0,0.10094593200182911
718.0,0.09544673702322726
717.0,0.08465293767580806
716.0,0.07273231918911849
715.0,0.06218131530164395
714.0,0.054088483180726676
713.0,0.04832256265669943
712.0,0.04421607108308856
711.0,0.041197296600497646
710.0,0.038673844065289176
709.0,0.036542739883292485
708.0,0.03475124903287918
707.0,0.033201453616638954
706.0,0.03189079887180224
705.0,0.030863766403287585
704.0,0.030118356253500123
703.0,0.029467170231675777
702.0,0.02872415126189476
701.0,0.027797161620935595
700.0,0.02682594731702781
699.0,0.026225806029419818
698.0,0.026041313893296225
697.0,0.026041313893296225
696.0,0.025810808881832736
695.0,0.025258095499050004
694.0,0.02461415101053266
693.0,0.024430342106337877
692.0,0.025028005701930978
691.0,0.026041313893296225
690.0,0.02682594731702781
689.0,0.02677975314776626
688.0,0.025718641122169483
687.0,0.024154774532432866
686.0,0.02296266477531872
685.0,0.022871099419317753
684.0,0.02406295751688936
683.0,0.025764722556973707
682.0,0.027056991894431892
681.0,0.027195677663422346
680.0,0.026410376572743033
679.0,0.025258095499050004
678.0,0.024292536462819925
677.0,0.023695883447997224
676.0,0.023374947949272418
675.0,0.023237476732539397
674.0,0.02314585342378117
673.0,0.023283295636617574
672.0,0.02351246269481
671.0,0.02406295751688936
670.0,0.02512002699306959
669.0,0.02696455931306696
668.0,0.028445846553939003
667.0,0.027936083991977778
666.0,0.026318081496016443
665.0,0.02461415101053266
664.0,0.023283295636617574
663.0,0.022505030926963654
662.0,0.0221849739168134
661.0,0.0221849739168134
660.0,0.022367834754000393
659.0,0.02282532397981263
658.0,0.02342078135989012
657.0,0.023787622882622816
656.0,0.02365002099672653
655.0,0.02314585342378117
654.0,0.022642270454698687
653.0,0.0221849739168134
652.0,0.021773818325474092
651.0,0.021317434843055594
650.0,0.020907099361673565
649.0,0.020724852408976924
648.0,0.02081596632558158
647.0,0.021135015652343103
646.0,0.02140867317992523
645.0,0.02159120737696063
644.0,0.021636852916117055
643.0,0.02168250325324883
642.0,0.02168250325324883
641.0,0.0214542995372613
640.0,0.021135015652343103
639.0,0.02122621566987748
638.0,0.021956506090037076
637.0,0.02314585342378117
636.0,0.024246610963712723
635.0,0.025028005701930978
634.0,0.025672564576383117
633.0,0.026225806029419818
632.0,0.026502691267936695
631.0,0.02636422658259252
630.0,0.025902996205869
629.0,0.025258095499050004
628.0,0.024706084643793647
627.0,0.024522236834125355
626.0,0.024660115394541604
625.0,0.024660115394541604
624.0,0.024338466818941473
623.0,0.023925268380126097
622.0,0.023925268380126097
621.0,0.024292536462819925
620.0,0.024798037742147727
619.0,0.02544225514642018
618.0,0.02613355016462182
617.0,0.02664120011360227
616.0,0.026318081496016443
615.0,0.02521206778644225
614.0,0.023971159908874107
613.0,0.023374947949272418
612.0,0.023466619608062178
611.0,0.023971159908874107
610.0,0.024568191490736968
609.0,0.024798037742147727
608.0,0.024568191490736968
607.0,0.02406295751688936
606.0,0.023695883447997224
605.0,0.023695883447997224
604.0,0.024017056287453542
603.0,0.024476287039668643
602.0,0.024798037742147727
601.0,0.024476287039668643
600.0,0.023191662661933732
