cm-1,A
4000.0,0.0031819781204844855
3999.0,0.0032257291386954545
3998.0,0.0032257291386954545
3997.0,0.0031819781204844855
3996.0,0.0031382315093266833
3995.0,0.0031382315093266833
3994.0,0.0032257291386954545
3993.0,0.0032694845648473247
3992.0,0.0033132443998284966
3991.0,0.0033570086445275926
3990.0,0.0033132443998284966
3989.0,0.0032694845648473247
3988.0,0.0032694845648473247
3987.0,0.0032694845648473247
3986.0,0.0032694845648473247
3985.0,0.0033570086445275926
3984.0,0.0034445503666347133
3983.0,0.003488327845821315
3982.0,0.003488327845821315
3981.0,0.0034445503666347133
3980.0,0.0034007772998332353
3979.0,0.0033570086445275926
3978.0,0.0034007772998332353
3977.0,0.0034007772998332353
3976.0,0.003488327845821315
3975.0,0.0035321097382827737
3974.0,0.003488327845821315
3973.0,0.0034445503666347133
3972.0,0.0033570086445275926
3971.0,0.0033132443998284966
3970.0,0.0032694845648473247
3969.0,0.0032257291386954545
3968.0,0.0032694845648473247
3967.0,0.0032694845648473247
3966.0,0.0033132443998284966
3965.0,0.0033570086445275926
3964.0,0.0034007772998332353
3963.0,0.0034445503666347133
3962.0,0.0034445503666347133
3961.0,0.003488327845821315
3960.0,0.0034445503666347133
3959.0,0.0034445503666347133
3958.0,0.0034007772998332353
3957.0,0.0034007772998332353
3956.0,0.0034007772998332353
3955.0,0.0034007772998332353
3954.0,0.0033570086445275926
3953.0,0.0033570086445275926
3952.0,0.0034007772998332353
3951.0,0.003488327845821315
3950.0,0.003619686766589858
3949.0,0.0037510854308679953
3948.0,0.003794893821675638
3947.0,0.0038387066319929275
3946.0,0.0038387066319929275
3945.0,0.0037510854308679953
3944.0,0.0036634819042162814
3943.0,0.0035758960449088217
3942.0,0.0035321097382827737
3941.0,0.0035321097382827737
3940.0,0.0035321097382827737
3939.0,0.0035758960449088217
3938.0,0.0036634819042162814
3937.0,0.0037510854308679953
3936.0,0.003794893821675638
3935.0,0.003707281458678491
3934.0,0.003488327845821315
3933.0,0.0033570086445275926
3932.0,0.0033132443998284966
3931.0,0.0034007772998332353
3930.0,0.0035321097382827737
3929.0,0.003707281458678491
3928.0,0.003794893821675638
3927.0,0.003707281458678491
3926.0,0.0035758960449088217
3925.0,0.0035321097382827737
3924.0,0.003619686766589858
3923.0,0.0037510854308679953
3922.0,0.0038825238627120395
3921.0,0.0038825238627120395
3920.0,0.003794893821675638
3919.0,0.003707281458678491
3918.0,0.0036634819042162814
3917.0,0.0036634819042162814
3916.0,0.0037510854308679953
3915.0,0.003794893821675638
3914.0,0.0037510854308679953
3913.0,0.003707281458678491
3912.0,0.0035758960449088217
3911.0,0.0035321097382827737
3910.0,0.003488327845821315
3909.0,0.0035321097382827737
3908.0,0.003619686766589858
3907.0,0.003707281458678491
3906.0,0.003794893821675638
3905.0,0.003926345514724705
3904.0,0.0040578370074493275
3903.0,0.004189368323957332
3902.0,0.004189368323957332
3901.0,0.0040578370074493275
3900.0,0.0038825238627120395
3899.0,0.003707281458678491
3898.0,0.0035758960449088217
3897.0,0.003488327845821315
3896.0,0.0035321097382827737
3895.0,0.0035758960449088217
3894.0,0.003619686766589858
3893.0,0.003619686766589858
3892.0,0.0036634819042162814
3891.0,0.003707281458678491
3890.0,0.0038387066319929275
3889.0,0.003970171588923321
3888.0,0.003926345514724705
3887.0,0.0038825238627120395
3886.0,0.003926345514724705
3885.0,0.004101676353562844
3884.0,0.004189368323957332
3883.0,0.004189368323957332
3882.0,0.00401400208620073
3881.0,0.003926345514724705
3880.0,0.003926345514724705
3879.0,0.003970171588923321
3878.0,0.0038825238627120395
3877.0,0.003707281458678491
3876.0,0.0035321097382827737
3875.0,0.003488327845821315
3874.0,0.0035321097382827737
3873.0,0.0035758960449088217
3872.0,0.003488327845821315
3871.0,0.0033570086445275926
3870.0,0.0034445503666347133
3869.0,0.0037510854308679953
3868.0,0.003926345514724705
3867.0,0.003926345514724705
3866.0,0.003794893821675638
3865.0,0.003794893821675638
3864.0,0.0038825238627120395
3863.0,0.003926345514724705
3862.0,0.0038825238627120395
3861.0,0.003707281458678491
3860.0,0.0035321097382827737
3859.0,0.0034445503666347133
3858.0,0.0035321097382827737
3857.0,0.003619686766589858
3856.0,0.0035321097382827737
3855.0,0.0033132443998284966
3854.0,0.0033570086445275926
3853.0,0.0036634819042162814
3852.0,0.003794893821675638
3851.0,0.0037510854308679953
3850.0,0.003619686766589858
3849.0,0.0035321097382827737
3848.0,0.0035321097382827737
3847.0,0.0035321097382827737
3846.0,0.0035321097382827737
3845.0,0.0035321097382827737
3844.0,0.0035321097382827737
3843.0,0.0035758960449088217
3842.0,0.003707281458678491
3841.0,0.0038387066319929275
3840.0,0.003970171588923321
3839.0,0.004101676353562844
3838.0,0.004189368323957332
3837.0,0.004145520125434121
3836.0,0.0040578370074493275
3835.0,0.0038825238627120395
3834.0,0.0037510854308679953
3833.0,0.0036634819042162814
3832.0,0.003619686766589858
3831.0,0.0036634819042162814
3830.0,0.003707281458678491
3829.0,0.0036634819042162814
3828.0,0.0035758960449088217
3827.0,0.003488327845821315
3826.0,0.0035758960449088217
3825.0,0.003707281458678491
3824.0,0.0037510854308679953
3823.0,0.0035758960449088217
3822.0,0.0034445503666347133
3821.0,0.0035758960449088217
3820.0,0.0038387066319929275
3819.0,0.003926345514724705
3818.0,0.0037510854308679953
3817.0,0.0035321097382827737
3816.0,0.003488327845821315
3815.0,0.003619686766589858
3814.0,0.0036634819042162814
3813.0,0.0035758960449088217
3812.0,0.0034445503666347133
3811.0,0.0033570086445275926
3810.0,0.0033570086445275926
3809.0,0.0032694845648473247
3808.0,0.0031819781204844855
3807.0,0.0032694845648473247
3806.0,0.0034007772998332353
3805.0,0.0035758960449088217
3804.0,0.0035758960449088217
3803.0,0.0034445503666347133
3802.0,0.003488327845821315
3801.0,0.003707281458678491
3800.0,0.0038387066319929275
3799.0,0.0038387066319929275
3798.0,0.003707281458678491
3797.0,0.0035758960449088217
3796.0,0.0035758960449088217
3795.0,0.003619686766589858
3794.0,0.0035758960449088217
3793.0,0.0035321097382827737
3792.0,0.0034445503666347133
3791.0,0.0034007772998332353
3790.0,0.0034007772998332353
3789.0,0.0034445503666347133
3788.0,0.003488327845821315
3787.0,0.0035321097382827737
3786.0,0.003488327845821315
3785.0,0.003488327845821315
3784.0,0.003488327845821315
3783.0,0.003488327845821315
3782.0,0.003488327845821315
3781.0,0.003488327845821315
3780.0,0.0035321097382827737
3779.0,0.003619686766589858
3778.0,0.003619686766589858
3777.0,0.0035321097382827737
3776.0,0.0034007772998332353
3775.0,0.0033132443998284966
3774.0,0.0033570086445275926
3773.0,0.0034007772998332353
3772.0,0.0034007772998332353
3771.0,0.0034007772998332353
3770.0,0.003488327845821315
3769.0,0.0035758960449088217
3768.0,0.0035758960449088217
3767.0,0.0035758960449088217
3766.0,0.0035321097382827737
3765.0,0.0035321097382827737
3764.0,0.0035758960449088217
3763.0,0.0035758960449088217
3762.0,0.0035321097382827737
3761.0,0.003488327845821315
3760.0,0.0035321097382827737
3759.0,0.003619686766589858
3758.0,0.0036634819042162814
3757.0,0.003619686766589858
3756.0,0.0036634819042162814
3755.0,0.003707281458678491
3754.0,0.0037510854308679953
3753.0,0.0037510854308679953
3752.0,0.003707281458678491
3751.0,0.003619686766589858
3750.0,0.003488327845821315
3749.0,0.0034445503666347133
3748.0,0.003619686766589858
3747.0,0.003794893821675638
3746.0,0.003794893821675638
3745.0,0.0038387066319929275
3744.0,0.003970171588923321
3743.0,0.00401400208620073
3742.0,0.0038825238627120395
3741.0,0.0037510854308679953
3740.0,0.0037510854308679953
3739.0,0.003794893821675638
3738.0,0.003794893821675638
3737.0,0.003794893821675638
3736.0,0.0038825238627120395
3735.0,0.003926345514724705
3734.0,0.0038825238627120395
3733.0,0.003707281458678491
3732.0,0.0035321097382827737
3731.0,0.003488327845821315
3730.0,0.003488327845821315
3729.0,0.0034445503666347133
3728.0,0.0034007772998332353
3727.0,0.0034445503666347133
3726.0,0.0035758960449088217
3725.0,0.0036634819042162814
3724.0,0.0036634819042162814
3723.0,0.003619686766589858
3722.0,0.0035758960449088217
3721.0,0.0035758960449088217
3720.0,0.0035758960449088217
3719.0,0.003619686766589858
3718.0,0.0036634819042162814
3717.0,0.0037510854308679953
3716.0,0.0037510854308679953
3715.0,0.003619686766589858
3714.0,0.0034007772998332353
3713.0,0.0032694845648473247
3712.0,0.0033570086445275926
3711.0,0.0035758960449088217
3710.0,0.003707281458678491
3709.0,0.003619686766589858
3708.0,0.0034007772998332353
3707.0,0.0032257291386954545
3706.0,0.0030944893043338695
3705.0,0.0030944893043338695
3704.0,0.0030944893043338695
3703.0,0.0031382315093266833
3702.0,0.0033132443998284966
3701.0,0.0035321097382827737
3700.0,0.0036634819042162814
3699.0,0.003619686766589858
3698.0,0.0034445503666347133
3697.0,0.0033132443998284966
3696.0,0.0032257291386954545
3695.0,0.0032694845648473247
3694.0,0.0033570086445275926
3693.0,0.0034445503666347133
3692.0,0.0035758960449088217
3691.0,0.0036634819042162814
3690.0,0.003707281458678491
3689.0,0.0037510854308679953
3688.0,0.003794893821675638
3687.0,0.003794893821675638
3686.0,0.003707281458678491
3685.0,0.003619686766589858
3684.0,0.003488327845821315
3683.0,0.0033570086445275926
3682.0,0.0033132443998284966
3681.0,0.0033132443998284966
3680.0,0.0034445503666347133
3679.0,0.0037510854308679953
3678.0,0.003926345514724705
3677.0,0.003926345514724705
3676.0,0.003926345514724705
3675.0,0.00401400208620073
3674.0,0.004145520125434121
3673.0,0.004189368323957332
3672.0,0.0040578370074493275
3671.0,0.0038825238627120395
3670.0,0.003926345514724705
3669.0,0.00401400208620073
3668.0,0.00401400208620073
3667.0,0.003926345514724705
3666.0,0.003794893821675638
3665.0,0.0036634819042162814
3664.0,0.0035321097382827737
3663.0,0.0034445503666347133
3662.0,0.0034445503666347133
3661.0,0.0035758960449088217
3660.0,0.003794893821675638
3659.0,0.003926345514724705
3658.0,0.0038825238627120395
3657.0,0.003794893821675638
3656.0,0.003794893821675638
3655.0,0.0038825238627120395
3654.0,0.00401400208620073
3653.0,0.004101676353562844
3652.0,0.00401400208620073
3651.0,0.003970171588923321
3650.0,0.004101676353562844
3649.0,0.004320939488377862
3648.0,0.004452550524862486
3647.0,0.004452550524862486
3646.0,0.004408675747646695
3645.0,0.004320939488377862
3644.0,0.004277078004534696
3643.0,0.004145520125434121
3642.0,0.00401400208620073
3641.0,0.0038387066319929275
3640.0,0.003707281458678491
3639.0,0.0035758960449088217
3638.0,0.003619686766589858
3637.0,0.0037510854308679953
3636.0,0.0038387066319929275
3635.0,0.0038825238627120395
3634.0,0.00401400208620073
3633.0,0.004233220950025984
3632.0,0.004408675747646695
3631.0,0.004452550524862486
3630.0,0.004408675747646695
3629.0,0.004452550524862486
3628.0,0.004408675747646695
3627.0,0.004189368323957332
3626.0,0.003970171588923321
3625.0,0.003794893821675638
3624.0,0.003794893821675638
3623.0,0.003926345514724705
3622.0,0.0040578370074493275
3621.0,0.004189368323957332
3620.0,0.004277078004534696
3619.0,0.004408675747646695
3618.0,0.0044964297349936455
3617.0,0.00458420145758498
3616.0,0.004671990922590297
3615.0,0.004715892310740433
3614.0,0.004759798137184523
3613.0,0.004759798137184523
3612.0,0.004759798137184523
3611.0,0.004671990922590297
3610.0,0.00458420145758498
3609.0,0.00458420145758498
3608.0,0.004671990922590297
3607.0,0.004759798137184523
3606.0,0.004715892310740433
3605.0,0.004628093971837721
3604.0,0.0044964297349936455
3603.0,0.004452550524862486
3602.0,0.0044964297349936455
3601.0,0.00458420145758498
3600.0,0.004628093971837721
3599.0,0.004628093971837721
3598.0,0.004540313378935901
3597.0,0.0044964297349936455
3596.0,0.004452550524862486
3595.0,0.004452550524862486
3594.0,0.0044964297349936455
3593.0,0.00458420145758498
3592.0,0.004671990922590297
3591.0,0.004715892310740433
3590.0,0.004628093971837721
3589.0,0.0044964297349936455
3588.0,0.004408675747646695
3587.0,0.0044964297349936455
3586.0,0.004540313378935901
3585.0,0.004540313378935901
3584.0,0.0044964297349936455
3583.0,0.004452550524862486
3582.0,0.004408675747646695
3581.0,0.004320939488377862
3580.0,0.004277078004534696
3579.0,0.004277078004534696
3578.0,0.004277078004534696
3577.0,0.004277078004534696
3576.0,0.004233220950025984
3575.0,0.004145520125434121
3574.0,0.004189368323957332
3573.0,0.004233220950025984
3572.0,0.0043648054024501
3571.0,0.0044964297349936455
3570.0,0.004540313378935901
3569.0,0.00458420145758498
3568.0,0.004628093971837721
3567.0,0.004803708402820517
3566.0,0.004935465843858511
3565.0,0.004935465843858511
3564.0,0.004803708402820517
3563.0,0.004628093971837721
3562.0,0.004452550524862486
3561.0,0.0043648054024501
3560.0,0.0043648054024501
3559.0,0.004408675747646695
3558.0,0.004408675747646695
3557.0,0.004408675747646695
3556.0,0.004408675747646695
3555.0,0.004408675747646695
3554.0,0.004452550524862486
3553.0,0.0044964297349936455
3552.0,0.00458420145758498
3551.0,0.004628093971837721
3550.0,0.004628093971837721
3549.0,0.004540313378935901
3548.0,0.004452550524862486
3547.0,0.004452550524862486
3546.0,0.004540313378935901
3545.0,0.004628093971837721
3544.0,0.004628093971837721
3543.0,0.004540313378935901
3542.0,0.004452550524862486
3541.0,0.0044964297349936455
3540.0,0.00458420145758498
3539.0,0.004715892310740433
3538.0,0.004759798137184523
3537.0,0.004759798137184523
3536.0,0.004671990922590297
3535.0,0.0044964297349936455
3534.0,0.0043648054024501
3533.0,0.004320939488377862
3532.0,0.004320939488377862
3531.0,0.0043648054024501
3530.0,0.004452550524862486
3529.0,0.0044964297349936455
3528.0,0.0044964297349936455
3527.0,0.004540313378935901
3526.0,0.00458420145758498
3525.0,0.004628093971837721
3524.0,0.004628093971837721
3523.0,0.004628093971837721
3522.0,0.004628093971837721
3521.0,0.00458420145758498
3520.0,0.00458420145758498
3519.0,0.00458420145758498
3518.0,0.0044964297349936455
3517.0,0.004452550524862486
3516.0,0.004408675747646695
3515.0,0.004452550524862486
3514.0,0.0044964297349936455
3513.0,0.004540313378935901
3512.0,0.004452550524862486
3511.0,0.0043648054024501
3510.0,0.004320939488377862
3509.0,0.004320939488377862
3508.0,0.004320939488377862
3507.0,0.004320939488377862
3506.0,0.004320939488377862
3505.0,0.004320939488377862
3504.0,0.0043648054024501
3503.0,0.004452550524862486
3502.0,0.0044964297349936455
3501.0,0.0044964297349936455
3500.0,0.004408675747646695
3499.0,0.004320939488377862
3498.0,0.004277078004534696
3497.0,0.004277078004534696
3496.0,0.0043648054024501
3495.0,0.004408675747646695
3494.0,0.004408675747646695
3493.0,0.004408675747646695
3492.0,0.0043648054024501
3491.0,0.004320939488377862
3490.0,0.004320939488377862
3489.0,0.004277078004534696
3488.0,0.004233220950025984
3487.0,0.004189368323957332
3486.0,0.004189368323957332
3485.0,0.004189368323957332
3484.0,0.004233220950025984
3483.0,0.004277078004534696
3482.0,0.004320939488377862
3481.0,0.0043648054024501
3480.0,0.004408675747646695
3479.0,0.004408675747646695
3478.0,0.004452550524862486
3477.0,0.004408675747646695
3476.0,0.004408675747646695
3475.0,0.004408675747646695
3474.0,0.004408675747646695
3473.0,0.004452550524862486
3472.0,0.004452550524862486
3471.0,0.0044964297349936455
3470.0,0.004540313378935901
3469.0,0.004628093971837721
3468.0,0.00458420145758498
3467.0,0.004540313378935901
3466.0,0.004408675747646695
3465.0,0.004320939488377862
3464.0,0.004277078004534696
3463.0,0.004233220950025984
3462.0,0.004277078004534696
3461.0,0.004320939488377862
3460.0,0.004408675747646695
3459.0,0.0044964297349936455
3458.0,0.004540313378935901
3457.0,0.004540313378935901
3456.0,0.0044964297349936455
3455.0,0.004408675747646695
3454.0,0.004277078004534696
3453.0,0.004145520125434121
3452.0,0.004101676353562844
3451.0,0.004101676353562844
3450.0,0.004189368323957332
3449.0,0.004277078004534696
3448.0,0.004320939488377862
3447.0,0.0043648054024501
3446.0,0.0043648054024501
3445.0,0.004452550524862486
3444.0,0.0044964297349936455
3443.0,0.004540313378935901
3442.0,0.004540313378935901
3441.0,0.0044964297349936455
3440.0,0.004452550524862486
3439.0,0.0044964297349936455
3438.0,0.004628093971837721
3437.0,0.004803708402820517
3436.0,0.004935465843858511
3435.0,0.004935465843858511
3434.0,0.00484762310854614
3433.0,0.004628093971837721
3432.0,0.004408675747646695
3431.0,0.004277078004534696
3430.0,0.004233220950025984
3429.0,0.004277078004534696
3428.0,0.004320939488377862
3427.0,0.004408675747646695
3426.0,0.004452550524862486
3425.0,0.004452550524862486
3424.0,0.004408675747646695
3423.0,0.004408675747646695
3422.0,0.004408675747646695
3421.0,0.004452550524862486
3420.0,0.0044964297349936455
3419.0,0.004540313378935901
3418.0,0.004540313378935901
3417.0,0.0044964297349936455
3416.0,0.004452550524862486
3415.0,0.004408675747646695
3414.0,0.004452550524862486
3413.0,0.004452550524862486
3412.0,0.004452550524862486
3411.0,0.0043648054024501
3410.0,0.004320939488377862
3409.0,0.0043648054024501
3408.0,0.004408675747646695
3407.0,0.0044964297349936455
3406.0,0.00458420145758498
3405.0,0.004628093971837721
3404.0,0.004628093971837721
3403.0,0.004540313378935901
3402.0,0.0044964297349936455
3401.0,0.004452550524862486
3400.0,0.0044964297349936455
3399.0,0.0044964297349936455
3398.0,0.004452550524862486
3397.0,0.0043648054024501
3396.0,0.004277078004534696
3395.0,0.004189368323957332
3394.0,0.004189368323957332
3393.0,0.004233220950025984
3392.0,0.004320939488377862
3391.0,0.004408675747646695
3390.0,0.0044964297349936455
3389.0,0.0044964297349936455
3388.0,0.0044964297349936455
3387.0,0.0044964297349936455
3386.0,0.0044964297349936455
3385.0,0.004540313378935901
3384.0,0.0044964297349936455
3383.0,0.004408675747646695
3382.0,0.004277078004534696
3381.0,0.004189368323957332
3380.0,0.004189368323957332
3379.0,0.004277078004534696
3378.0,0.0043648054024501
3377.0,0.0044964297349936455
3376.0,0.00458420145758498
3375.0,0.004628093971837721
3374.0,0.004628093971837721
3373.0,0.00458420145758498
3372.0,0.00458420145758498
3371.0,0.00458420145758498
3370.0,0.00458420145758498
3369.0,0.004628093971837721
3368.0,0.004671990922590297
3367.0,0.004628093971837721
3366.0,0.004540313378935901
3365.0,0.004408675747646695
3364.0,0.004277078004534696
3363.0,0.004277078004534696
3362.0,0.0043648054024501
3361.0,0.004452550524862486
3360.0,0.004452550524862486
3359.0,0.004408675747646695
3358.0,0.004277078004534696
3357.0,0.004189368323957332
3356.0,0.004145520125434121
3355.0,0.004101676353562844
3354.0,0.0040578370074493275
3353.0,0.0040578370074493275
3352.0,0.004145520125434121
3351.0,0.004277078004534696
3350.0,0.0043648054024501
3349.0,0.004452550524862486
3348.0,0.004452550524862486
3347.0,0.0044964297349936455
3346.0,0.004452550524862486
3345.0,0.004452550524862486
3344.0,0.0043648054024501
3343.0,0.004277078004534696
3342.0,0.004189368323957332
3341.0,0.004101676353562844
3340.0,0.004101676353562844
3339.0,0.0040578370074493275
3338.0,0.00401400208620073
3337.0,0.003970171588923321
3336.0,0.003970171588923321
3335.0,0.0040578370074493275
3334.0,0.004145520125434121
3333.0,0.004233220950025984
3332.0,0.004277078004534696
3331.0,0.004233220950025984
3330.0,0.004145520125434121
3329.0,0.0040578370074493275
3328.0,0.003926345514724705
3327.0,0.003926345514724705
3326.0,0.003970171588923321
3325.0,0.00401400208620073
3324.0,0.0040578370074493275
3323.0,0.0040578370074493275
3322.0,0.0040578370074493275
3321.0,0.00401400208620073
3320.0,0.003970171588923321
3319.0,0.003970171588923321
3318.0,0.003926345514724705
3317.0,0.003926345514724705
3316.0,0.0038825238627120395
3315.0,0.0038825238627120395
3314.0,0.0038825238627120395
3313.0,0.0038825238627120395
3312.0,0.0038825238627120395
3311.0,0.0038387066319929275
3310.0,0.0038387066319929275
3309.0,0.0038387066319929275
3308.0,0.0038825238627120395
3307.0,0.003926345514724705
3306.0,0.003970171588923321
3305.0,0.00401400208620073
3304.0,0.003970171588923321
3303.0,0.0038825238627120395
3302.0,0.0038387066319929275
3301.0,0.003794893821675638
3300.0,0.0037510854308679953
3299.0,0.003707281458678491
3298.0,0.003707281458678491
3297.0,0.0036634819042162814
3296.0,0.003707281458678491
3295.0,0.0037510854308679953
3294.0,0.003794893821675638
3293.0,0.003794893821675638
3292.0,0.003794893821675638
3291.0,0.0037510854308679953
3290.0,0.003794893821675638
3289.0,0.0038387066319929275
3288.0,0.003926345514724705
3287.0,0.003970171588923321
3286.0,0.003926345514724705
3285.0,0.0038387066319929275
3284.0,0.003794893821675638
3283.0,0.0037510854308679953
3282.0,0.0037510854308679953
3281.0,0.0037510854308679953
3280.0,0.003707281458678491
3279.0,0.0035758960449088217
3278.0,0.0034445503666347133
3277.0,0.0033132443998284966
3276.0,0.0033132443998284966
3275.0,0.0033570086445275926
3274.0,0.0034007772998332353
3273.0,0.0034445503666347133
3272.0,0.0034445503666347133
3271.0,0.003488327845821315
3270.0,0.0035321097382827737
3269.0,0.0035758960449088217
3268.0,0.003619686766589858
3267.0,0.003619686766589858
3266.0,0.003619686766589858
3265.0,0.0035321097382827737
3264.0,0.0034007772998332353
3263.0,0.0033132443998284966
3262.0,0.0033132443998284966
3261.0,0.0033132443998284966
3260.0,0.0032694845648473247
3259.0,0.0031819781204844855
3258.0,0.0031819781204844855
3257.0,0.0031819781204844855
3256.0,0.0032694845648473247
3255.0,0.0032694845648473247
3254.0,0.0032694845648473247
3253.0,0.0032694845648473247
3252.0,0.0032694845648473247
3251.0,0.0032694845648473247
3250.0,0.0032694845648473247
3249.0,0.0032694845648473247
3248.0,0.0032257291386954545
3247.0,0.0031819781204844855
3246.0,0.0030944893043338695
3245.0,0.003050751504618754
3244.0,0.0029632891174733444
3243.0,0.0029195645282691363
3242.0,0.0029195645282691363
3241.0,0.0029195645282691363
3240.0,0.0029195645282691363
3239.0,0.0028758443407954637
3238.0,0.0028321285541661467
3237.0,0.0028321285541661467
3236.0,0.0028321285541661467
3235.0,0.0028758443407954637
3234.0,0.0030070181092942683
3233.0,0.0030944893043338695
3232.0,0.0030944893043338695
3231.0,0.003050751504618754
3230.0,0.0029632891174733444
3229.0,0.0028758443407954637
3228.0,0.0028758443407954637
3227.0,0.0029632891174733444
3226.0,0.0030070181092942683
3225.0,0.003050751504618754
3224.0,0.0029632891174733444
3223.0,0.0028321285541661467
3222.0,0.0027884171674950053
3221.0,0.0027447101798967477
3220.0,0.0027447101798967477
3219.0,0.0027447101798967477
3218.0,0.0027447101798967477
3217.0,0.0027884171674950053
3216.0,0.0027884171674950053
3215.0,0.0028321285541661467
3214.0,0.0028758443407954637
3213.0,0.0028758443407954637
3212.0,0.0028321285541661467
3211.0,0.0027447101798967477
3210.0,0.002569926202528716
3209.0,0.002395212539545666
3208.0,0.002351545103793873
3207.0,0.002395212539545666
3206.0,0.002482560585275184
3205.0,0.002613615602686581
3204.0,0.002613615602686581
3203.0,0.002613615602686581
3202.0,0.002613615602686581
3201.0,0.0026573093983774942
3200.0,0.002701007590486082
3199.0,0.0027447101798967477
3198.0,0.002701007590486082
3197.0,0.002613615602686581
3196.0,0.002482560585275184
3195.0,0.002395212539545666
3194.0,0.002351545103793873
3193.0,0.0024388843664115978
3192.0,0.0025262411970197185
3191.0,0.002569926202528716
3190.0,0.0025262411970197185
3189.0,0.0024388843664115978
3188.0,0.002395212539545666
3187.0,0.002351545103793873
3186.0,0.0023078820582733695
3185.0,0.0022642234021015284
3184.0,0.0021769192542746563
3183.0,0.0022205691343961664
3182.0,0.0022642234021015284
3181.0,0.0023078820582733695
3180.0,0.002351545103793873
3179.0,0.002351545103793873
3178.0,0.002395212539545666
3177.0,0.002395212539545666
3176.0,0.002351545103793873
3175.0,0.0022642234021015284
3174.0,0.0021769192542746563
3173.0,0.0021332737608552588
3172.0,0.002089632653256679
3171.0,0.0020459959305969555
3170.0,0.0020459959305969555
3169.0,0.0020459959305969555
3168.0,0.002089632653256679
3167.0,0.002089632653256679
3166.0,0.002089632653256679
3165.0,0.002089632653256679
3164.0,0.0020459959305969555
3163.0,0.0020459959305969555
3162.0,0.0019587356365717845
3161.0,0.001915112063444413
3160.0,0.0017842676290416026
3159.0,0.0016970599014589638
3158.0,0.0016534626036355249
3157.0,0.001609869681952425
3156.0,0.001609869681952425
3155.0,0.0015662811355310335
3154.0,0.0015662811355310335
3153.0,0.0015662811355310335
3152.0,0.0015226969634936083
3151.0,0.0014791171649619628
3150.0,0.0014791171649619628
3149.0,0.0014791171649619628
3148.0,0.0015226969634936083
3147.0,0.0015662811355310335
3146.0,0.0015662811355310335
3145.0,0.001609869681952425
3144.0,0.0015662811355310335
3143.0,0.0015226969634936083
3142.0,0.0014791171649619628
3141.0,0.0014791171649619628
3140.0,0.0015662811355310335
3139.0,0.0016970599014589638
3138.0,0.0017842676290416026
3137.0,0.0017842676290416026
3136.0,0.0016970599014589638
3135.0,0.0015662811355310335
3134.0,0.0014791171649619628
3133.0,0.0013919706849057079
3132.0,0.0013919706849057079
3131.0,0.0013919706849057079
3130.0,0.0013919706849057079
3129.0,0.0013919706849057079
3128.0,0.001348404001626502
3127.0,0.0012612837441823288
3126.0,0.0012612837441823288
3125.0,0.0012612837441823288
3124.0,0.0012177301682640973
3123.0,0.0011306361176557367
3122.0,0.0010435595295137379
3121.0,0.0010435595295137379
3120.0,0.0011306361176557367
3119.0,0.0011741809597138886
3118.0,0.0012177301682640973
3117.0,0.0011741809597138886
3116.0,0.0010870956412141197
3115.0,0.0010870956412141197
3114.0,0.0011306361176557367
3113.0,0.0012177301682640973
3112.0,0.0012177301682640973
3111.0,0.0012177301682640973
3110.0,0.0012177301682640973
3109.0,0.0012612837441823288
3108.0,0.001304841688344327
3107.0,0.0012612837441823288
3106.0,0.0011741809597138886
3105.0,0.0010870956412141197
3104.0,0.0010435595295137379
3103.0,0.0010000277816797354
3102.0,0.0010435595295137379
3101.0,0.0010870956412141197
3100.0,0.0011741809597138886
3099.0,0.0012177301682640973
3098.0,0.0012612837441823288
3097.0,0.001348404001626502
3096.0,0.0013919706849057079
3095.0,0.0014355417390583547
3094.0,0.0013919706849057079
3093.0,0.001304841688344327
3092.0,0.0012612837441823288
3091.0,0.001304841688344327
3090.0,0.0013919706849057079
3089.0,0.0014791171649619628
3088.0,0.0015226969634936083
3087.0,0.0014791171649619628
3086.0,0.0013919706849057079
3085.0,0.001348404001626502
3084.0,0.001348404001626502
3083.0,0.001348404001626502
3082.0,0.001348404001626502
3081.0,0.001348404001626502
3080.0,0.001348404001626502
3079.0,0.001348404001626502
3078.0,0.001304841688344327
3077.0,0.0012612837441823288
3076.0,0.0012612837441823288
3075.0,0.0012612837441823288
3074.0,0.001304841688344327
3073.0,0.0012612837441823288
3072.0,0.0012612837441823288
3071.0,0.0012612837441823288
3070.0,0.0012612837441823288
3069.0,0.0012177301682640973
3068.0,0.0012177301682640973
3067.0,0.0012177301682640973
3066.0,0.0012177301682640973
3065.0,0.0012177301682640973
3064.0,0.0012177301682640973
3063.0,0.0012177301682640973
3062.0,0.0011741809597138886
3061.0,0.0011306361176557367
3060.0,0.0010870956412141197
3059.0,0.0010435595295137379
3058.0,0.0010435595295137379
3057.0,0.0010870956412141197
3056.0,0.0011741809597138886
3055.0,0.0011741809597138886
3054.0,0.0011741809597138886
3053.0,0.0011741809597138886
3052.0,0.0011306361176557367
3051.0,0.0010870956412141197
3050.0,0.0010435595295137379
3049.0,0.0010435595295137379
3048.0,0.0010435595295137379
3047.0,0.0010000277816797354
3046.0,0.0010000277816797354
3045.0,0.0010000277816797354
3044.0,0.0010000277816797354
3043.0,0.0010435595295137379
3042.0,0.0010435595295137379
3041.0,0.0011306361176557367
3040.0,0.0011741809597138886
3039.0,0.0012177301682640973
3038.0,0.0012612837441823288
3037.0,0.0012612837441823288
3036.0,0.0012612837441823288
3035.0,0.0012177301682640973
3034.0,0.0012177301682640973
3033.0,0.0011741809597138886
3032.0,0.0011741809597138886
3031.0,0.0011306361176557367
3030.0,0.0010435595295137379
3029.0,0.0010000277816797354
3028.0,0.0009565003968372565
3027.0,0.0009565003968372565
3026.0,0.0009565003968372565
3025.0,0.0009129773741116676
3024.0,0.000869458712629001
3023.0,0.000869458712629001
3022.0,0.000869458712629001
3021.0,0.0009129773741116676
3020.0,0.0009129773741116676
3019.0,0.0008259444115150671
3018.0,0.0007389288868995258
3017.0,0.0006954276616513155
3016.0,0.0006519307932786322
3015.0,0.0006519307932786322
3014.0,0.0006519307932786322
3013.0,0.0006519307932786322
3012.0,0.0006519307932786322
3011.0,0.0006519307932786322
3010.0,0.0005649501236701937
3009.0,0.000521466320689834
3008.0,0.00043451177401765406
3007.0,0.0003910410285830057
3006.0,0.0003475746339209884
3005.0,0.00030411258916074324
3004.0,0.0003475746339209884
3003.0,0.00043451177401765406
3002.0,0.0005649501236701937
3001.0,0.0006519307932786322
3000.0,0.0006954276616513155
2999.0,0.0007389288868995258
2998.0,0.0006954276616513155
2997.0,0.0006519307932786322
2996.0,0.0006084382809090627
2995.0,0.0005649501236701937
2994.0,0.000521466320689834
2993.0,0.000521466320689834
2992.0,0.000521466320689834
2991.0,0.000521466320689834
2990.0,0.0005649501236701937
2989.0,0.0006084382809090627
2988.0,0.0006519307932786322
2987.0,0.0007389288868995258
2986.0,0.000869458712629001
2985.0,0.0009565003968372565
2984.0,0.0010000277816797354
2983.0,0.0010870956412141197
2982.0,0.0012612837441823288
2981.0,0.0014355417390583547
2980.0,0.0015226969634936083
2979.0,0.001609869681952425
2978.0,0.0016534626036355249
2977.0,0.0017406615763013722
2976.0,0.0019587356365717845
2975.0,0.0022642234021015284
2974.0,0.0025262411970197185
2973.0,0.0028321285541661467
2972.0,0.0030944893043338695
2971.0,0.0033570086445275926
2970.0,0.003707281458678491
2969.0,0.004145520125434121
2968.0,0.00458420145758498
2967.0,0.005023326350308999
2966.0,0.005462895701502157
2965.0,0.005858888873877532
2964.0,0.00625524344553785
2963.0,0.006696062080525422
2962.0,0.007181479933320523
2961.0,0.007711646202907652
2960.0,0.008242460465651913
2959.0,0.008685301823389224
2958.0,0.009128595198514056
2957.0,0.009483555971770974
2956.0,0.009838807101520963
2955.0,0.010283280051895272
2954.0,0.010728208358306901
2953.0,0.01117359295472431
2952.0,0.011664044143949504
2951.0,0.012289056869694281
2950.0,0.013093968619278806
2949.0,0.01403492169512921
2948.0,0.015067833932588037
2947.0,0.016238439713835096
2946.0,0.01759307113620534
2945.0,0.019133445417920836
2944.0,0.0209982515252789
2943.0,0.023191662661933732
2942.0,0.025718641122169483
2941.0,0.02849221828874393
2940.0,0.03147035562516054
2939.0,0.03465716443937783
2938.0,0.038151940981675736
2937.0,0.04196198390166317
2936.0,0.04609540658654021
2935.0,0.05056119896349576
2934.0,0.05536929814372171
2933.0,0.06058059667068294
2932.0,0.06625970050306473
2931.0,0.07247565912497134
2930.0,0.07919861817434581
2929.0,0.08655704514060414
2928.0,0.09463593123310776
2927.0,0.10369429253391926
2926.0,0.11390426756225258
2925.0,0.12546020292898974
2924.0,0.13846558914096208
2923.0,0.15304467498017615
2922.0,0.16902660267734948
2921.0,0.1862189218259176
2920.0,0.2040505010971967
2919.0,0.22170400891116615
2918.0,0.2376215706880358
2917.0,0.2501091587285782
2916.0,0.2575105354182248
2915.0,0.25900606841511387
2914.0,0.25500332596143993
2913.0,0.24687675531828734
2912.0,0.23619777592540725
2911.0,0.22446236521904295
2910.0,0.2126103786478899
2909.0,0.20141840527145227
2908.0,0.1911815749078758
2907.0,0.1821703002543944
2906.0,0.17418455501479646
2905.0,0.16723569505946845
2904.0,0.16115090926274478
2903.0,0.15577141869837208
2902.0,0.15107228677292173
2901.0,0.14691047014813452
2900.0,0.14315032127482774
2899.0,0.13978181533124334
2898.0,0.13655817138629134
2897.0,0.13341732293645103
2896.0,0.13024040521758962
2895.0,0.12702836926155658
2894.0,0.12372441132212098
2893.0,0.1203880929341492
2892.0,0.11713408027837091
2891.0,0.11390426756225258
2890.0,0.1106422631110684
2889.0,0.10729336219433439
2888.0,0.10391491457671487
2887.0,0.10039834085387778
2886.0,0.09685572959046151
2885.0,0.09323411045927221
2884.0,0.08958906008531176
2883.0,0.08586848736910624
2882.0,0.08217951800630297
2881.0,0.07841755960658348
2880.0,0.07463633264589853
2879.0,0.07093887591523451
2878.0,0.06737405597821788
2877.0,0.06393888339001164
2876.0,0.060730413661268745
2875.0,0.05784307153250956
2874.0,0.05531996611868961
2873.0,0.05305672930217464
2872.0,0.051049389754451946
2871.0,0.049245818406496555
2870.0,0.04778894189133087
2869.0,0.04662694927330402
2868.0,0.045902279520810385
2867.0,0.045564513671517703
2866.0,0.04575749056067524
2865.0,0.04653025674659861
2864.0,0.047982909952573705
2863.0,0.05012229596312534
2862.0,0.053203972728539606
2861.0,0.05729763111133224
2860.0,0.06248210798265341
2859.0,0.06894915322260897
2858.0,0.07701518429111709
2857.0,0.08687520961044104
2856.0,0.09892328427374508
2855.0,0.1137349409702435
2854.0,0.13182595914036166
2853.0,0.15360102696532518
2852.0,0.1785519809824696
2851.0,0.2049546295788751
2850.0,0.22914798835785577
2849.0,0.2465701584245772
2848.0,0.2536772349100471
2847.0,0.2498002721708179
2846.0,0.23717144681090963
2845.0,0.2193946941610303
2844.0,0.19997064075586568
2843.0,0.18091692425629735
2842.0,0.16348600110932865
2841.0,0.1480693213597324
2840.0,0.13483678049391368
2839.0,0.12355121312165873
2838.0,0.11401718864502697
2837.0,0.10585015323207791
2836.0,0.09886874864462802
2835.0,0.09291125492570451
2834.0,0.0877779434675845
2833.0,0.08333553545860273
2832.0,0.0794071379151915
2831.0,0.07592757008963713
2830.0,0.07278366940873537
2829.0,0.07001940948448526
2828.0,0.06747550294945781
2827.0,0.06514819703433927
2826.0,0.06298389253518577
2825.0,0.06103020277710969
2824.0,0.05918479134919874
2823.0,0.05754547365752294
2822.0,0.05601112492622806
2821.0,0.05458065739693696
2820.0,0.05325306496641513
2819.0,0.052027420754219955
2818.0,0.05085404758005607
2817.0,0.04978123335813667
2816.0,0.04871106272232795
2815.0,0.04774046340917959
2814.0,0.04677202844014605
2813.0,0.04585401117045196
2812.0,0.044986096961949995
2811.0,0.04421607108308856
2810.0,0.04339941178682327
2809.0,0.04263219156847242
2808.0,0.04186632432376469
2807.0,0.041101805289228244
2806.0,0.04043395336207234
2805.0,0.03986232513620536
2804.0,0.03938654235209116
2803.0,0.038911280232103884
2802.0,0.038436537637930535
2801.0,0.03791491948264003
2800.0,0.03739392707587297
2799.0,0.03692083935817303
2798.0,0.036542739883292485
2797.0,0.03616496929785207
2796.0,0.035740369803151095
2795.0,0.03531618502395939
2794.0,0.03484535401307465
2793.0,0.03432802877989327
2792.0,0.0338113190438627
2791.0,0.033295223342125535
2790.0,0.03282657704446046
2789.0,0.032311649546687526
2788.0,0.03184406285002961
2787.0,0.03142366482450232
2786.0,0.03105031901865729
2785.0,0.03067729388779794
2784.0,0.03030458888152676
2783.0,0.029932203450862893
2782.0,0.029560137048236124
2781.0,0.029234840219232394
2780.0,0.02890978686288448
2779.0,0.02858497661500481
2778.0,0.028214062120885508
2777.0,0.027889771597169544
2776.0,0.027565723042634938
2775.0,0.027288159452933503
2774.0,0.027010773144651168
2773.0,0.026733563891471412
2772.0,0.026502691267936695
2771.0,0.026225806029419818
2770.0,0.025995203102585407
2769.0,0.025718641122169483
2768.0,0.025488307262671706
2767.0,0.025304128090317013
2766.0,0.025074013910237447
2765.0,0.02484402159331056
2764.0,0.024660115394541604
2763.0,0.024476287039668643
2762.0,0.024338466818941473
2761.0,0.024154774532432866
2760.0,0.023971159908874107
2759.0,0.023833499868024743
2758.0,0.023695883447997224
2757.0,0.02355831062115543
2756.0,0.02342078135989012
2755.0,0.023237476732539397
2754.0,0.023054249440757957
2753.0,0.02291687968414724
2752.0,0.02277955336461468
2751.0,0.022688026603074007
2750.0,0.02255077261765881
2749.0,0.02245929405346514
2748.0,0.022322112326006227
2747.0,0.022230681908425698
2746.0,0.0221849739168134
2745.0,0.022093572362881675
2744.0,0.02200219004126036
2743.0,0.021910826943857264
2742.0,0.021819483062586187
2741.0,0.021728158389364705
2740.0,0.021636852916117055
2739.0,0.02159120737696063
2738.0,0.021545566634771474
2737.0,0.021499930688540836
2736.0,0.0214542995372613
2735.0,0.021317434843055594
2734.0,0.021089422824428272
2733.0,0.020907099361673565
2732.0,0.020724852408976924
2731.0,0.02058821736556471
2730.0,0.020497151212598652
2729.0,0.020406104151069693
2728.0,0.02036058777709271
2727.0,0.02022406727031445
2726.0,0.020087589665283012
2725.0,0.01995115493504329
2724.0,0.019860222254245663
2723.0,0.019723858922159776
2722.0,0.01958753839310856
2721.0,0.01949668180660491
2720.0,0.019360432556262852
2719.0,0.019315025636685412
2718.0,0.0192242260373785
2717.0,0.019178833355664393
2716.0,0.019133445417920836
2715.0,0.0190880622231564
2714.0,0.01899731005860028
2713.0,0.018906576854070378
2712.0,0.018770512579999288
2711.0,0.018634490921455527
2710.0,0.018543833477873584
2709.0,0.018543833477873584
2708.0,0.018498511851753108
2707.0,0.018498511851753108
2706.0,0.01840788278591865
2705.0,0.01831727262871463
2704.0,0.018226681372252695
2703.0,0.01809082990920774
2702.0,0.017909760704207134
2701.0,0.01781925440359733
2700.0,0.01781925440359733
2699.0,0.017864505196230507
2698.0,0.017909760704207134
2697.0,0.017909760704207134
2696.0,0.017864505196230507
2695.0,0.017728766960431575
2694.0,0.01759307113620534
2693.0,0.017457417697056554
2692.0,0.017367005605150476
2691.0,0.017367005605150476
2690.0,0.01727661233145472
2689.0,0.017231422748988034
2688.0,0.017141057687924732
2687.0,0.017095882207371904
2686.0,0.017050711425501408
2685.0,0.017050711425501408
2684.0,0.017050711425501408
2683.0,0.017050711425501408
2682.0,0.017050711425501408
2681.0,0.017050711425501408
2680.0,0.016960383953898095
2679.0,0.016870075265299933
2678.0,0.016824927962187042
2677.0,0.01677978535189717
2676.0,0.01677978535189717
2675.0,0.01677978535189717
2674.0,0.016824927962187042
2673.0,0.016824927962187042
2672.0,0.016870075265299933
2671.0,0.016915227262211507
2670.0,0.016960383953898095
2669.0,0.017050711425501408
2668.0,0.017141057687924732
2667.0,0.017186237868137555
2666.0,0.017141057687924732
2665.0,0.017095882207371904
2664.0,0.017095882207371904
2663.0,0.017050711425501408
2662.0,0.017050711425501408
2661.0,0.017005545341335804
2660.0,0.016915227262211507
2659.0,0.016824927962187042
2658.0,0.016734647433454652
2657.0,0.016689514205884493
2656.0,0.016644385668211692
2655.0,0.016644385668211692
2654.0,0.016599261819461697
2653.0,0.016554142658660398
2652.0,0.016554142658660398
2651.0,0.016599261819461697
2650.0,0.016644385668211692
2649.0,0.016689514205884493
2648.0,0.016689514205884493
2647.0,0.016689514205884493
2646.0,0.016644385668211692
2645.0,0.016599261819461697
2644.0,0.016554142658660398
2643.0,0.016599261819461697
2642.0,0.016644385668211692
2641.0,0.016734647433454652
2640.0,0.01677978535189717
2639.0,0.01677978535189717
2638.0,0.016734647433454652
2637.0,0.016689514205884493
2636.0,0.016599261819461697
2635.0,0.016554142658660398
2634.0,0.01646391839700767
2633.0,0.016418813294209356
2632.0,0.016373712875465518
2631.0,0.01632861713980338
2630.0,0.01628352608625061
2629.0,0.01628352608625061
2628.0,0.016238439713835096
2627.0,0.016238439713835096
2626.0,0.016193358021584725
2625.0,0.016103208673694303
2624.0,0.01596801972881945
2623.0,0.015922966097169144
2622.0,0.015832872853011715
2621.0,0.015832872853011715
2620.0,0.01578783323856614
2619.0,0.015697768020096703
2618.0,0.015562705203923999
2617.0,0.01538268676325183
2616.0,0.015247721884586563
2615.0,0.015157768594724175
2614.0,0.015067833932588037
2613.0,0.014977917890464765
2612.0,0.014843078722943437
2611.0,0.014708281407112
2610.0,0.014618439768003144
2609.0,0.01452861671041239
2608.0,0.0144837121472845
2607.0,0.0144837121472845
2606.0,0.01452861671041239
2605.0,0.01452861671041239
2604.0,0.014438812226654996
2603.0,0.014349026309051105
2602.0,0.014214382227394795
2601.0,0.014169510141607944
2600.0,0.014124642691606404
2599.0,0.014079779876432497
2598.0,0.014079779876432497
2597.0,0.01403492169512921
2596.0,0.013990068146738865
2595.0,0.013945219230304673
2594.0,0.013900374944870508
2593.0,0.013900374944870508
2592.0,0.01385553528947936
2591.0,0.013765869865004277
2590.0,0.013676222949234651
2589.0,0.013631406429727155
2588.0,0.013541787262693505
2587.0,0.013496984613259544
2586.0,0.013452186585275916
2585.0,0.013407393177789162
2584.0,0.013407393177789162
2583.0,0.013362604389846044
2582.0,0.013317820220494436
2581.0,0.013273040668781544
2580.0,0.013273040668781544
2579.0,0.01322826573375524
2578.0,0.01322826573375524
2577.0,0.01322826573375524
2576.0,0.01318349541446362
2575.0,0.013138729709955221
2574.0,0.013093968619278806
2573.0,0.013004460275618523
2572.0,0.012914970375878188
2571.0,0.012825498912458322
2570.0,0.012736045877764557
2569.0,0.012691326268817527
2568.0,0.01264661126420652
2567.0,0.012691326268817527
2566.0,0.012736045877764557
2565.0,0.012736045877764557
2564.0,0.012691326268817527
2563.0,0.01264661126420652
2562.0,0.01264661126420652
2561.0,0.01264661126420652
2560.0,0.01264661126420652
2559.0,0.01264661126420652
2558.0,0.01260190086298274
2557.0,0.012557195064198723
2556.0,0.012512493866907004
2555.0,0.012512493866907004
2554.0,0.012467797270160563
2553.0,0.012378417874516323
2552.0,0.012333735073725371
2551.0,0.012289056869694281
2550.0,0.012289056869694281
2549.0,0.012289056869694281
2548.0,0.012333735073725371
2547.0,0.012289056869694281
2546.0,0.012199714248127602
2545.0,0.012065734767841452
2544.0,0.0119764380713403
2543.0,0.011931796607364653
2542.0,0.011931796607364653
2541.0,0.0119764380713403
2540.0,0.0119764380713403
2539.0,0.011931796607364653
2538.0,0.011797899741219142
2537.0,0.011664044143949504
2536.0,0.011574829993696856
2535.0,0.011530229790124524
2534.0,0.011485634166333858
2533.0,0.011485634166333858
2532.0,0.011485634166333858
2531.0,0.011485634166333858
2530.0,0.011485634166333858
2529.0,0.011530229790124524
2528.0,0.011574829993696856
2527.0,0.011619434777991433
2526.0,0.011574829993696856
2525.0,0.011574829993696856
2524.0,0.011574829993696856
2523.0,0.011574829993696856
2522.0,0.011530229790124524
2521.0,0.011485634166333858
2520.0,0.011396456654336085
2519.0,0.011351874764248926
2518.0,0.011307297450183107
2517.0,0.011307297450183107
2516.0,0.011262724711199823
2515.0,0.011262724711199823
2514.0,0.011218156546359825
2513.0,0.01117359295472431
2512.0,0.011129033935354915
2511.0,0.011084479487313281
2510.0,0.011084479487313281
2509.0,0.011084479487313281
2508.0,0.011084479487313281
2507.0,0.011084479487313281
2506.0,0.011084479487313281
2505.0,0.011084479487313281
2504.0,0.011039929609661936
2503.0,0.010995384301463185
2502.0,0.010995384301463185
2501.0,0.010950843561779777
2500.0,0.010950843561779777
2499.0,0.010950843561779777
2498.0,0.010906307389674463
2497.0,0.010906307389674463
2496.0,0.01086177578421088
2495.0,0.01086177578421088
2494.0,0.010817248744452446
2493.0,0.010817248744452446
2492.0,0.01086177578421088
2491.0,0.01086177578421088
2490.0,0.010906307389674463
2489.0,0.010906307389674463
2488.0,0.01086177578421088
2487.0,0.010817248744452446
2486.0,0.01077272626946324
2485.0,0.01077272626946324
2484.0,0.01077272626946324
2483.0,0.010817248744452446
2482.0,0.010817248744452446
2481.0,0.01086177578421088
2480.0,0.010906307389674463
2479.0,0.010906307389674463
2478.0,0.010906307389674463
2477.0,0.010906307389674463
2476.0,0.01086177578421088
2475.0,0.01086177578421088
2474.0,0.010817248744452446
2473.0,0.010817248744452446
2472.0,0.01077272626946324
2471.0,0.010728208358306901
2470.0,0.010683695010048622
2469.0,0.010639186223752484
2468.0,0.010639186223752484
2467.0,0.010639186223752484
2466.0,0.010594681998483901
2465.0,0.010550182333308289
2464.0,0.010505687227290839
2463.0,0.01046119667949763
2462.0,0.010416710688994968
2461.0,0.010416710688994968
2460.0,0.010416710688994968
2459.0,0.01037222925484893
2458.0,0.010327752376126709
2457.0,0.01023881228122181
2456.0,0.010194349063173958
2455.0,0.010194349063173958
2454.0,0.01023881228122181
2453.0,0.010283280051895272
2452.0,0.010327752376126709
2451.0,0.010327752376126709
2450.0,0.010283280051895272
2449.0,0.01023881228122181
2448.0,0.010194349063173958
2447.0,0.010149890396819572
2446.0,0.010105436281226954
2445.0,0.010060986715464404
2444.0,0.01001654169860089
2443.0,0.009972101229705377
2442.0,0.009972101229705377
2441.0,0.009972101229705377
2440.0,0.01001654169860089
2439.0,0.010060986715464404
2438.0,0.010105436281226954
2437.0,0.010105436281226954
2436.0,0.010060986715464404
2435.0,0.009972101229705377
2434.0,0.009927665307847056
2433.0,0.009838807101520963
2432.0,0.009838807101520963
2431.0,0.009838807101520963
2430.0,0.009883233932095559
2429.0,0.009927665307847056
2428.0,0.009883233932095559
2427.0,0.009838807101520963
2426.0,0.009794384815193347
2425.0,0.009794384815193347
2424.0,0.009883233932095559
2423.0,0.01001654169860089
2422.0,0.010105436281226954
2421.0,0.010194349063173958
2420.0,0.010283280051895272
2419.0,0.010283280051895272
2418.0,0.010327752376126709
2417.0,0.010327752376126709
2416.0,0.010327752376126709
2415.0,0.010194349063173958
2414.0,0.010149890396819572
2413.0,0.010105436281226954
2412.0,0.010105436281226954
2411.0,0.010105436281226954
2410.0,0.010105436281226954
2409.0,0.010060986715464404
2408.0,0.009972101229705377
2407.0,0.009927665307847056
2406.0,0.009883233932095559
2405.0,0.009883233932095559
2404.0,0.009883233932095559
2403.0,0.009883233932095559
2402.0,0.009883233932095559
2401.0,0.009838807101520963
2400.0,0.009838807101520963
2399.0,0.009794384815193347
2398.0,0.009794384815193347
2397.0,0.009838807101520963
2396.0,0.009883233932095559
2395.0,0.009883233932095559
2394.0,0.009883233932095559
2393.0,0.009838807101520963
2392.0,0.009838807101520963
2391.0,0.009883233932095559
2390.0,0.009972101229705377
2389.0,0.009972101229705377
2388.0,0.009972101229705377
2387.0,0.009883233932095559
2386.0,0.009794384815193347
2385.0,0.00974996707218323
2384.0,0.009705553871561357
2383.0,0.009705553871561357
2382.0,0.00974996707218323
2381.0,0.009794384815193347
2380.0,0.009883233932095559
2379.0,0.009927665307847056
2378.0,0.009972101229705377
2377.0,0.009927665307847056
2376.0,0.009794384815193347
2375.0,0.009705553871561357
2374.0,0.00974996707218323
2373.0,0.009972101229705377
2372.0,0.010105436281226954
2371.0,0.009883233932095559
2370.0,0.009217308196862062
2369.0,0.008419542825660153
2368.0,0.007755855953228474
2367.0,0.007490664932224611
2366.0,0.007932739972333236
2365.0,0.00908424549391551
2364.0,0.010594681998483901
2363.0,0.011797899741219142
2362.0,0.012289056869694281
2361.0,0.012199714248127602
2360.0,0.012065734767841452
2359.0,0.01215504982870197
2358.0,0.012423105273012602
2357.0,0.012512493866907004
2356.0,0.012110390002254778
2355.0,0.011262724711199823
2354.0,0.01046119667949763
2353.0,0.010283280051895272
2352.0,0.01046119667949763
2351.0,0.010594681998483901
2350.0,0.010283280051895272
2349.0,0.009483555971770974
2348.0,0.008640997362049818
2347.0,0.008109696063975047
2346.0,0.008286724286910463
2345.0,0.008906891951112605
2344.0,0.009350411681145587
2343.0,0.009350411681145587
2342.0,0.009261671492462709
2341.0,0.009527946474380489
2340.0,0.01001654169860089
2339.0,0.010594681998483901
2338.0,0.011084479487313281
2337.0,0.011485634166333858
2336.0,0.011797899741219142
2335.0,0.011887159731648111
2334.0,0.011887159731648111
2333.0,0.011887159731648111
2332.0,0.011931796607364653
2331.0,0.011887159731648111
2330.0,0.011619434777991433
2329.0,0.011262724711199823
2328.0,0.011084479487313281
2327.0,0.011084479487313281
2326.0,0.011262724711199823
2325.0,0.011485634166333858
2324.0,0.011708658092512314
2323.0,0.011753276624621556
2322.0,0.011619434777991433
2321.0,0.011485634166333858
2320.0,0.011396456654336085
2319.0,0.011307297450183107
2318.0,0.01117359295472431
2317.0,0.010995384301463185
2316.0,0.01077272626946324
2315.0,0.010550182333308289
2314.0,0.010416710688994968
2313.0,0.010416710688994968
2312.0,0.010416710688994968
2311.0,0.01046119667949763
2310.0,0.01046119667949763
2309.0,0.010416710688994968
2308.0,0.01037222925484893
2307.0,0.010283280051895272
2306.0,0.010149890396819572
2305.0,0.01001654169860089
2304.0,0.009883233932095559
2303.0,0.009794384815193347
2302.0,0.00974996707218323
2301.0,0.00974996707218323
2300.0,0.00974996707218323
2299.0,0.009794384815193347
2298.0,0.009838807101520963
2297.0,0.009838807101520963
2296.0,0.009838807101520963
2295.0,0.00974996707218323
2294.0,0.009705553871561357
2293.0,0.00966114521239847
2292.0,0.009705553871561357
2291.0,0.00974996707218323
2290.0,0.00974996707218323
2289.0,0.009705553871561357
2288.0,0.009616741093766423
2287.0,0.009572341514736404
2286.0,0.009527946474380489
2285.0,0.009572341514736404
2284.0,0.009572341514736404
2283.0,0.009616741093766423
2282.0,0.009616741093766423
2281.0,0.009616741093766423
2280.0,0.009527946474380489
2279.0,0.009439170005980158
2278.0,0.009350411681145587
2277.0,0.009350411681145587
2276.0,0.009350411681145587
2275.0,0.009350411681145587
2274.0,0.009350411681145587
2273.0,0.009261671492462709
2272.0,0.009217308196862062
2271.0,0.009172949432521227
2270.0,0.009217308196862062
2269.0,0.009217308196862062
2268.0,0.009172949432521227
2267.0,0.00908424549391551
2266.0,0.009039900317800775
2265.0,0.009039900317800775
2264.0,0.00908424549391551
2263.0,0.009128595198514056
2262.0,0.009128595198514056
2261.0,0.00908424549391551
2260.0,0.00908424549391551
2259.0,0.00908424549391551
2258.0,0.00908424549391551
2257.0,0.00908424549391551
2256.0,0.00908424549391551
2255.0,0.009039900317800775
2254.0,0.009039900317800775
2253.0,0.00908424549391551
2252.0,0.00908424549391551
2251.0,0.009128595198514056
2250.0,0.009172949432521227
2249.0,0.009217308196862062
2248.0,0.009217308196862062
2247.0,0.009217308196862062
2246.0,0.009217308196862062
2245.0,0.009217308196862062
2244.0,0.009261671492462709
2243.0,0.009261671492462709
2242.0,0.009217308196862062
2241.0,0.009172949432521227
2240.0,0.00908424549391551
2239.0,0.009039900317800775
2238.0,0.008995559669244813
2237.0,0.008995559669244813
2236.0,0.009039900317800775
2235.0,0.009039900317800775
2234.0,0.009039900317800775
2233.0,0.009039900317800775
2232.0,0.008995559669244813
2231.0,0.008951223547323472
2230.0,0.008951223547323472
2229.0,0.008906891951112605
2228.0,0.008951223547323472
2227.0,0.008951223547323472
2226.0,0.008995559669244813
2225.0,0.008995559669244813
2224.0,0.009039900317800775
2223.0,0.008995559669244813
2222.0,0.008951223547323472
2221.0,0.008906891951112605
2220.0,0.008906891951112605
2219.0,0.008951223547323472
2218.0,0.008951223547323472
2217.0,0.008951223547323472
2216.0,0.008951223547323472
2215.0,0.008906891951112605
2214.0,0.008951223547323472
2213.0,0.008995559669244813
2212.0,0.008995559669244813
2211.0,0.008951223547323472
2210.0,0.008862564879688284
2209.0,0.008773924307505121
2208.0,0.0087296108049002
2207.0,0.008773924307505121
2206.0,0.008862564879688284
2205.0,0.008951223547323472
2204.0,0.009039900317800775
2203.0,0.009039900317800775
2202.0,0.009039900317800775
2201.0,0.008951223547323472
2200.0,0.008862564879688284
2199.0,0.008773924307505121
2198.0,0.0087296108049002
2197.0,0.0087296108049002
2196.0,0.008773924307505121
2195.0,0.008818242332126802
2194.0,0.008862564879688284
2193.0,0.008951223547323472
2192.0,0.008951223547323472
2191.0,0.008951223547323472
2190.0,0.008951223547323472
2189.0,0.008906891951112605
2188.0,0.008906891951112605
2187.0,0.008906891951112605
2186.0,0.008862564879688284
2185.0,0.008862564879688284
2184.0,0.008862564879688284
2183.0,0.008906891951112605
2182.0,0.008951223547323472
2181.0,0.008951223547323472
2180.0,0.008951223547323472
2179.0,0.008906891951112605
2178.0,0.008862564879688284
2177.0,0.008818242332126802
2176.0,0.008818242332126802
2175.0,0.008862564879688284
2174.0,0.008862564879688284
2173.0,0.008906891951112605
2172.0,0.008862564879688284
2171.0,0.008818242332126802
2170.0,0.008773924307505121
2169.0,0.008773924307505121
2168.0,0.008818242332126802
2167.0,0.008818242332126802
2166.0,0.008818242332126802
2165.0,0.008818242332126802
2164.0,0.008818242332126802
2163.0,0.008862564879688284
2162.0,0.008862564879688284
2161.0,0.008862564879688284
2160.0,0.008862564879688284
2159.0,0.008862564879688284
2158.0,0.008862564879688284
2157.0,0.008906891951112605
2156.0,0.008906891951112605
2155.0,0.008862564879688284
2154.0,0.008818242332126802
2153.0,0.008818242332126802
2152.0,0.008862564879688284
2151.0,0.008906891951112605
2150.0,0.008951223547323472
2149.0,0.008951223547323472
2148.0,0.008951223547323472
2147.0,0.008906891951112605
2146.0,0.008906891951112605
2145.0,0.008862564879688284
2144.0,0.008862564879688284
2143.0,0.008818242332126802
2142.0,0.008773924307505121
2141.0,0.0087296108049002
2140.0,0.008685301823389224
2139.0,0.008685301823389224
2138.0,0.008685301823389224
2137.0,0.0087296108049002
2136.0,0.008773924307505121
2135.0,0.008773924307505121
2134.0,0.008773924307505121
2133.0,0.008773924307505121
2132.0,0.008773924307505121
2131.0,0.008818242332126802
2130.0,0.008818242332126802
2129.0,0.008818242332126802
2128.0,0.008818242332126802
2127.0,0.008773924307505121
2126.0,0.0087296108049002
2125.0,0.008685301823389224
2124.0,0.008640997362049818
2123.0,0.008596697419959609
2122.0,0.008596697419959609
2121.0,0.008552401996197112
2120.0,0.008596697419959609
2119.0,0.008596697419959609
2118.0,0.008685301823389224
2117.0,0.0087296108049002
2116.0,0.008773924307505121
2115.0,0.008773924307505121
2114.0,0.008685301823389224
2113.0,0.008596697419959609
2112.0,0.008552401996197112
2111.0,0.008552401996197112
2110.0,0.008640997362049818
2109.0,0.008685301823389224
2108.0,0.0087296108049002
2107.0,0.008640997362049818
2106.0,0.008552401996197112
2105.0,0.00850811108984062
2104.0,0.00850811108984062
2103.0,0.00850811108984062
2102.0,0.008552401996197112
2101.0,0.008596697419959609
2100.0,0.008640997362049818
2099.0,0.008596697419959609
2098.0,0.008596697419959609
2097.0,0.008552401996197112
2096.0,0.00850811108984062
2095.0,0.008463824699968647
2094.0,0.008463824699968647
2093.0,0.008463824699968647
2092.0,0.008463824699968647
2091.0,0.00850811108984062
2090.0,0.008552401996197112
2089.0,0.008552401996197112
2088.0,0.008552401996197112
2087.0,0.00850811108984062
2086.0,0.00850811108984062
2085.0,0.008463824699968647
2084.0,0.008463824699968647
2083.0,0.008463824699968647
2082.0,0.008463824699968647
2081.0,0.008463824699968647
2080.0,0.008419542825660153
2079.0,0.008375265465994541
2078.0,0.008375265465994541
2077.0,0.008375265465994541
2076.0,0.008419542825660153
2075.0,0.008419542825660153
2074.0,0.008419542825660153
2073.0,0.008463824699968647
2072.0,0.008463824699968647
2071.0,0.008463824699968647
2070.0,0.008419542825660153
2069.0,0.008419542825660153
2068.0,0.008419542825660153
2067.0,0.008463824699968647
2066.0,0.008463824699968647
2065.0,0.008463824699968647
2064.0,0.008463824699968647
2063.0,0.00850811108984062
2062.0,0.008596697419959609
2061.0,0.008640997362049818
2060.0,0.008640997362049818
2059.0,0.008596697419959609
2058.0,0.008552401996197112
2057.0,0.00850811108984062
2056.0,0.008463824699968647
2055.0,0.008463824699968647
2054.0,0.008463824699968647
2053.0,0.008463824699968647
2052.0,0.008463824699968647
2051.0,0.008419542825660153
2050.0,0.008463824699968647
2049.0,0.008463824699968647
2048.0,0.00850811108984062
2047.0,0.00850811108984062
2046.0,0.00850811108984062
2045.0,0.00850811108984062
2044.0,0.00850811108984062
2043.0,0.008552401996197112
2042.0,0.008552401996197112
2041.0,0.008596697419959609
2040.0,0.008640997362049818
2039.0,0.008685301823389224
2038.0,0.0087296108049002
2037.0,0.0087296108049002
2036.0,0.0087296108049002
2035.0,0.008685301823389224
2034.0,0.008640997362049818
2033.0,0.008640997362049818
2032.0,0.008640997362049818
2031.0,0.008640997362049818
2030.0,0.008685301823389224
2029.0,0.0087296108049002
2028.0,0.0087296108049002
2027.0,0.008773924307505121
2026.0,0.008773924307505121
2025.0,0.008818242332126802
2024.0,0.008818242332126802
2023.0,0.008818242332126802
2022.0,0.008818242332126802
2021.0,0.008818242332126802
2020.0,0.008862564879688284
2019.0,0.008906891951112605
2018.0,0.008906891951112605
2017.0,0.008862564879688284
2016.0,0.008818242332126802
2015.0,0.008773924307505121
2014.0,0.0087296108049002
2013.0,0.008685301823389224
2012.0,0.008640997362049818
2011.0,0.008596697419959609
2010.0,0.008552401996197112
2009.0,0.00850811108984062
2008.0,0.008463824699968647
2007.0,0.008375265465994541
2006.0,0.008375265465994541
2005.0,0.008375265465994541
2004.0,0.008375265465994541
2003.0,0.008419542825660153
2002.0,0.008463824699968647
2001.0,0.008463824699968647
2000.0,0.008419542825660153
1999.0,0.008419542825660153
1998.0,0.008419542825660153
1997.0,0.008419542825660153
1996.0,0.008419542825660153
1995.0,0.008419542825660153
1994.0,0.008375265465994541
1993.0,0.008375265465994541
1992.0,0.008330992620051436
1991.0,0.008330992620051436
1990.0,0.008330992620051436
1989.0,0.008286724286910463
1988.0,0.008286724286910463
1987.0,0.008286724286910463
1986.0,0.008330992620051436
1985.0,0.008330992620051436
1984.0,0.008330992620051436
1983.0,0.008330992620051436
1982.0,0.008286724286910463
1981.0,0.008286724286910463
1980.0,0.008286724286910463
1979.0,0.008286724286910463
1978.0,0.008286724286910463
1977.0,0.008242460465651913
1976.0,0.008242460465651913
1975.0,0.008242460465651913
1974.0,0.008286724286910463
1973.0,0.008242460465651913
1972.0,0.008242460465651913
1971.0,0.008242460465651913
1970.0,0.008198201155356077
1969.0,0.008242460465651913
1968.0,0.008242460465651913
1967.0,0.008242460465651913
1966.0,0.008242460465651913
1965.0,0.008242460465651913
1964.0,0.008198201155356077
1963.0,0.008198201155356077
1962.0,0.008153946355103248
1961.0,0.008153946355103248
1960.0,0.008153946355103248
1959.0,0.008153946355103248
1958.0,0.008198201155356077
1957.0,0.008198201155356077
1956.0,0.008198201155356077
1955.0,0.008153946355103248
1954.0,0.008109696063975047
1953.0,0.008109696063975047
1952.0,0.008065450281052211
1951.0,0.008065450281052211
1950.0,0.008065450281052211
1949.0,0.008109696063975047
1948.0,0.008109696063975047
1947.0,0.008109696063975047
1946.0,0.008109696063975047
1945.0,0.008153946355103248
1944.0,0.008198201155356077
1943.0,0.008242460465651913
1942.0,0.008242460465651913
1941.0,0.008242460465651913
1940.0,0.008242460465651913
1939.0,0.008198201155356077
1938.0,0.008153946355103248
1937.0,0.008065450281052211
1936.0,0.007976972236149349
1935.0,0.007932739972333236
1934.0,0.007932739972333236
1933.0,0.007976972236149349
1932.0,0.007976972236149349
1931.0,0.008021209005416363
1930.0,0.008021209005416363
1929.0,0.008109696063975047
1928.0,0.008109696063975047
1927.0,0.008065450281052211
1926.0,0.008065450281052211
1925.0,0.008065450281052211
1924.0,0.008109696063975047
1923.0,0.008153946355103248
1922.0,0.008153946355103248
1921.0,0.008109696063975047
1920.0,0.008065450281052211
1919.0,0.008021209005416363
1918.0,0.008021209005416363
1917.0,0.008109696063975047
1916.0,0.008198201155356077
1915.0,0.008242460465651913
1914.0,0.008330992620051436
1913.0,0.008330992620051436
1912.0,0.008375265465994541
1911.0,0.008375265465994541
1910.0,0.008330992620051436
1909.0,0.008330992620051436
1908.0,0.008330992620051436
1907.0,0.008286724286910463
1906.0,0.008198201155356077
1905.0,0.008198201155356077
1904.0,0.008242460465651913
1903.0,0.008286724286910463
1902.0,0.008375265465994541
1901.0,0.008463824699968647
1900.0,0.00850811108984062
1899.0,0.00850811108984062
1898.0,0.00850811108984062
1897.0,0.008552401996197112
1896.0,0.008552401996197112
1895.0,0.008552401996197112
1894.0,0.00850811108984062
1893.0,0.008463824699968647
1892.0,0.008419542825660153
1891.0,0.008419542825660153
1890.0,0.008419542825660153
1889.0,0.008375265465994541
1888.0,0.008286724286910463
1887.0,0.008198201155356077
1886.0,0.008153946355103248
1885.0,0.008109696063975047
1884.0,0.008021209005416363
1883.0,0.007888512213050314
1882.0,0.007844288957383316
1881.0,0.007844288957383316
1880.0,0.007844288957383316
1879.0,0.007888512213050314
1878.0,0.007888512213050314
1877.0,0.007932739972333236
1876.0,0.007888512213050314
1875.0,0.007844288957383316
1874.0,0.007800070204414977
1873.0,0.007800070204414977
1872.0,0.007800070204414977
1871.0,0.007711646202907652
1870.0,0.00762324020119709
1869.0,0.00762324020119709
1868.0,0.007711646202907652
1867.0,0.007755855953228474
1866.0,0.007844288957383316
1865.0,0.007844288957383316
1864.0,0.007844288957383316
1863.0,0.007844288957383316
1862.0,0.007800070204414977
1861.0,0.007755855953228474
1860.0,0.007711646202907652
1859.0,0.00762324020119709
1858.0,0.00762324020119709
1857.0,0.00762324020119709
1856.0,0.007667440952535687
1855.0,0.007711646202907652
1854.0,0.007755855953228474
1853.0,0.007755855953228474
1852.0,0.007755855953228474
1851.0,0.007755855953228474
1850.0,0.007755855953228474
1849.0,0.007755855953228474
1848.0,0.007800070204414977
1847.0,0.007844288957383316
1846.0,0.007800070204414977
1845.0,0.007711646202907652
1844.0,0.007667440952535687
1843.0,0.00762324020119709
1842.0,0.00762324020119709
1841.0,0.007667440952535687
1840.0,0.007711646202907652
1839.0,0.007667440952535687
1838.0,0.007667440952535687
1837.0,0.007667440952535687
1836.0,0.007711646202907652
1835.0,0.007711646202907652
1834.0,0.007711646202907652
1833.0,0.007711646202907652
1832.0,0.007711646202907652
1831.0,0.007667440952535687
1830.0,0.007667440952535687
1829.0,0.00762324020119709
1828.0,0.00762324020119709
1827.0,0.0075790439479759275
1826.0,0.0075790439479759275
1825.0,0.00762324020119709
1824.0,0.007667440952535687
1823.0,0.007667440952535687
1822.0,0.00762324020119709
1821.0,0.007534852191956709
1820.0,0.0074464821678643656
1819.0,0.007358130121602358
1818.0,0.007358130121602358
1817.0,0.007358130121602358
1816.0,0.007402303897961815
1815.0,0.007402303897961815
1814.0,0.007358130121602358
1813.0,0.007313960837872058
1812.0,0.007313960837872058
1811.0,0.007313960837872058
1810.0,0.007358130121602358
1809.0,0.0074464821678643656
1808.0,0.007490664932224611
1807.0,0.007534852191956709
1806.0,0.007490664932224611
1805.0,0.007490664932224611
1804.0,0.0074464821678643656
1803.0,0.0074464821678643656
1802.0,0.007490664932224611
1801.0,0.0075790439479759275
1800.0,0.00762324020119709
1799.0,0.0075790439479759275
1798.0,0.007490664932224611
1797.0,0.0074464821678643656
1796.0,0.007490664932224611
1795.0,0.007490664932224611
1794.0,0.007534852191956709
1793.0,0.007534852191956709
1792.0,0.007490664932224611
1791.0,0.0074464821678643656
1790.0,0.007402303897961815
1789.0,0.007402303897961815
1788.0,0.0074464821678643656
1787.0,0.007490664932224611
1786.0,0.007534852191956709
1785.0,0.007534852191956709
1784.0,0.007534852191956709
1783.0,0.007534852191956709
1782.0,0.007534852191956709
1781.0,0.0075790439479759275
1780.0,0.00762324020119709
1779.0,0.0075790439479759275
1778.0,0.007534852191956709
1777.0,0.007534852191956709
1776.0,0.0075790439479759275
1775.0,0.007667440952535687
1774.0,0.007711646202907652
1773.0,0.007667440952535687
1772.0,0.007667440952535687
1771.0,0.007667440952535687
1770.0,0.00762324020119709
1769.0,0.0075790439479759275
1768.0,0.007534852191956709
1767.0,0.007490664932224611
1766.0,0.007402303897961815
1765.0,0.007402303897961815
1764.0,0.007402303897961815
1763.0,0.007402303897961815
1762.0,0.007490664932224611
1761.0,0.00762324020119709
1760.0,0.007711646202907652
1759.0,0.007755855953228474
1758.0,0.007800070204414977
1757.0,0.007888512213050314
1756.0,0.008021209005416363
1755.0,0.008153946355103248
1754.0,0.008242460465651913
1753.0,0.008330992620051436
1752.0,0.008419542825660153
1751.0,0.008640997362049818
1750.0,0.008906891951112605
1749.0,0.009128595198514056
1748.0,0.009217308196862062
1747.0,0.009217308196862062
1746.0,0.009217308196862062
1745.0,0.009217308196862062
1744.0,0.009261671492462709
1743.0,0.009261671492462709
1742.0,0.009261671492462709
1741.0,0.009217308196862062
1740.0,0.009217308196862062
1739.0,0.009172949432521227
1738.0,0.009128595198514056
1737.0,0.009039900317800775
1736.0,0.008862564879688284
1735.0,0.008552401996197112
1734.0,0.008375265465994541
1733.0,0.008330992620051436
1732.0,0.008330992620051436
1731.0,0.008375265465994541
1730.0,0.008375265465994541
1729.0,0.008375265465994541
1728.0,0.008375265465994541
1727.0,0.008419542825660153
1726.0,0.008419542825660153
1725.0,0.008463824699968647
1724.0,0.008463824699968647
1723.0,0.008419542825660153
1722.0,0.008330992620051436
1721.0,0.008286724286910463
1720.0,0.008286724286910463
1719.0,0.008242460465651913
1718.0,0.008330992620051436
1717.0,0.008552401996197112
1716.0,0.008685301823389224
1715.0,0.0087296108049002
1714.0,0.008685301823389224
1713.0,0.008640997362049818
1712.0,0.008596697419959609
1711.0,0.008552401996197112
1710.0,0.008463824699968647
1709.0,0.008375265465994541
1708.0,0.008330992620051436
1707.0,0.008286724286910463
1706.0,0.008242460465651913
1705.0,0.008242460465651913
1704.0,0.008198201155356077
1703.0,0.008198201155356077
1702.0,0.008109696063975047
1701.0,0.007976972236149349
1700.0,0.008021209005416363
1699.0,0.008198201155356077
1698.0,0.008419542825660153
1697.0,0.008640997362049818
1696.0,0.008640997362049818
1695.0,0.008463824699968647
1694.0,0.008375265465994541
1693.0,0.008375265465994541
1692.0,0.008419542825660153
1691.0,0.008419542825660153
1690.0,0.008419542825660153
1689.0,0.00850811108984062
1688.0,0.008596697419959609
1687.0,0.008640997362049818
1686.0,0.008596697419959609
1685.0,0.008596697419959609
1684.0,0.008818242332126802
1683.0,0.008906891951112605
1682.0,0.008906891951112605
1681.0,0.008951223547323472
1680.0,0.008906891951112605
1679.0,0.008818242332126802
1678.0,0.0087296108049002
1677.0,0.008640997362049818
1676.0,0.008596697419959609
1675.0,0.008596697419959609
1674.0,0.008596697419959609
1673.0,0.008640997362049818
1672.0,0.008685301823389224
1671.0,0.008773924307505121
1670.0,0.008773924307505121
1669.0,0.008773924307505121
1668.0,0.0087296108049002
1667.0,0.008685301823389224
1666.0,0.008685301823389224
1665.0,0.0087296108049002
1664.0,0.008773924307505121
1663.0,0.008818242332126802
1662.0,0.008862564879688284
1661.0,0.008906891951112605
1660.0,0.008906891951112605
1659.0,0.008862564879688284
1658.0,0.008773924307505121
1657.0,0.008685301823389224
1656.0,0.008685301823389224
1655.0,0.008552401996197112
1654.0,0.008375265465994541
1653.0,0.008463824699968647
1652.0,0.008463824699968647
1651.0,0.008463824699968647
1650.0,0.00850811108984062
1649.0,0.008596697419959609
1648.0,0.0087296108049002
1647.0,0.008906891951112605
1646.0,0.008995559669244813
1645.0,0.008906891951112605
1644.0,0.0087296108049002
1643.0,0.008640997362049818
1642.0,0.008552401996197112
1641.0,0.008552401996197112
1640.0,0.00850811108984062
1639.0,0.00850811108984062
1638.0,0.008552401996197112
1637.0,0.008640997362049818
1636.0,0.008773924307505121
1635.0,0.008685301823389224
1634.0,0.00850811108984062
1633.0,0.008419542825660153
1632.0,0.008419542825660153
1631.0,0.008463824699968647
1630.0,0.008463824699968647
1629.0,0.00850811108984062
1628.0,0.008463824699968647
1627.0,0.008375265465994541
1626.0,0.008286724286910463
1625.0,0.008286724286910463
1624.0,0.008330992620051436
1623.0,0.008375265465994541
1622.0,0.008375265465994541
1621.0,0.008286724286910463
1620.0,0.008242460465651913
1619.0,0.008198201155356077
1618.0,0.008153946355103248
1617.0,0.008153946355103248
1616.0,0.008242460465651913
1615.0,0.008242460465651913
1614.0,0.008286724286910463
1613.0,0.008286724286910463
1612.0,0.008198201155356077
1611.0,0.008065450281052211
1610.0,0.007976972236149349
1609.0,0.008021209005416363
1608.0,0.008021209005416363
1607.0,0.007976972236149349
1606.0,0.007976972236149349
1605.0,0.007976972236149349
1604.0,0.008021209005416363
1603.0,0.008021209005416363
1602.0,0.007932739972333236
1601.0,0.007888512213050314
1600.0,0.007888512213050314
1599.0,0.007844288957383316
1598.0,0.007755855953228474
1597.0,0.007711646202907652
1596.0,0.007755855953228474
1595.0,0.007755855953228474
1594.0,0.007755855953228474
1593.0,0.007755855953228474
1592.0,0.007755855953228474
1591.0,0.007711646202907652
1590.0,0.007711646202907652
1589.0,0.007667440952535687
1588.0,0.00762324020119709
1587.0,0.0075790439479759275
1586.0,0.007490664932224611
1585.0,0.0074464821678643656
1584.0,0.007490664932224611
1583.0,0.007490664932224611
1582.0,0.007534852191956709
1581.0,0.007534852191956709
1580.0,0.007490664932224611
1579.0,0.007402303897961815
1578.0,0.007269796045857202
1577.0,0.007181479933320523
1576.0,0.007137328610972382
1575.0,0.007137328610972382
1574.0,0.007181479933320523
1573.0,0.007269796045857202
1572.0,0.007358130121602358
1571.0,0.007358130121602358
1570.0,0.007313960837872058
1569.0,0.007313960837872058
1568.0,0.007313960837872058
1567.0,0.007313960837872058
1566.0,0.007313960837872058
1565.0,0.007402303897961815
1564.0,0.0074464821678643656
1563.0,0.007534852191956709
1562.0,0.0075790439479759275
1561.0,0.0075790439479759275
1560.0,0.0075790439479759275
1559.0,0.0075790439479759275
1558.0,0.007402303897961815
1557.0,0.007225635744644521
1556.0,0.007313960837872058
1555.0,0.007402303897961815
1554.0,0.0074464821678643656
1553.0,0.007490664932224611
1552.0,0.0075790439479759275
1551.0,0.00762324020119709
1550.0,0.0075790439479759275
1549.0,0.007534852191956709
1548.0,0.0075790439479759275
1547.0,0.007534852191956709
1546.0,0.007534852191956709
1545.0,0.0075790439479759275
1544.0,0.007667440952535687
1543.0,0.007711646202907652
1542.0,0.00762324020119709
1541.0,0.007755855953228474
1540.0,0.007888512213050314
1539.0,0.007755855953228474
1538.0,0.007490664932224611
1537.0,0.0074464821678643656
1536.0,0.007490664932224611
1535.0,0.0074464821678643656
1534.0,0.007402303897961815
1533.0,0.007358130121602358
1532.0,0.007269796045857202
1531.0,0.007137328610972382
1530.0,0.007004901568658406
1529.0,0.00696076819309055
1528.0,0.006916639301937977
1527.0,0.006872514894289861
1526.0,0.006872514894289861
1525.0,0.00696076819309055
1524.0,0.007049039429553483
1523.0,0.007004901568658406
1522.0,0.006828394969235152
1521.0,0.006651960076740071
1520.0,0.006607862550997545
1519.0,0.00656376950238835
1518.0,0.006519680930003435
1517.0,0.006607862550997545
1516.0,0.006607862550997545
1515.0,0.006519680930003435
1514.0,0.006343371384537999
1513.0,0.006343371384537999
1512.0,0.006387442061109638
1511.0,0.006431517210272464
1510.0,0.006519680930003435
1509.0,0.006740168563263094
1508.0,0.007004901568658406
1507.0,0.007093181776687496
1506.0,0.006872514894289861
1505.0,0.006784279525863024
1504.0,0.006784279525863024
1503.0,0.006784279525863024
1502.0,0.006696062080525422
1501.0,0.006696062080525422
1500.0,0.006696062080525422
1499.0,0.006607862550997545
1498.0,0.006475596832934416
1497.0,0.006475596832934416
1496.0,0.006519680930003435
1495.0,0.006431517210272464
1494.0,0.006387442061109638
1493.0,0.006475596832934416
1492.0,0.00656376950238835
1491.0,0.006475596832934416
1490.0,0.006387442061109638
1489.0,0.006607862550997545
1488.0,0.006872514894289861
1487.0,0.006872514894289861
1486.0,0.006828394969235152
1485.0,0.00696076819309055
1484.0,0.007181479933320523
1483.0,0.007402303897961815
1482.0,0.007800070204414977
1481.0,0.0087296108049002
1480.0,0.010105436281226954
1479.0,0.012110390002254778
1478.0,0.016193358021584725
1477.0,0.024200690320592466
1476.0,0.03682628362474838
1475.0,0.0531548860393769
1474.0,0.07114346641808922
1473.0,0.08539243222891946
1472.0,0.08862929288386212
1471.0,0.0833881548906541
1470.0,0.07701518429111709
1469.0,0.07221915065262552
1468.0,0.06915280831750303
1467.0,0.06844043290919477
1466.0,0.07242434530888953
1465.0,0.0823369756726251
1464.0,0.09361107884716913
1463.0,0.09919606518963042
1462.0,0.09685572959046151
1461.0,0.08830984124613894
1460.0,0.07613452481449845
1459.0,0.0630843190547461
1458.0,0.05197846685889629
1457.0,0.04469717723830824
1456.0,0.04062466342415694
1455.0,0.03800971255993524
1454.0,0.035693217696063595
1453.0,0.03334211579824231
1452.0,0.03105031901865729
1451.0,0.029188389127482228
1450.0,0.027843464140506313
1449.0,0.026733563891471412
1448.0,0.025764722556973707
1447.0,0.025028005701930978
1446.0,0.024476287039668643
1445.0,0.023925268380126097
1444.0,0.02342078135989012
1443.0,0.02296266477531872
1442.0,0.02259651912656535
1441.0,0.0221849739168134
1440.0,0.021728158389364705
1439.0,0.021271822861508305
1438.0,0.02081596632558158
1437.0,0.020406104151069693
1436.0,0.02004210665933459
1435.0,0.019723858922159776
1434.0,0.019315025636685412
1433.0,0.018770512579999288
1432.0,0.018136109008649592
1431.0,0.017502630802287644
1430.0,0.016960383953898095
1429.0,0.01632861713980338
1428.0,0.015697768020096703
1427.0,0.015157768594724175
1426.0,0.014753209197138295
1425.0,0.014304140310157809
1424.0,0.013900374944870508
1423.0,0.013586594534531482
1422.0,0.013317820220494436
1421.0,0.012914970375878188
1420.0,0.012557195064198723
1419.0,0.012423105273012602
1418.0,0.012423105273012602
1417.0,0.012289056869694281
1416.0,0.012110390002254778
1415.0,0.011931796607364653
1414.0,0.011753276624621556
1413.0,0.011530229790124524
1412.0,0.011351874764248926
1411.0,0.011262724711199823
1410.0,0.01117359295472431
1409.0,0.011039929609661936
1408.0,0.010906307389674463
1407.0,0.010817248744452446
1406.0,0.01077272626946324
1405.0,0.010728208358306901
1404.0,0.010683695010048622
1403.0,0.010594681998483901
1402.0,0.010505687227290839
1401.0,0.01037222925484893
1400.0,0.010283280051895272
1399.0,0.010327752376126709
1398.0,0.010327752376126709
1397.0,0.010283280051895272
1396.0,0.010149890396819572
1395.0,0.010105436281226954
1394.0,0.010149890396819572
1393.0,0.010149890396819572
1392.0,0.010149890396819572
1391.0,0.010194349063173958
1390.0,0.010194349063173958
1389.0,0.010149890396819572
1388.0,0.010149890396819572
1387.0,0.01023881228122181
1386.0,0.01037222925484893
1385.0,0.01046119667949763
1384.0,0.010594681998483901
1383.0,0.01086177578421088
1382.0,0.01117359295472431
1381.0,0.011530229790124524
1380.0,0.011887159731648111
1379.0,0.012199714248127602
1378.0,0.012423105273012602
1377.0,0.012423105273012602
1376.0,0.012423105273012602
1375.0,0.012467797270160563
1374.0,0.01264661126420652
1373.0,0.012825498912458322
1372.0,0.013004460275618523
1371.0,0.01318349541446362
1370.0,0.013452186585275916
1369.0,0.013586594534531482
1368.0,0.013586594534531482
1367.0,0.013452186585275916
1366.0,0.013273040668781544
1365.0,0.012959713020733288
1364.0,0.012691326268817527
1363.0,0.012512493866907004
1362.0,0.012378417874516323
1361.0,0.012244383261476699
1360.0,0.012065734767841452
1359.0,0.011931796607364653
1358.0,0.011842527443247208
1357.0,0.011797899741219142
1356.0,0.011753276624621556
1355.0,0.011797899741219142
1354.0,0.011842527443247208
1353.0,0.011887159731648111
1352.0,0.011842527443247208
1351.0,0.011797899741219142
1350.0,0.011753276624621556
1349.0,0.011574829993696856
1348.0,0.011396456654336085
1347.0,0.011262724711199823
1346.0,0.011129033935354915
1345.0,0.010995384301463185
1344.0,0.01086177578421088
1343.0,0.010683695010048622
1342.0,0.010550182333308289
1341.0,0.010416710688994968
1340.0,0.010327752376126709
1339.0,0.01023881228122181
1338.0,0.010194349063173958
1337.0,0.010105436281226954
1336.0,0.009972101229705377
1335.0,0.009838807101520963
1334.0,0.00974996707218323
1333.0,0.00966114521239847
1332.0,0.00966114521239847
1331.0,0.009705553871561357
1330.0,0.00974996707218323
1329.0,0.009794384815193347
1328.0,0.00974996707218323
1327.0,0.009794384815193347
1326.0,0.009838807101520963
1325.0,0.009883233932095559
1324.0,0.009972101229705377
1323.0,0.010060986715464404
1322.0,0.010149890396819572
1321.0,0.01023881228122181
1320.0,0.010327752376126709
1319.0,0.010416710688994968
1318.0,0.010594681998483901
1317.0,0.010683695010048622
1316.0,0.01077272626946324
1315.0,0.01086177578421088
1314.0,0.010995384301463185
1313.0,0.011084479487313281
1312.0,0.01117359295472431
1311.0,0.011218156546359825
1310.0,0.011262724711199823
1309.0,0.011262724711199823
1308.0,0.01117359295472431
1307.0,0.011129033935354915
1306.0,0.01117359295472431
1305.0,0.011218156546359825
1304.0,0.011307297450183107
1303.0,0.011351874764248926
1302.0,0.011351874764248926
1301.0,0.011307297450183107
1300.0,0.01117359295472431
1299.0,0.011084479487313281
1298.0,0.010995384301463185
1297.0,0.01086177578421088
1296.0,0.01077272626946324
1295.0,0.010728208358306901
1294.0,0.010639186223752484
1293.0,0.010505687227290839
1292.0,0.010416710688994968
1291.0,0.01037222925484893
1290.0,0.010327752376126709
1289.0,0.01023881228122181
1288.0,0.010149890396819572
1287.0,0.010105436281226954
1286.0,0.010060986715464404
1285.0,0.01001654169860089
1284.0,0.009972101229705377
1283.0,0.009972101229705377
1282.0,0.009972101229705377
1281.0,0.009972101229705377
1280.0,0.009927665307847056
1279.0,0.009927665307847056
1278.0,0.009883233932095559
1277.0,0.009927665307847056
1276.0,0.009927665307847056
1275.0,0.01001654169860089
1274.0,0.010060986715464404
1273.0,0.01001654169860089
1272.0,0.009972101229705377
1271.0,0.009927665307847056
1270.0,0.009972101229705377
1269.0,0.01001654169860089
1268.0,0.010060986715464404
1267.0,0.010060986715464404
1266.0,0.010105436281226954
1265.0,0.010105436281226954
1264.0,0.010149890396819572
1263.0,0.010194349063173958
1262.0,0.01023881228122181
1261.0,0.01023881228122181
1260.0,0.010194349063173958
1259.0,0.010149890396819572
1258.0,0.010060986715464404
1257.0,0.009972101229705377
1256.0,0.009838807101520963
1255.0,0.009794384815193347
1254.0,0.00974996707218323
1253.0,0.009705553871561357
1252.0,0.00966114521239847
1251.0,0.00966114521239847
1250.0,0.009705553871561357
1249.0,0.009705553871561357
1248.0,0.009705553871561357
1247.0,0.009705553871561357
1246.0,0.009705553871561357
1245.0,0.009705553871561357
1244.0,0.00966114521239847
1243.0,0.009616741093766423
1242.0,0.009572341514736404
1241.0,0.009527946474380489
1240.0,0.009483555971770974
1239.0,0.009439170005980158
1238.0,0.009483555971770974
1237.0,0.009483555971770974
1236.0,0.009439170005980158
1235.0,0.009439170005980158
1234.0,0.009439170005980158
1233.0,0.00939478857608056
1232.0,0.00939478857608056
1231.0,0.009483555971770974
1230.0,0.009572341514736404
1229.0,0.009572341514736404
1228.0,0.009527946474380489
1227.0,0.009439170005980158
1226.0,0.009439170005980158
1225.0,0.00939478857608056
1224.0,0.00939478857608056
1223.0,0.00939478857608056
1222.0,0.00939478857608056
1221.0,0.009350411681145587
1220.0,0.00939478857608056
1219.0,0.009439170005980158
1218.0,0.009527946474380489
1217.0,0.009572341514736404
1216.0,0.009572341514736404
1215.0,0.009527946474380489
1214.0,0.009483555971770974
1213.0,0.009439170005980158
1212.0,0.00939478857608056
1211.0,0.009350411681145587
1210.0,0.009306039320248427
1209.0,0.009306039320248427
1208.0,0.009261671492462709
1207.0,0.009261671492462709
1206.0,0.009306039320248427
1205.0,0.009350411681145587
1204.0,0.009350411681145587
1203.0,0.00939478857608056
1202.0,0.00939478857608056
1201.0,0.009350411681145587
1200.0,0.009217308196862062
1199.0,0.00908424549391551
1198.0,0.009039900317800775
1197.0,0.008995559669244813
1196.0,0.008951223547323472
1195.0,0.008995559669244813
1194.0,0.009039900317800775
1193.0,0.009039900317800775
1192.0,0.009039900317800775
1191.0,0.00908424549391551
1190.0,0.00908424549391551
1189.0,0.00908424549391551
1188.0,0.009039900317800775
1187.0,0.008995559669244813
1186.0,0.008995559669244813
1185.0,0.008995559669244813
1184.0,0.009039900317800775
1183.0,0.009128595198514056
1182.0,0.009172949432521227
1181.0,0.009261671492462709
1180.0,0.009350411681145587
1179.0,0.009483555971770974
1178.0,0.009616741093766423
1177.0,0.00974996707218323
1176.0,0.009838807101520963
1175.0,0.009927665307847056
1174.0,0.01001654169860089
1173.0,0.010105436281226954
1172.0,0.010194349063173958
1171.0,0.010327752376126709
1170.0,0.010416710688994968
1169.0,0.010505687227290839
1168.0,0.010505687227290839
1167.0,0.01046119667949763
1166.0,0.01046119667949763
1165.0,0.01046119667949763
1164.0,0.010416710688994968
1163.0,0.01037222925484893
1162.0,0.01037222925484893
1161.0,0.010327752376126709
1160.0,0.010327752376126709
1159.0,0.010327752376126709
1158.0,0.01023881228122181
1157.0,0.010149890396819572
1156.0,0.010105436281226954
1155.0,0.010060986715464404
1154.0,0.010060986715464404
1153.0,0.010060986715464404
1152.0,0.010060986715464404
1151.0,0.010060986715464404
1150.0,0.01001654169860089
1149.0,0.01001654169860089
1148.0,0.01001654169860089
1147.0,0.009972101229705377
1146.0,0.009972101229705377
1145.0,0.009927665307847056
1144.0,0.009883233932095559
1143.0,0.009838807101520963
1142.0,0.009838807101520963
1141.0,0.00974996707218323
1140.0,0.009572341514736404
1139.0,0.009439170005980158
1138.0,0.009350411681145587
1137.0,0.009306039320248427
1136.0,0.009261671492462709
1135.0,0.009172949432521227
1134.0,0.009128595198514056
1133.0,0.00908424549391551
1132.0,0.00908424549391551
1131.0,0.009128595198514056
1130.0,0.00908424549391551
1129.0,0.008995559669244813
1128.0,0.008862564879688284
1127.0,0.008773924307505121
1126.0,0.008818242332126802
1125.0,0.008862564879688284
1124.0,0.008995559669244813
1123.0,0.009128595198514056
1122.0,0.009217308196862062
1121.0,0.009261671492462709
1120.0,0.009261671492462709
1119.0,0.009217308196862062
1118.0,0.009261671492462709
1117.0,0.009350411681145587
1116.0,0.00939478857608056
1115.0,0.00939478857608056
1114.0,0.00939478857608056
1113.0,0.009439170005980158
1112.0,0.009483555971770974
1111.0,0.009572341514736404
1110.0,0.009616741093766423
1109.0,0.009616741093766423
1108.0,0.009616741093766423
1107.0,0.00966114521239847
1106.0,0.00974996707218323
1105.0,0.009794384815193347
1104.0,0.009883233932095559
1103.0,0.009927665307847056
1102.0,0.009972101229705377
1101.0,0.009972101229705377
1100.0,0.009927665307847056
1099.0,0.009883233932095559
1098.0,0.009838807101520963
1097.0,0.009838807101520963
1096.0,0.009794384815193347
1095.0,0.009794384815193347
1094.0,0.009838807101520963
1093.0,0.009838807101520963
1092.0,0.009794384815193347
1091.0,0.009705553871561357
1090.0,0.00966114521239847
1089.0,0.00966114521239847
1088.0,0.009705553871561357
1087.0,0.00974996707218323
1086.0,0.00974996707218323
1085.0,0.009705553871561357
1084.0,0.009616741093766423
1083.0,0.009572341514736404
1082.0,0.009527946474380489
1081.0,0.009483555971770974
1080.0,0.00939478857608056
1079.0,0.009306039320248427
1078.0,0.009217308196862062
1077.0,0.00908424549391551
1076.0,0.008995559669244813
1075.0,0.008951223547323472
1074.0,0.008906891951112605
1073.0,0.008818242332126802
1072.0,0.008640997362049818
1071.0,0.008463824699968647
1070.0,0.008330992620051436
1069.0,0.008286724286910463
1068.0,0.008242460465651913
1067.0,0.008286724286910463
1066.0,0.008419542825660153
1065.0,0.00850811108984062
1064.0,0.008552401996197112
1063.0,0.00850811108984062
1062.0,0.008375265465994541
1061.0,0.008286724286910463
1060.0,0.008198201155356077
1059.0,0.008153946355103248
1058.0,0.008153946355103248
1057.0,0.008153946355103248
1056.0,0.008153946355103248
1055.0,0.008198201155356077
1054.0,0.008198201155356077
1053.0,0.008153946355103248
1052.0,0.008109696063975047
1051.0,0.008109696063975047
1050.0,0.008109696063975047
1049.0,0.008153946355103248
1048.0,0.008198201155356077
1047.0,0.008198201155356077
1046.0,0.008198201155356077
1045.0,0.008109696063975047
1044.0,0.008021209005416363
1043.0,0.007888512213050314
1042.0,0.007755855953228474
1041.0,0.00762324020119709
1040.0,0.007534852191956709
1039.0,0.007490664932224611
1038.0,0.007534852191956709
1037.0,0.007534852191956709
1036.0,0.007490664932224611
1035.0,0.0074464821678643656
1034.0,0.007313960837872058
1033.0,0.007225635744644521
1032.0,0.007181479933320523
1031.0,0.007137328610972382
1030.0,0.007181479933320523
1029.0,0.007181479933320523
1028.0,0.007137328610972382
1027.0,0.007049039429553483
1026.0,0.007004901568658406
1025.0,0.006916639301937977
1024.0,0.006872514894289861
1023.0,0.006828394969235152
1022.0,0.006828394969235152
1021.0,0.006784279525863024
1020.0,0.006784279525863024
1019.0,0.006828394969235152
1018.0,0.006872514894289861
1017.0,0.006872514894289861
1016.0,0.006740168563263094
1015.0,0.006607862550997545
1014.0,0.006475596832934416
1013.0,0.006387442061109638
1012.0,0.006343371384537999
1011.0,0.006387442061109638
1010.0,0.006475596832934416
1009.0,0.00656376950238835
1008.0,0.006607862550997545
1007.0,0.006607862550997545
1006.0,0.006607862550997545
1005.0,0.006607862550997545
1004.0,0.00656376950238835
1003.0,0.00656376950238835
1002.0,0.006519680930003435
1001.0,0.006431517210272464
1000.0,0.006343371384537999
999.0,0.00625524344553785
998.0,0.00621118618129457
997.0,0.00621118618129457
996.0,0.006299305179649828
995.0,0.006387442061109638
994.0,0.006519680930003435
993.0,0.00656376950238835
992.0,0.00656376950238835
991.0,0.006519680930003435
990.0,0.006475596832934416
989.0,0.006387442061109638
988.0,0.006299305179649828
987.0,0.00625524344553785
986.0,0.006299305179649828
985.0,0.006343371384537999
984.0,0.006431517210272464
983.0,0.006475596832934416
982.0,0.006475596832934416
981.0,0.006431517210272464
980.0,0.006387442061109638
979.0,0.006387442061109638
978.0,0.006475596832934416
977.0,0.006519680930003435
976.0,0.00656376950238835
975.0,0.00656376950238835
974.0,0.006519680930003435
973.0,0.006431517210272464
972.0,0.006387442061109638
971.0,0.006343371384537999
970.0,0.006343371384537999
969.0,0.006343371384537999
968.0,0.006299305179649828
967.0,0.00625524344553785
966.0,0.00625524344553785
965.0,0.00621118618129457
964.0,0.00621118618129457
963.0,0.006167133386013823
962.0,0.00612308505878878
961.0,0.006035001804881146
960.0,0.005946936412324799
959.0,0.00590291041179003
958.0,0.005946936412324799
957.0,0.005946936412324799
956.0,0.005946936412324799
955.0,0.005858888873877532
954.0,0.005726851026829571
953.0,0.005638848091999105
952.0,0.005506877116487674
951.0,0.00541891874010525
950.0,0.00537494623139545
949.0,0.0052870145684298375
948.0,0.005243055412371911
947.0,0.005199100705396198
946.0,0.005243055412371911
945.0,0.005330978174470591
944.0,0.00537494623139545
943.0,0.00541891874010525
942.0,0.00541891874010525
941.0,0.00537494623139545
940.0,0.00537494623139545
939.0,0.005462895701502157
938.0,0.005638848091999105
937.0,0.005858888873877532
936.0,0.006035001804881146
935.0,0.00612308505878878
934.0,0.00621118618129457
933.0,0.006167133386013823
932.0,0.00612308505878878
931.0,0.00612308505878878
930.0,0.006167133386013823
929.0,0.00621118618129457
928.0,0.006299305179649828
927.0,0.006343371384537999
926.0,0.006387442061109638
925.0,0.006387442061109638
924.0,0.006431517210272464
923.0,0.006475596832934416
922.0,0.006607862550997545
921.0,0.006651960076740071
920.0,0.006607862550997545
919.0,0.00656376950238835
918.0,0.006519680930003435
917.0,0.006519680930003435
916.0,0.006475596832934416
915.0,0.006387442061109638
914.0,0.00625524344553785
913.0,0.00612308505878878
912.0,0.006079041198713275
911.0,0.00612308505878878
910.0,0.006167133386013823
909.0,0.006167133386013823
908.0,0.006079041198713275
907.0,0.005946936412324799
906.0,0.005814871797682919
905.0,0.005638848091999105
904.0,0.005506877116487674
903.0,0.00541891874010525
902.0,0.00541891874010525
901.0,0.00541891874010525
900.0,0.005330978174470591
899.0,0.0052870145684298375
898.0,0.005199100705396198
897.0,0.005155150446602086
896.0,0.005155150446602086
895.0,0.005067263269958211
894.0,0.004979393875242044
893.0,0.00489154225525934
892.0,0.00484762310854614
891.0,0.004935465843858511
890.0,0.005067263269958211
889.0,0.005155150446602086
888.0,0.005155150446602086
887.0,0.005155150446602086
886.0,0.0052870145684298375
885.0,0.005506877116487674
884.0,0.005638848091999105
883.0,0.005682847330363394
882.0,0.005594853310833647
881.0,0.00541891874010525
880.0,0.00537494623139545
879.0,0.005506877116487674
878.0,0.005726851026829571
877.0,0.005858888873877532
876.0,0.005946936412324799
875.0,0.005990966876386672
874.0,0.006035001804881146
873.0,0.006079041198713275
872.0,0.006079041198713275
871.0,0.006079041198713275
870.0,0.00612308505878878
869.0,0.00621118618129457
868.0,0.006299305179649828
867.0,0.006431517210272464
866.0,0.006519680930003435
865.0,0.00656376950238835
864.0,0.006607862550997545
863.0,0.006696062080525422
862.0,0.006784279525863024
861.0,0.006872514894289861
860.0,0.006916639301937977
859.0,0.006872514894289861
858.0,0.006740168563263094
857.0,0.006607862550997545
856.0,0.006475596832934416
855.0,0.006431517210272464
854.0,0.006431517210272464
853.0,0.006431517210272464
852.0,0.006387442061109638
851.0,0.006299305179649828
850.0,0.006167133386013823
849.0,0.005990966876386672
848.0,0.005858888873877532
847.0,0.005814871797682919
846.0,0.00590291041179003
845.0,0.00590291041179003
844.0,0.005858888873877532
843.0,0.005726851026829571
842.0,0.005638848091999105
841.0,0.005638848091999105
840.0,0.005638848091999105
839.0,0.005594853310833647
838.0,0.005462895701502157
837.0,0.005330978174470591
836.0,0.005155150446602086
835.0,0.004979393875242044
834.0,0.00484762310854614
833.0,0.004759798137184523
832.0,0.004715892310740433
831.0,0.004715892310740433
830.0,0.004715892310740433
829.0,0.004628093971837721
828.0,0.0044964297349936455
827.0,0.0043648054024501
826.0,0.004277078004534696
825.0,0.004320939488377862
824.0,0.004408675747646695
823.0,0.004540313378935901
822.0,0.004628093971837721
821.0,0.00458420145758498
820.0,0.0044964297349936455
819.0,0.004452550524862486
818.0,0.0044964297349936455
817.0,0.0044964297349936455
816.0,0.004452550524862486
815.0,0.004408675747646695
814.0,0.0044964297349936455
813.0,0.004671990922590297
812.0,0.00489154225525934
811.0,0.005067263269958211
810.0,0.005243055412371911
809.0,0.005462895701502157
808.0,0.005638848091999105
807.0,0.005858888873877532
806.0,0.006035001804881146
805.0,0.006167133386013823
804.0,0.00625524344553785
803.0,0.006343371384537999
802.0,0.006387442061109638
801.0,0.006387442061109638
800.0,0.006343371384537999
799.0,0.006299305179649828
798.0,0.00625524344553785
797.0,0.00621118618129457
796.0,0.00612308505878878
795.0,0.006035001804881146
794.0,0.005990966876386672
793.0,0.006079041198713275
792.0,0.00625524344553785
791.0,0.006387442061109638
790.0,0.006387442061109638
789.0,0.006299305179649828
788.0,0.006167133386013823
787.0,0.006079041198713275
786.0,0.00590291041179003
785.0,0.005638848091999105
784.0,0.005243055412371911
783.0,0.00489154225525934
782.0,0.004715892310740433
781.0,0.004803708402820517
780.0,0.005067263269958211
779.0,0.005330978174470591
778.0,0.00541891874010525
777.0,0.005330978174470591
776.0,0.005111204635089406
775.0,0.004935465843858511
774.0,0.00489154225525934
773.0,0.004935465843858511
772.0,0.00484762310854614
771.0,0.004671990922590297
770.0,0.004408675747646695
769.0,0.004233220950025984
768.0,0.004145520125434121
767.0,0.004101676353562844
766.0,0.004101676353562844
765.0,0.004101676353562844
764.0,0.004145520125434121
763.0,0.004189368323957332
762.0,0.004233220950025984
761.0,0.004145520125434121
760.0,0.004145520125434121
759.0,0.004233220950025984
758.0,0.004540313378935901
757.0,0.00484762310854614
756.0,0.004979393875242044
755.0,0.005023326350308999
754.0,0.004935465843858511
753.0,0.00484762310854614
752.0,0.004803708402820517
751.0,0.00489154225525934
750.0,0.005111204635089406
749.0,0.005330978174470591
748.0,0.005506877116487674
747.0,0.005638848091999105
746.0,0.005814871797682919
745.0,0.005946936412324799
744.0,0.005946936412324799
743.0,0.00590291041179003
742.0,0.006035001804881146
741.0,0.006387442061109638
740.0,0.00696076819309055
739.0,0.007844288957383316
738.0,0.00908424549391551
737.0,0.010995384301463185
736.0,0.014259258949925524
735.0,0.02036058777709271
734.0,0.03105031901865729
733.0,0.04653025674659861
732.0,0.06429125215733666
731.0,0.07883394936226118
730.0,0.08502252755566908
729.0,0.08181233864107451
728.0,0.07293775650699996
727.0,0.06348625752110681
726.0,0.05690137699451481
725.0,0.05443294655761144
724.0,0.05625823416868636
723.0,0.06298389253518577
722.0,0.07520400420208784
721.0,0.09156860103399356
720.0,0.10651565378151395
719.0,0.11266406960083297
718.0,0.10746019534136453
717.0,0.09458193129745807
716.0,0.07925073872429178
715.0,0.06489597884855036
714.0,0.05300765925162776
713.0,0.043735497301724546
712.0,0.03682628362474838
711.0,0.03184406285002961
710.0,0.02826040911222183
709.0,0.02553436426275746
708.0,0.02351246269481
707.0,0.022230681908425698
706.0,0.02140867317992523
705.0,0.02067930261797568
704.0,0.019723858922159776
703.0,0.01858915983411169
702.0,0.017367005605150476
701.0,0.01646391839700767
700.0,0.016013078034810446
699.0,0.015832872853011715
698.0,0.015562705203923999
697.0,0.015022873584506602
696.0,0.0144837121472845
695.0,0.014304140310157809
694.0,0.014259258949925524
693.0,0.014124642691606404
692.0,0.01372104409400876
691.0,0.013362604389846044
690.0,0.013138729709955221
689.0,0.013093968619278806
688.0,0.01318349541446362
687.0,0.013452186585275916
686.0,0.013586594534531482
685.0,0.013452186585275916
684.0,0.013138729709955221
683.0,0.012959713020733288
682.0,0.012870232340102872
681.0,0.012691326268817527
680.0,0.012333735073725371
679.0,0.011842527443247208
678.0,0.011307297450183107
677.0,0.01077272626946324
676.0,0.010416710688994968
675.0,0.01046119667949763
674.0,0.010683695010048622
673.0,0.01077272626946324
672.0,0.010594681998483901
671.0,0.010505687227290839
670.0,0.010594681998483901
669.0,0.010683695010048622
668.0,0.010817248744452446
667.0,0.01037222925484893
666.0,0.00908424549391551
665.0,0.007888512213050314
664.0,0.0074464821678643656
663.0,0.007755855953228474
662.0,0.008153946355103248
661.0,0.007976972236149349
660.0,0.007093181776687496
659.0,0.00590291041179003
658.0,0.004935465843858511
657.0,0.004277078004534696
656.0,0.00401400208620073
655.0,0.004408675747646695
654.0,0.00537494623139545
653.0,0.00656376950238835
652.0,0.00762324020119709
651.0,0.008419542825660153
650.0,0.008818242332126802
649.0,0.0087296108049002
648.0,0.00850811108984062
647.0,0.008596697419959609
646.0,0.009039900317800775
645.0,0.00939478857608056
644.0,0.009172949432521227
643.0,0.008552401996197112
642.0,0.007976972236149349
641.0,0.007932739972333236
640.0,0.00850811108984062
639.0,0.00966114521239847
638.0,0.011039929609661936
637.0,0.012199714248127602
636.0,0.012825498912458322
635.0,0.012825498912458322
634.0,0.012557195064198723
633.0,0.012423105273012602
632.0,0.012914970375878188
631.0,0.01403492169512921
630.0,0.015247721884586563
629.0,0.016103208673694303
628.0,0.01646391839700767
627.0,0.016418813294209356
626.0,0.016103208673694303
625.0,0.015607721475734415
624.0,0.015337693809893471
623.0,0.015427684378367834
622.0,0.015832872853011715
621.0,0.016058141016111804
620.0,0.015832872853011715
619.0,0.015202742910707112
618.0,0.014259258949925524
617.0,0.012914970375878188
616.0,0.011530229790124524
615.0,0.010550182333308289
614.0,0.01037222925484893
613.0,0.010728208358306901
612.0,0.011218156546359825
611.0,0.011708658092512314
610.0,0.012199714248127602
609.0,0.01264661126420652
608.0,0.013049212141483357
607.0,0.013273040668781544
606.0,0.013273040668781544
605.0,0.013004460275618523
604.0,0.012870232340102872
603.0,0.012914970375878188
602.0,0.012780770091995297
601.0,0.01215504982870197
600.0,0.011307297450183107
