cm-1,A
4000.0,0.11193288659256306
3999.0,0.11193288659256306
3998.0,0.11198908775497118
3997.0,0.1120452961911984
3996.0,0.11210151190312767
3995.0,0.1120452961911984
3994.0,0.11198908775497118
3993.0,0.11193288659256306
3992.0,0.11193288659256306
3991.0,0.1120452961911984
3990.0,0.11215773489264302
3989.0,0.11232644754555254
3988.0,0.11243895906999102
3987.0,0.11249522576462212
3986.0,0.1125514997500463
3985.0,0.11249522576462212
3984.0,0.11238269966426384
3983.0,0.11227020271196975
3982.0,0.11210151190312767
3981.0,0.11198908775497118
3980.0,0.11182050608167504
3979.0,0.11176432672943282
3978.0,0.11165198982195101
3977.0,0.11165198982195101
3976.0,0.1117081546434846
3975.0,0.11182050608167504
3974.0,0.11198908775497118
3973.0,0.11215773489264302
3972.0,0.11215773489264302
3971.0,0.1120452961911984
3970.0,0.11187669270209155
3969.0,0.11182050608167504
3968.0,0.11182050608167504
3967.0,0.11198908775497118
3966.0,0.11210151190312767
3965.0,0.11227020271196975
3964.0,0.11238269966426384
3963.0,0.11249522576462212
3962.0,0.11260778102815316
3961.0,0.11260778102815316
3960.0,0.11249522576462212
3959.0,0.11238269966426384
3958.0,0.11232644754555254
3957.0,0.11227020271196975
3956.0,0.11232644754555254
3955.0,0.11232644754555254
3954.0,0.11238269966426384
3953.0,0.11243895906999102
3952.0,0.11249522576462212
3951.0,0.11249522576462212
3950.0,0.11243895906999102
3949.0,0.11232644754555254
3948.0,0.11221396516162851
3947.0,0.11215773489264302
3946.0,0.11227020271196975
3945.0,0.11238269966426384
3944.0,0.1125514997500463
3943.0,0.11272036546997688
3942.0,0.11277666863747693
3941.0,0.11272036546997688
3940.0,0.11260778102815316
3939.0,0.11249522576462212
3938.0,0.11243895906999102
3937.0,0.11243895906999102
3936.0,0.11249522576462212
3935.0,0.11266406960083297
3934.0,0.1128329791052256
3933.0,0.112945621949043
3932.0,0.112945621949043
3931.0,0.1128329791052256
3930.0,0.11272036546997688
3929.0,0.11272036546997688
3928.0,0.11277666863747693
3927.0,0.11277666863747693
3926.0,0.11277666863747693
3925.0,0.11266406960083297
3924.0,0.1125514997500463
3923.0,0.11243895906999102
3922.0,0.11249522576462212
3921.0,0.11272036546997688
3920.0,0.112945621949043
3919.0,0.11311464101399138
3918.0,0.11311464101399138
3917.0,0.1130019543289007
3916.0,0.1130019543289007
3915.0,0.112945621949043
3914.0,0.11288929687511629
3913.0,0.1128329791052256
3912.0,0.11277666863747693
3911.0,0.11277666863747693
3910.0,0.11277666863747693
3909.0,0.11277666863747693
3908.0,0.11288929687511629
3907.0,0.112945621949043
3906.0,0.11311464101399138
3905.0,0.11322735694556196
3904.0,0.11339648571328764
3903.0,0.11345287660889425
3902.0,0.11345287660889425
3901.0,0.11339648571328764
3900.0,0.11328372588352176
3899.0,0.11317099532301778
3898.0,0.11305829401658474
3897.0,0.1130019543289007
3896.0,0.1130019543289007
3895.0,0.11317099532301778
3894.0,0.11328372588352176
3893.0,0.11328372588352176
3892.0,0.11322735694556196
3891.0,0.11322735694556196
3890.0,0.11339648571328764
3889.0,0.1136220932414278
3888.0,0.1137349409702435
3887.0,0.11379137583250243
3886.0,0.11396072443355765
3885.0,0.11401718864502697
3884.0,0.11390426756225258
3883.0,0.11367851344052027
3882.0,0.1133401021387972
3881.0,0.11322735694556196
3880.0,0.11317099532301778
3879.0,0.11317099532301778
3878.0,0.11328372588352176
3877.0,0.1133401021387972
3876.0,0.1133401021387972
3875.0,0.1133401021387972
3874.0,0.11339648571328764
3873.0,0.1133401021387972
3872.0,0.11328372588352176
3871.0,0.11322735694556196
3870.0,0.11339648571328764
3869.0,0.1136220932414278
3868.0,0.11367851344052027
3867.0,0.1136220932414278
3866.0,0.11356568037106163
3865.0,0.1137349409702435
3864.0,0.11379137583250243
3863.0,0.11356568037106163
3862.0,0.1133401021387972
3861.0,0.1133401021387972
3860.0,0.11356568037106163
3859.0,0.11379137583250243
3858.0,0.11407366019856902
3857.0,0.11424311893073247
3856.0,0.11435612816423602
3855.0,0.11435612816423602
3854.0,0.11458223488906394
3853.0,0.1148084593931522
3852.0,0.11463877996848804
3851.0,0.11424311893073247
3850.0,0.1138478180292033
3849.0,0.1136220932414278
3848.0,0.11356568037106163
3847.0,0.1136220932414278
3846.0,0.1136220932414278
3845.0,0.1136220932414278
3844.0,0.1136220932414278
3843.0,0.11367851344052027
3842.0,0.1137349409702435
3841.0,0.1138478180292033
3840.0,0.11390426756225258
3839.0,0.11401718864502697
3838.0,0.1141301390960936
3837.0,0.11418662533951118
3836.0,0.11418662533951118
3835.0,0.11407366019856902
3834.0,0.11390426756225258
3833.0,0.11367851344052027
3832.0,0.11356568037106163
3831.0,0.11350927482751816
3830.0,0.11350927482751816
3829.0,0.11345287660889425
3828.0,0.11345287660889425
3827.0,0.11345287660889425
3826.0,0.1136220932414278
3825.0,0.11379137583250243
3824.0,0.1138478180292033
3823.0,0.1138478180292033
3822.0,0.11401718864502697
3821.0,0.11424311893073247
3820.0,0.11435612816423602
3819.0,0.11429961987167014
3818.0,0.11424311893073247
3817.0,0.11424311893073247
3816.0,0.11441264381034388
3815.0,0.11446916681190777
3814.0,0.11429961987167014
3813.0,0.11407366019856902
3812.0,0.11396072443355765
3811.0,0.11401718864502697
3810.0,0.11407366019856902
3809.0,0.11390426756225258
3808.0,0.11367851344052027
3807.0,0.11367851344052027
3806.0,0.11390426756225258
3805.0,0.11418662533951118
3804.0,0.11424311893073247
3803.0,0.11424311893073247
3802.0,0.11435612816423602
3801.0,0.11458223488906394
3800.0,0.11463877996848804
3799.0,0.11458223488906394
3798.0,0.11446916681190777
3797.0,0.11424311893073247
3796.0,0.11407366019856902
3795.0,0.1138478180292033
3794.0,0.11367851344052027
3793.0,0.1136220932414278
3792.0,0.11367851344052027
3791.0,0.1137349409702435
3790.0,0.11379137583250243
3789.0,0.1138478180292033
3788.0,0.11390426756225258
3787.0,0.11396072443355765
3786.0,0.11396072443355765
3785.0,0.11390426756225258
3784.0,0.11396072443355765
3783.0,0.11401718864502697
3782.0,0.11401718864502697
3781.0,0.11401718864502697
3780.0,0.11407366019856902
3779.0,0.11418662533951118
3778.0,0.11424311893073247
3777.0,0.11429961987167014
3776.0,0.11424311893073247
3775.0,0.11429961987167014
3774.0,0.11435612816423602
3773.0,0.11441264381034388
3772.0,0.11435612816423602
3771.0,0.11441264381034388
3770.0,0.11446916681190777
3769.0,0.11458223488906394
3768.0,0.1145256971708426
3767.0,0.11435612816423602
3766.0,0.11429961987167014
3765.0,0.11441264381034388
3764.0,0.1145256971708426
3763.0,0.11463877996848804
3762.0,0.11463877996848804
3761.0,0.11469533241103202
3760.0,0.114865033936566
3759.0,0.11492161585077598
3758.0,0.1149782051377024
3757.0,0.11509140583739286
3756.0,0.11526126223036814
3755.0,0.11543118508166672
3754.0,0.11554450392951199
3753.0,0.11565785235294102
3752.0,0.11588463798833115
3751.0,0.11611154211151953
3750.0,0.11628179803604044
3749.0,0.11662251025166115
3748.0,0.1169634899723202
3747.0,0.1169634899723202
3746.0,0.1165089098110701
3745.0,0.11616828667054757
3744.0,0.11616828667054757
3743.0,0.11611154211151953
3742.0,0.11594135290606156
3741.0,0.11577123036739612
3740.0,0.11577123036739612
3739.0,0.11594135290606156
3738.0,0.11599807523121286
3737.0,0.11599807523121286
3736.0,0.11611154211151953
3735.0,0.11622503864474187
3734.0,0.11622503864474187
3733.0,0.11622503864474187
3732.0,0.1163953390777075
3731.0,0.11662251025166115
3730.0,0.11667932161702477
3729.0,0.1165657063169907
3728.0,0.11628179803604044
3727.0,0.11611154211151953
3726.0,0.11594135290606156
3725.0,0.1157145376603248
3724.0,0.11543118508166672
3723.0,0.11537453674376552
3722.0,0.11548784080960606
3721.0,0.11560117444331386
3720.0,0.1157145376603248
3719.0,0.11565785235294102
3718.0,0.11565785235294102
3717.0,0.1157145376603248
3716.0,0.11582793047608719
3715.0,0.11594135290606156
3714.0,0.11594135290606156
3713.0,0.11599807523121286
3712.0,0.11611154211151953
3711.0,0.1163953390777075
3710.0,0.116736140415026
3709.0,0.11690664142431006
3708.0,0.1169634899723202
3707.0,0.11684980031672243
3706.0,0.11662251025166115
3705.0,0.11633856484638239
3704.0,0.11599807523121286
3703.0,0.11565785235294102
3702.0,0.11531789579397489
3701.0,0.11520463605101905
3700.0,0.11537453674376552
3699.0,0.11560117444331386
3698.0,0.11582793047608719
3697.0,0.11594135290606156
3696.0,0.11599807523121286
3695.0,0.11599807523121286
3694.0,0.11611154211151953
3693.0,0.11622503864474187
3692.0,0.11633856484638239
3691.0,0.11633856484638239
3690.0,0.11616828667054757
3689.0,0.11605480496572018
3688.0,0.11622503864474187
3687.0,0.1165089098110701
3686.0,0.11662251025166115
3685.0,0.1165657063169907
3684.0,0.1163953390777075
3683.0,0.11633856484638239
3682.0,0.11628179803604044
3681.0,0.11633856484638239
3680.0,0.1165657063169907
3679.0,0.11690664142431006
3678.0,0.1170772093974013
3677.0,0.11702034596270106
3676.0,0.1169634899723202
3675.0,0.11702034596270106
3674.0,0.11719095860756013
3673.0,0.11724784438692004
3672.0,0.11730473761840288
3671.0,0.11741854644554883
3670.0,0.1175323851046286
3669.0,0.11741854644554883
3668.0,0.1170772093974013
3667.0,0.11684980031672243
3666.0,0.11667932161702477
3665.0,0.1165657063169907
3664.0,0.11645212073195621
3663.0,0.11628179803604044
3662.0,0.11622503864474187
3661.0,0.11622503864474187
3660.0,0.1163953390777075
3659.0,0.1165089098110701
3658.0,0.11662251025166115
3657.0,0.116736140415026
3656.0,0.1169634899723202
3655.0,0.11719095860756013
3654.0,0.11736163830396129
3653.0,0.11741854644554883
3652.0,0.11736163830396129
3651.0,0.11741854644554883
3650.0,0.1175323851046286
3649.0,0.1174754620451195
3648.0,0.11730473761840288
3647.0,0.11724784438692004
3646.0,0.11713408027837091
3645.0,0.1170772093974013
3644.0,0.11702034596270106
3643.0,0.11702034596270106
3642.0,0.1170772093974013
3641.0,0.1170772093974013
3640.0,0.1169634899723202
3639.0,0.11690664142431006
3638.0,0.11690664142431006
3637.0,0.11690664142431006
3636.0,0.11690664142431006
3635.0,0.1169634899723202
3634.0,0.1170772093974013
3633.0,0.11736163830396129
3632.0,0.1175323851046286
3631.0,0.1175323851046286
3630.0,0.1175323851046286
3629.0,0.11776015198117662
3628.0,0.11787408022996826
3627.0,0.11787408022996826
3626.0,0.11770319906234805
3625.0,0.1175323851046286
3624.0,0.1174754620451195
3623.0,0.11741854644554883
3622.0,0.11730473761840288
3621.0,0.11719095860756013
3620.0,0.11713408027837091
3619.0,0.11713408027837091
3618.0,0.11724784438692004
3617.0,0.1174754620451195
3616.0,0.11770319906234805
3615.0,0.11787408022996826
3614.0,0.11798803837334138
3613.0,0.11798803837334138
3612.0,0.11781711236973003
3611.0,0.11770319906234805
3610.0,0.1174754620451195
3609.0,0.11736163830396129
3608.0,0.11719095860756013
3607.0,0.11702034596270106
3606.0,0.1169634899723202
3605.0,0.11702034596270106
3604.0,0.11713408027837091
3603.0,0.11724784438692004
3602.0,0.11730473761840288
3601.0,0.11730473761840288
3600.0,0.11719095860756013
3599.0,0.11713408027837091
3598.0,0.11713408027837091
3597.0,0.11719095860756013
3596.0,0.11736163830396129
3595.0,0.1175323851046286
3594.0,0.11764625361128611
3593.0,0.11776015198117662
3592.0,0.11781711236973003
3591.0,0.11787408022996826
3590.0,0.11776015198117662
3589.0,0.11764625361128611
3588.0,0.11741854644554883
3587.0,0.11730473761840288
3586.0,0.11724784438692004
3585.0,0.11730473761840288
3584.0,0.11741854644554883
3583.0,0.11741854644554883
3582.0,0.11736163830396129
3581.0,0.11730473761840288
3580.0,0.11719095860756013
3579.0,0.11713408027837091
3578.0,0.11719095860756013
3577.0,0.11724784438692004
3576.0,0.11724784438692004
3575.0,0.11713408027837091
3574.0,0.11702034596270106
3573.0,0.11702034596270106
3572.0,0.1170772093974013
3571.0,0.11719095860756013
3570.0,0.11724784438692004
3569.0,0.11719095860756013
3568.0,0.11724784438692004
3567.0,0.11741854644554883
3566.0,0.1175323851046286
3565.0,0.11758931562603192
3564.0,0.11770319906234805
3563.0,0.11770319906234805
3562.0,0.11764625361128611
3561.0,0.1174754620451195
3560.0,0.11730473761840288
3559.0,0.11724784438692004
3558.0,0.11719095860756013
3557.0,0.11724784438692004
3556.0,0.11724784438692004
3555.0,0.11730473761840288
3554.0,0.11736163830396129
3553.0,0.11741854644554883
3552.0,0.1174754620451195
3551.0,0.1175323851046286
3550.0,0.11758931562603192
3549.0,0.11764625361128611
3548.0,0.11781711236973003
3547.0,0.11798803837334138
3546.0,0.11810202642698875
3545.0,0.11804502866039956
3544.0,0.11793105556385153
3543.0,0.11781711236973003
3542.0,0.11776015198117662
3541.0,0.11776015198117662
3540.0,0.11776015198117662
3539.0,0.11781711236973003
3538.0,0.11781711236973003
3537.0,0.11787408022996826
3536.0,0.11793105556385153
3535.0,0.11787408022996826
3534.0,0.11781711236973003
3533.0,0.11770319906234805
3532.0,0.1175323851046286
3531.0,0.11736163830396129
3530.0,0.11719095860756013
3529.0,0.11719095860756013
3528.0,0.11730473761840288
3527.0,0.1174754620451195
3526.0,0.11758931562603192
3525.0,0.11758931562603192
3524.0,0.11758931562603192
3523.0,0.11764625361128611
3522.0,0.11770319906234805
3521.0,0.11770319906234805
3520.0,0.11776015198117662
3519.0,0.11781711236973003
3518.0,0.11793105556385153
3517.0,0.11798803837334138
3516.0,0.11804502866039956
3515.0,0.11798803837334138
3514.0,0.11787408022996826
3513.0,0.11781711236973003
3512.0,0.11781711236973003
3511.0,0.11787408022996826
3510.0,0.11798803837334138
3509.0,0.11804502866039956
3508.0,0.11804502866039956
3507.0,0.11810202642698875
3506.0,0.11821604440661537
3505.0,0.11827306462358211
3504.0,0.11833009232793867
3503.0,0.11827306462358211
3502.0,0.11815903167507247
3501.0,0.11804502866039956
3500.0,0.11793105556385153
3499.0,0.11781711236973003
3498.0,0.11776015198117662
3497.0,0.11776015198117662
3496.0,0.11781711236973003
3495.0,0.11793105556385153
3494.0,0.11798803837334138
3493.0,0.11793105556385153
3492.0,0.11793105556385153
3491.0,0.11798803837334138
3490.0,0.11798803837334138
3489.0,0.11793105556385153
3488.0,0.11787408022996826
3487.0,0.11781711236973003
3486.0,0.11781711236973003
3485.0,0.11787408022996826
3484.0,0.11793105556385153
3483.0,0.11798803837334138
3482.0,0.11804502866039956
3481.0,0.11810202642698875
3480.0,0.11821604440661537
3479.0,0.11833009232793867
3478.0,0.11844417020668851
3477.0,0.11850122038501709
3476.0,0.11855827805860697
3475.0,0.11867241589944855
3474.0,0.11872949607064243
3473.0,0.11872949607064243
3472.0,0.11861534322942724
3471.0,0.1183871275216517
3470.0,0.11810202642698875
3469.0,0.11798803837334138
3468.0,0.11804502866039956
3467.0,0.11821604440661537
3466.0,0.11844417020668851
3465.0,0.11861534322942724
3464.0,0.11867241589944855
3463.0,0.11867241589944855
3462.0,0.11861534322942724
3461.0,0.11861534322942724
3460.0,0.11855827805860697
3459.0,0.11861534322942724
3458.0,0.11872949607064243
3457.0,0.11884367892443626
3456.0,0.11890078161098283
3455.0,0.11890078161098283
3454.0,0.11878658374498086
3453.0,0.11861534322942724
3452.0,0.11855827805860697
3451.0,0.11855827805860697
3450.0,0.11855827805860697
3449.0,0.11861534322942724
3448.0,0.11861534322942724
3447.0,0.11867241589944855
3446.0,0.11878658374498086
3445.0,0.11884367892443626
3444.0,0.11884367892443626
3443.0,0.11890078161098283
3442.0,0.11890078161098283
3441.0,0.11884367892443626
3440.0,0.11878658374498086
3439.0,0.11867241589944855
3438.0,0.11861534322942724
3437.0,0.11867241589944855
3436.0,0.11878658374498086
3435.0,0.11895789180659433
3434.0,0.11907213473291511
3433.0,0.11912926746757657
3432.0,0.11924355548978971
3431.0,0.11930071078129845
3430.0,0.11924355548978971
3429.0,0.11918640771920863
3428.0,0.1190150095132465
3427.0,0.11884367892443626
3426.0,0.11872949607064243
3425.0,0.11867241589944855
3424.0,0.11872949607064243
3423.0,0.11878658374498086
3422.0,0.11890078161098283
3421.0,0.1190150095132465
3420.0,0.11912926746757657
3419.0,0.11924355548978971
3418.0,0.11930071078129845
3417.0,0.11935787359571504
3416.0,0.11924355548978971
3415.0,0.11918640771920863
3414.0,0.11912926746757657
3413.0,0.11918640771920863
3412.0,0.11935787359571504
3411.0,0.11952940719622163
3410.0,0.11964380058076385
3409.0,0.11970100857424737
3408.0,0.11964380058076385
3407.0,0.11952940719622163
3406.0,0.11941504393502012
3405.0,0.11941504393502012
3404.0,0.11947222180119477
3403.0,0.11952940719622163
3402.0,0.11952940719622163
3401.0,0.11958660012208333
3400.0,0.11958660012208333
3399.0,0.11958660012208333
3398.0,0.11952940719622163
3397.0,0.11941504393502012
3396.0,0.11930071078129845
3395.0,0.11924355548978971
3394.0,0.11924355548978971
3393.0,0.11930071078129845
3392.0,0.11941504393502012
3391.0,0.11952940719622163
3390.0,0.11964380058076385
3389.0,0.11970100857424737
3388.0,0.11981544717356662
3387.0,0.11992991593593283
3386.0,0.1199871616332282
3385.0,0.12004441487725082
3384.0,0.1199871616332282
3383.0,0.11992991593593283
3382.0,0.11987267778337518
3381.0,0.11975822410451964
3380.0,0.11970100857424737
3379.0,0.11964380058076385
3378.0,0.11970100857424737
3377.0,0.11981544717356662
3376.0,0.1199871616332282
3375.0,0.1201016756699902
3374.0,0.12015894401343741
3373.0,0.1202162199095842
3372.0,0.12015894401343741
3371.0,0.1201016756699902
3370.0,0.12004441487725082
3369.0,0.11987267778337518
3368.0,0.11981544717356662
3367.0,0.11981544717356662
3366.0,0.11987267778337518
3365.0,0.1199871616332282
3364.0,0.1199871616332282
3363.0,0.12004441487725082
3362.0,0.12004441487725082
3361.0,0.12004441487725082
3360.0,0.12015894401343741
3359.0,0.1202162199095842
3358.0,0.1202162199095842
3357.0,0.1201016756699902
3356.0,0.12004441487725082
3355.0,0.12004441487725082
3354.0,0.12004441487725082
3353.0,0.1201016756699902
3352.0,0.12004441487725082
3351.0,0.1199871616332282
3350.0,0.11992991593593283
3349.0,0.11992991593593283
3348.0,0.11987267778337518
3347.0,0.11987267778337518
3346.0,0.11987267778337518
3345.0,0.11987267778337518
3344.0,0.11992991593593283
3343.0,0.12004441487725082
3342.0,0.12015894401343741
3341.0,0.12033079436794658
3340.0,0.12044539906102569
3339.0,0.12044539906102569
3338.0,0.12044539906102569
3337.0,0.1203880929341492
3336.0,0.12033079436794658
3335.0,0.1203880929341492
3334.0,0.12044539906102569
3333.0,0.12050271275057156
3332.0,0.12056003400478299
3331.0,0.12061736282565727
3330.0,0.12056003400478299
3329.0,0.12044539906102569
3328.0,0.12033079436794658
3327.0,0.12015894401343741
3326.0,0.1201016756699902
3325.0,0.12004441487725082
3324.0,0.1201016756699902
3323.0,0.1202162199095842
3322.0,0.12033079436794658
3321.0,0.12033079436794658
3320.0,0.12027350336042275
3319.0,0.12015894401343741
3318.0,0.12015894401343741
3317.0,0.1202162199095842
3316.0,0.1203880929341492
3315.0,0.12056003400478299
3314.0,0.12067469921519258
3313.0,0.12061736282565727
3312.0,0.12050271275057156
3311.0,0.12027350336042275
3310.0,0.12015894401343741
3309.0,0.1201016756699902
3308.0,0.12015894401343741
3307.0,0.1202162199095842
3306.0,0.12027350336042275
3305.0,0.12027350336042275
3304.0,0.1202162199095842
3303.0,0.12015894401343741
3302.0,0.1201016756699902
3301.0,0.12015894401343741
3300.0,0.12033079436794658
3299.0,0.12050271275057156
3298.0,0.12056003400478299
3297.0,0.12056003400478299
3296.0,0.12044539906102569
3295.0,0.12044539906102569
3294.0,0.12050271275057156
3293.0,0.12056003400478299
3292.0,0.12056003400478299
3291.0,0.12050271275057156
3290.0,0.12044539906102569
3289.0,0.12044539906102569
3288.0,0.12044539906102569
3287.0,0.12056003400478299
3286.0,0.12061736282565727
3285.0,0.1207320431753871
3284.0,0.12067469921519258
3283.0,0.12061736282565727
3282.0,0.12050271275057156
3281.0,0.12050271275057156
3280.0,0.12056003400478299
3279.0,0.12067469921519258
3278.0,0.1207893947082408
3277.0,0.1207893947082408
3276.0,0.12067469921519258
3275.0,0.12056003400478299
3274.0,0.12050271275057156
3273.0,0.12050271275057156
3272.0,0.12056003400478299
3271.0,0.1207320431753871
3270.0,0.1207893947082408
3269.0,0.12084675381575383
3268.0,0.12084675381575383
3267.0,0.1207320431753871
3266.0,0.12067469921519258
3265.0,0.12056003400478299
3264.0,0.12056003400478299
3263.0,0.12056003400478299
3262.0,0.12056003400478299
3261.0,0.12056003400478299
3260.0,0.12050271275057156
3259.0,0.1203880929341492
3258.0,0.12027350336042275
3257.0,0.1202162199095842
3256.0,0.12027350336042275
3255.0,0.1203880929341492
3254.0,0.12044539906102569
3253.0,0.12044539906102569
3252.0,0.12033079436794658
3251.0,0.12027350336042275
3250.0,0.12027350336042275
3249.0,0.12027350336042275
3248.0,0.12027350336042275
3247.0,0.1202162199095842
3246.0,0.1202162199095842
3245.0,0.1202162199095842
3244.0,0.12027350336042275
3243.0,0.12033079436794658
3242.0,0.12044539906102569
3241.0,0.12056003400478299
3240.0,0.12061736282565727
3239.0,0.12061736282565727
3238.0,0.12056003400478299
3237.0,0.12050271275057156
3236.0,0.12050271275057156
3235.0,0.12044539906102569
3234.0,0.12050271275057156
3233.0,0.12050271275057156
3232.0,0.12050271275057156
3231.0,0.12050271275057156
3230.0,0.12044539906102569
3229.0,0.12050271275057156
3228.0,0.12056003400478299
3227.0,0.12056003400478299
3226.0,0.12056003400478299
3225.0,0.12056003400478299
3224.0,0.12061736282565727
3223.0,0.12067469921519258
3222.0,0.1207320431753871
3221.0,0.1207893947082408
3220.0,0.1207893947082408
3219.0,0.1207893947082408
3218.0,0.1207320431753871
3217.0,0.12067469921519258
3216.0,0.12056003400478299
3215.0,0.12056003400478299
3214.0,0.12061736282565727
3213.0,0.1207320431753871
3212.0,0.12090412049992727
3211.0,0.12107626603243293
3210.0,0.12119106764079435
3209.0,0.12124847982699793
3208.0,0.12124847982699793
3207.0,0.12124847982699793
3206.0,0.12124847982699793
3205.0,0.12119106764079435
3204.0,0.12113366304327466
3203.0,0.12101887660626365
3202.0,0.12090412049992727
3201.0,0.12090412049992727
3200.0,0.12096149476276286
3199.0,0.12096149476276286
3198.0,0.12090412049992727
3197.0,0.1207893947082408
3196.0,0.12067469921519258
3195.0,0.12061736282565727
3194.0,0.12061736282565727
3193.0,0.12067469921519258
3192.0,0.12067469921519258
3191.0,0.12067469921519258
3190.0,0.1207320431753871
3189.0,0.1207320431753871
3188.0,0.12067469921519258
3187.0,0.12061736282565727
3186.0,0.12061736282565727
3185.0,0.12067469921519258
3184.0,0.12067469921519258
3183.0,0.12067469921519258
3182.0,0.12061736282565727
3181.0,0.12061736282565727
3180.0,0.1207320431753871
3179.0,0.12090412049992727
3178.0,0.12101887660626365
3177.0,0.12107626603243293
3176.0,0.12101887660626365
3175.0,0.12090412049992727
3174.0,0.1207320431753871
3173.0,0.12056003400478299
3172.0,0.12044539906102569
3171.0,0.12044539906102569
3170.0,0.1203880929341492
3169.0,0.1203880929341492
3168.0,0.12033079436794658
3167.0,0.12027350336042275
3166.0,0.12033079436794658
3165.0,0.1203880929341492
3164.0,0.12056003400478299
3163.0,0.12067469921519258
3162.0,0.12067469921519258
3161.0,0.12067469921519258
3160.0,0.12061736282565727
3159.0,0.12050271275057156
3158.0,0.1203880929341492
3157.0,0.12033079436794658
3156.0,0.12027350336042275
3155.0,0.1202162199095842
3154.0,0.1201016756699902
3153.0,0.12004441487725082
3152.0,0.1199871616332282
3151.0,0.1201016756699902
3150.0,0.1202162199095842
3149.0,0.1203880929341492
3148.0,0.12044539906102569
3147.0,0.12044539906102569
3146.0,0.12050271275057156
3145.0,0.12044539906102569
3144.0,0.12033079436794658
3143.0,0.1202162199095842
3142.0,0.1201016756699902
3141.0,0.12004441487725082
3140.0,0.12004441487725082
3139.0,0.12004441487725082
3138.0,0.12004441487725082
3137.0,0.12004441487725082
3136.0,0.1199871616332282
3135.0,0.1199871616332282
3134.0,0.12004441487725082
3133.0,0.1201016756699902
3132.0,0.1202162199095842
3131.0,0.1202162199095842
3130.0,0.1201016756699902
3129.0,0.11992991593593283
3128.0,0.11970100857424737
3127.0,0.11947222180119477
3126.0,0.11935787359571504
3125.0,0.11935787359571504
3124.0,0.11941504393502012
3123.0,0.11947222180119477
3122.0,0.11941504393502012
3121.0,0.11930071078129845
3120.0,0.11918640771920863
3119.0,0.11918640771920863
3118.0,0.11924355548978971
3117.0,0.11930071078129845
3116.0,0.11935787359571504
3115.0,0.11935787359571504
3114.0,0.11935787359571504
3113.0,0.11935787359571504
3112.0,0.11941504393502012
3111.0,0.11941504393502012
3110.0,0.11947222180119477
3109.0,0.11952940719622163
3108.0,0.11947222180119477
3107.0,0.11935787359571504
3106.0,0.11912926746757657
3105.0,0.11890078161098283
3104.0,0.11872949607064243
3103.0,0.11867241589944855
3102.0,0.11872949607064243
3101.0,0.11878658374498086
3100.0,0.11878658374498086
3099.0,0.11867241589944855
3098.0,0.11855827805860697
3097.0,0.11855827805860697
3096.0,0.11861534322942724
3095.0,0.11867241589944855
3094.0,0.11867241589944855
3093.0,0.11861534322942724
3092.0,0.11850122038501709
3091.0,0.1183871275216517
3090.0,0.11827306462358211
3089.0,0.11821604440661537
3088.0,0.11827306462358211
3087.0,0.11833009232793867
3086.0,0.1183871275216517
3085.0,0.11844417020668851
3084.0,0.11850122038501709
3083.0,0.11844417020668851
3082.0,0.11833009232793867
3081.0,0.11821604440661537
3080.0,0.11810202642698875
3079.0,0.11798803837334138
3078.0,0.11787408022996826
3077.0,0.11770319906234805
3076.0,0.11758931562603192
3075.0,0.1174754620451195
3074.0,0.11741854644554883
3073.0,0.11741854644554883
3072.0,0.11741854644554883
3071.0,0.11736163830396129
3070.0,0.11713408027837091
3069.0,0.1169634899723202
3068.0,0.11684980031672243
3067.0,0.11684980031672243
3066.0,0.1169634899723202
3065.0,0.11702034596270106
3064.0,0.11713408027837091
3063.0,0.11713408027837091
3062.0,0.11713408027837091
3061.0,0.1170772093974013
3060.0,0.1169634899723202
3059.0,0.11679296664760996
3058.0,0.11662251025166115
3057.0,0.11645212073195621
3056.0,0.11628179803604044
3055.0,0.11611154211151953
3054.0,0.11605480496572018
3053.0,0.11611154211151953
3052.0,0.11611154211151953
3051.0,0.11611154211151953
3050.0,0.11611154211151953
3049.0,0.11605480496572018
3048.0,0.11599807523121286
3047.0,0.11594135290606156
3046.0,0.11582793047608719
3045.0,0.11565785235294102
3044.0,0.11554450392951199
3043.0,0.11543118508166672
3042.0,0.11531789579397489
3041.0,0.11520463605101905
3040.0,0.11509140583739286
3039.0,0.11503480179926728
3038.0,0.1149782051377024
3037.0,0.1149782051377024
3036.0,0.114865033936566
3035.0,0.11475189221861393
3034.0,0.11458223488906394
3033.0,0.11446916681190777
3032.0,0.11441264381034388
3031.0,0.11435612816423602
3030.0,0.11435612816423602
3029.0,0.11435612816423602
3028.0,0.11435612816423602
3027.0,0.11424311893073247
3026.0,0.1141301390960936
3025.0,0.11401718864502697
3024.0,0.1138478180292033
3023.0,0.1137349409702435
3022.0,0.11367851344052027
3021.0,0.1136220932414278
3020.0,0.11356568037106163
3019.0,0.11345287660889425
3018.0,0.11328372588352176
3017.0,0.11305829401658474
3016.0,0.1128329791052256
3015.0,0.11266406960083297
3014.0,0.11260778102815316
3013.0,0.1125514997500463
3012.0,0.11249522576462212
3011.0,0.11238269966426384
3010.0,0.11227020271196975
3009.0,0.11221396516162851
3008.0,0.11221396516162851
3007.0,0.11215773489264302
3006.0,0.11210151190312767
3005.0,0.11198908775497118
3004.0,0.11187669270209155
3003.0,0.1117081546434846
3002.0,0.11159583226295333
3001.0,0.11153968196461372
3000.0,0.11153968196461372
2999.0,0.11142740314240007
2998.0,0.11137127461477392
2997.0,0.11131515334030118
2996.0,0.11125903931710734
2995.0,0.11125903931710734
2994.0,0.11125903931710734
2993.0,0.11120293254331926
2992.0,0.11120293254331926
2991.0,0.11120293254331926
2990.0,0.11131515334030118
2989.0,0.11153968196461372
2988.0,0.11176432672943282
2987.0,0.1120452961911984
2986.0,0.11238269966426384
2985.0,0.11272036546997688
2984.0,0.11305829401658474
2983.0,0.11345287660889425
2982.0,0.11401718864502697
2981.0,0.11475189221861393
2980.0,0.1157145376603248
2979.0,0.116736140415026
2978.0,0.11793105556385153
2977.0,0.11930071078129845
2976.0,0.12101887660626365
2975.0,0.12308968865537295
2974.0,0.12551818230053358
2973.0,0.1283103343144847
2972.0,0.13159069668503998
2971.0,0.1352516643703412
2970.0,0.13936258322624528
2969.0,0.1438755557576996
2968.0,0.14874165128092476
2967.0,0.15397232463562127
2966.0,0.159517512786558
2965.0,0.16532502553725603
2964.0,0.1712756728612086
2963.0,0.17704775945251838
2962.0,0.18223636771963214
2961.0,0.1866191932661443
2960.0,0.19017103893211385
2959.0,0.1930742231162681
2958.0,0.19592875111433883
2957.0,0.1990768181867817
2956.0,0.20294030530002893
2955.0,0.20774842809673588
2954.0,0.21367456560992992
2953.0,0.22047565667521019
2952.0,0.22767829327708022
2951.0,0.23462951970835144
2950.0,0.24033215531036944
2949.0,0.24382048315619098
2948.0,0.2445062715848807
2947.0,0.24214865631442017
2946.0,0.23679669962922834
2945.0,0.22922160383085233
2944.0,0.22025924882325953
2943.0,0.21105427297625234
2942.0,0.20245548563827365
2941.0,0.19511125537760865
2940.0,0.18916284885951162
2939.0,0.1847544080834369
2938.0,0.1818401136028147
2937.0,0.18039026724841478
2936.0,0.18039026724841478
2935.0,0.18164212204164532
2934.0,0.18422307970163732
2933.0,0.1878891587969005
2932.0,0.19266796070880954
2931.0,0.19845909380968174
2930.0,0.20502425594886842
2929.0,0.2121146490590755
2928.0,0.2193946941610303
2927.0,0.2267988576436557
2926.0,0.23395913961861092
2925.0,0.24086118371883347
2924.0,0.24779784682347894
2923.0,0.2548471049230996
2922.0,0.2620920766253614
2921.0,0.2695407399542311
2920.0,0.27695500835655484
2919.0,0.283829652140146
2918.0,0.2896287357392373
2917.0,0.2937944581180294
2916.0,0.29593532059143257
2915.0,0.29576366269121235
2914.0,0.29362364416030995
2913.0,0.2901366825596008
2912.0,0.28583795390114686
2911.0,0.28133226468378925
2910.0,0.27687284120430844
2909.0,0.27270279719641266
2908.0,0.2689756201843121
2907.0,0.26552021057442277
2906.0,0.2620920766253614
2905.0,0.2585332382302452
2904.0,0.2548471049230996
2903.0,0.2509597312965428
2902.0,0.24695343837347083
2901.0,0.24283180778572744
2900.0,0.23874892569133732
2899.0,0.23477863369501928
2898.0,0.23091821288178105
2897.0,0.22716507276098175
2896.0,0.22373478173189043
2895.0,0.2206199885083442
2894.0,0.2178141335079835
2893.0,0.21538270736712462
2892.0,0.21339052735134012
2891.0,0.21183162885883222
2890.0,0.21063084640851826
2889.0,0.20985563495709947
2888.0,0.20943337485392344
2887.0,0.2092927126723203
2886.0,0.20943337485392344
2885.0,0.20985563495709947
2884.0,0.2104897959097456
2883.0,0.21147811277752715
2882.0,0.21282300752944616
2881.0,0.21452779669361166
2880.0,0.2166682371125761
2879.0,0.21889116427053357
2878.0,0.22083657623550135
2877.0,0.22221081256513253
2876.0,0.2229358452575705
2875.0,0.22300841514359493
2874.0,0.2228632874958274
2873.0,0.22279074185431513
2872.0,0.2230809971579535
2871.0,0.22395292881822026
2870.0,0.22533707746217768
2869.0,0.22716507276098175
2868.0,0.22914798835785577
2867.0,0.23091821288178105
2866.0,0.23180603836692848
2865.0,0.23113999915704286
2864.0,0.22855951336008817
2863.0,0.2243167509739561
2862.0,0.2187474057515435
2861.0,0.21268124337545258
2860.0,0.20662875108104428
2859.0,0.20107326142279858
2858.0,0.19633807676377568
2857.0,0.19239733008350535
2856.0,0.18922998876563635
2855.0,0.18668594105416525
2854.0,0.18468795647564096
2853.0,0.1832285876666535
2852.0,0.18230244523697592
2851.0,0.18190613085336405
2850.0,0.18203819546800593
2849.0,0.18269912160667867
2848.0,0.18395765907800343
2847.0,0.18588564387087447
2846.0,0.1885590563258419
2845.0,0.1919917000896001
2844.0,0.1960651501361581
2843.0,0.20072839165012724
2842.0,0.20586064423222616
2841.0,0.21126614117229248
2840.0,0.21659671887743648
2839.0,0.22127007600388815
2838.0,0.22475374025976347
2837.0,0.22665245801917688
2836.0,0.22657927670938993
2835.0,0.22453519065426075
2834.0,0.22083657623550135
2833.0,0.2159535841918867
2832.0,0.2104897959097456
2831.0,0.20488501436963658
2830.0,0.19962664510865036
2829.0,0.19497515557019485
2828.0,0.1910467008440888
2827.0,0.18782222584124608
2826.0,0.1850203162392432
2825.0,0.18256685588861554
2824.0,0.18039026724841478
2823.0,0.1784864715952268
2822.0,0.17685194018930606
2821.0,0.1754186237665174
2820.0,0.17418455501479646
2819.0,0.17314805217935603
2818.0,0.1721140172101443
2817.0,0.1711468403233598
2816.0,0.17024608107502504
2815.0,0.16941133131485575
2814.0,0.16870625562299035
2813.0,0.16806626953325465
2812.0,0.16742722515382025
2811.0,0.1667891197173912
2810.0,0.166151950468852
2809.0,0.16557929631846746
2808.0,0.16507090353942422
2807.0,0.16456310519814177
2806.0,0.16399254087446846
2805.0,0.163359458427226
2804.0,0.16266413198498508
2803.0,0.16196991701467978
2802.0,0.16127680996862814
2801.0,0.16077342598656452
2800.0,0.1603334431175667
2799.0,0.15989390554324223
2798.0,0.15945481236316117
2797.0,0.15901616267962204
2796.0,0.15857795559764076
2795.0,0.15826522102525642
2794.0,0.15789023655938994
2793.0,0.15751557558842988
2792.0,0.15714123755470633
2791.0,0.15676722190199066
2790.0,0.15645578805436489
2789.0,0.1562068016740874
2788.0,0.15589576930248672
2787.0,0.15558495952617557
2786.0,0.15521228117215347
2785.0,0.1548399223480541
2784.0,0.15440590683997568
2783.0,0.15403423845451636
2782.0,0.15372475758778692
2781.0,0.15347733158371324
2780.0,0.1532918545439932
2779.0,0.15304467498017615
2778.0,0.15285938258659382
2777.0,0.15261244897260462
2776.0,0.1523039792658345
2775.0,0.1519957285027318
2774.0,0.1517492853229574
2773.0,0.1515029819096334
2772.0,0.1513798825658661
2771.0,0.15119529894819617
2770.0,0.15107228677292173
2769.0,0.1509493094304879
2768.0,0.15082636690117335
2767.0,0.1507034591652734
2766.0,0.15058058620310066
2765.0,0.15045774799498335
2764.0,0.1503963419175529
2763.0,0.15033494452126717
2762.0,0.15027355580367208
2761.0,0.1502121757623145
2760.0,0.1500894416985039
2759.0,0.15002808767114995
2758.0,0.14990540561329913
2757.0,0.14978275820161047
2756.0,0.14953756723848333
2755.0,0.14929251462546267
2754.0,0.14898639317633
2753.0,0.14874165128092476
2752.0,0.14855818532794496
2751.0,0.14843591773651155
2750.0,0.14837479684669086
2749.0,0.14837479684669086
2748.0,0.14837479684669086
2747.0,0.14837479684669086
2746.0,0.14831368455757254
2745.0,0.1482525808667361
2744.0,0.14819148577176255
2743.0,0.14819148577176255
2742.0,0.14813039927023364
2741.0,0.1480693213597324
2740.0,0.14800825203784274
2739.0,0.1479471913021495
2738.0,0.14800825203784274
2737.0,0.1480693213597324
2736.0,0.14813039927023364
2735.0,0.1482525808667361
2734.0,0.14837479684669086
2733.0,0.14843591773651155
2732.0,0.14843591773651155
2731.0,0.14849704722945534
2730.0,0.14855818532794496
2729.0,0.14868048735125483
2728.0,0.1489251947711132
2727.0,0.14917004015146906
2726.0,0.1494762911210057
2725.0,0.1497214474819628
2724.0,0.14990540561329913
2723.0,0.15002808767114995
2722.0,0.1502121757623145
2721.0,0.15033494452126717
2720.0,0.15033494452126717
2719.0,0.15015080439474215
2718.0,0.14984407757790774
2717.0,0.1495988520028415
2716.0,0.14929251462546267
2715.0,0.14898639317633
2714.0,0.14868048735125483
2713.0,0.14843591773651155
2712.0,0.1482525808667361
2711.0,0.1480693213597324
2710.0,0.1478861391502384
2709.0,0.14776406058811253
2708.0,0.1477030341730745
2707.0,0.14764201633217278
2706.0,0.1475810070629986
2705.0,0.14752000636314366
2704.0,0.14733705565543076
2703.0,0.1471541819850033
2702.0,0.14697138528701026
2701.0,0.146788665496683
2700.0,0.14666689499766483
2699.0,0.1466060225493342
2698.0,0.1465451586319333
2697.0,0.14648430324307138
2696.0,0.14642345638035836
2695.0,0.1463626180414057
2694.0,0.14630178822382556
2693.0,0.14618015414323682
2692.0,0.14605855411951008
2691.0,0.1459369881335788
2690.0,0.14581545616639335
2689.0,0.14575470293388149
2688.0,0.14587621789883287
2687.0,0.14599776687301103
2686.0,0.1461193498754576
2685.0,0.14618015414323682
2684.0,0.14605855411951008
2683.0,0.1459369881335788
2682.0,0.14575470293388149
2681.0,0.1456332219591303
2680.0,0.1456939581989194
2679.0,0.14575470293388149
2678.0,0.14581545616639335
2677.0,0.14581545616639335
2676.0,0.14581545616639335
2675.0,0.14575470293388149
2674.0,0.1456939581989194
2673.0,0.1455724942121388
2672.0,0.14545106418704923
2671.0,0.14539036190420496
2670.0,0.14539036190420496
2669.0,0.14545106418704923
2668.0,0.14545106418704923
2667.0,0.14551177495556966
2666.0,0.1455724942121388
2665.0,0.1456332219591303
2664.0,0.1456939581989194
2663.0,0.1455724942121388
2662.0,0.14545106418704923
2661.0,0.14539036190420496
2660.0,0.14532966810466452
2659.0,0.14532966810466452
2658.0,0.14526898278605782
2657.0,0.14532966810466452
2656.0,0.14532966810466452
2655.0,0.14539036190420496
2654.0,0.14539036190420496
2653.0,0.14532966810466452
2652.0,0.14526898278605782
2651.0,0.14520830594601453
2650.0,0.14514763758216587
2649.0,0.1450869776921444
2648.0,0.14496568332411575
2647.0,0.14490504884137811
2646.0,0.14484442282300614
2645.0,0.1447838052666366
2644.0,0.1447838052666366
2643.0,0.14472319616990825
2642.0,0.14466259553045968
2641.0,0.1446020033459312
2640.0,0.14454141961396383
2639.0,0.14454141961396383
2638.0,0.1446020033459312
2637.0,0.14472319616990825
2636.0,0.14472319616990825
2635.0,0.1446020033459312
2634.0,0.14442027749828212
2633.0,0.14435971910985468
2632.0,0.14435971910985468
2631.0,0.14435971910985468
2630.0,0.14442027749828212
2629.0,0.14442027749828212
2628.0,0.14442027749828212
2627.0,0.14442027749828212
2626.0,0.14435971910985468
2625.0,0.14435971910985468
2624.0,0.14442027749828212
2623.0,0.14454141961396383
2622.0,0.14466259553045968
2621.0,0.1447838052666366
2620.0,0.1447838052666366
2619.0,0.1447838052666366
2618.0,0.14472319616990825
2617.0,0.14472319616990825
2616.0,0.1447838052666366
2615.0,0.1447838052666366
2614.0,0.14484442282300614
2613.0,0.14484442282300614
2612.0,0.14490504884137811
2611.0,0.14490504884137811
2610.0,0.14496568332411575
2609.0,0.14502632627358292
2608.0,0.14496568332411575
2607.0,0.14484442282300614
2606.0,0.14454141961396383
2605.0,0.14423862766005224
2604.0,0.143996546002779
2603.0,0.14393604666690019
2602.0,0.143996546002779
2601.0,0.14405705376768396
2600.0,0.14417809459397013
2599.0,0.14423862766005224
2598.0,0.14423862766005224
2597.0,0.14417809459397013
2596.0,0.14417809459397013
2595.0,0.14417809459397013
2594.0,0.1441175699639643
2593.0,0.14405705376768396
2592.0,0.143996546002779
2591.0,0.14393604666690019
2590.0,0.14405705376768396
2589.0,0.14423862766005224
2588.0,0.14442027749828212
2587.0,0.14454141961396383
2586.0,0.14466259553045968
2585.0,0.1447838052666366
2584.0,0.14496568332411575
2583.0,0.14514763758216587
2582.0,0.14526898278605782
2581.0,0.14526898278605782
2580.0,0.14526898278605782
2579.0,0.14526898278605782
2578.0,0.14520830594601453
2577.0,0.14520830594601453
2576.0,0.1450869776921444
2575.0,0.14496568332411575
2574.0,0.14484442282300614
2573.0,0.14472319616990825
2572.0,0.14466259553045968
2571.0,0.14466259553045968
2570.0,0.14466259553045968
2569.0,0.14466259553045968
2568.0,0.1446020033459312
2567.0,0.14448084433219988
2566.0,0.14435971910985468
2565.0,0.14423862766005224
2564.0,0.14423862766005224
2563.0,0.14423862766005224
2562.0,0.14423862766005224
2561.0,0.14423862766005224
2560.0,0.14429916916456276
2559.0,0.14429916916456276
2558.0,0.14435971910985468
2557.0,0.14435971910985468
2556.0,0.14435971910985468
2555.0,0.14435971910985468
2554.0,0.14435971910985468
2553.0,0.14429916916456276
2552.0,0.14429916916456276
2551.0,0.14423862766005224
2550.0,0.14423862766005224
2549.0,0.14417809459397013
2548.0,0.1441175699639643
2547.0,0.143996546002779
2546.0,0.14393604666690019
2545.0,0.1438755557576996
2544.0,0.1438755557576996
2543.0,0.14393604666690019
2542.0,0.14393604666690019
2541.0,0.143996546002779
2540.0,0.14405705376768396
2539.0,0.14405705376768396
2538.0,0.14405705376768396
2537.0,0.143996546002779
2536.0,0.143996546002779
2535.0,0.14405705376768396
2534.0,0.1441175699639643
2533.0,0.14405705376768396
2532.0,0.143996546002779
2531.0,0.1438755557576996
2530.0,0.14381507327283027
2529.0,0.14381507327283027
2528.0,0.14375459920994582
2527.0,0.14375459920994582
2526.0,0.14375459920994582
2525.0,0.14381507327283027
2524.0,0.14393604666690019
2523.0,0.143996546002779
2522.0,0.143996546002779
2521.0,0.143996546002779
2520.0,0.143996546002779
2519.0,0.14393604666690019
2518.0,0.14393604666690019
2517.0,0.143996546002779
2516.0,0.1441175699639643
2515.0,0.1441175699639643
2514.0,0.1441175699639643
2513.0,0.1441175699639643
2512.0,0.1441175699639643
2511.0,0.14405705376768396
2510.0,0.143996546002779
2509.0,0.1438755557576996
2508.0,0.14381507327283027
2507.0,0.14375459920994582
2506.0,0.14375459920994582
2505.0,0.14369413356670102
2504.0,0.14369413356670102
2503.0,0.14363367634075197
2502.0,0.14357322752975565
2501.0,0.14363367634075197
2500.0,0.14369413356670102
2499.0,0.14375459920994582
2498.0,0.14381507327283027
2497.0,0.1438755557576996
2496.0,0.1438755557576996
2495.0,0.14381507327283027
2494.0,0.14375459920994582
2493.0,0.14369413356670102
2492.0,0.14363367634075197
2491.0,0.14357322752975565
2490.0,0.14351278713136928
2489.0,0.14351278713136928
2488.0,0.14363367634075197
2487.0,0.14381507327283027
2486.0,0.143996546002779
2485.0,0.1441175699639643
2484.0,0.1441175699639643
2483.0,0.14405705376768396
2482.0,0.14393604666690019
2481.0,0.1438755557576996
2480.0,0.1438755557576996
2479.0,0.1438755557576996
2478.0,0.14393604666690019
2477.0,0.14393604666690019
2476.0,0.14393604666690019
2475.0,0.14393604666690019
2474.0,0.1438755557576996
2473.0,0.14393604666690019
2472.0,0.143996546002779
2471.0,0.1441175699639643
2470.0,0.14417809459397013
2469.0,0.14417809459397013
2468.0,0.14417809459397013
2467.0,0.1441175699639643
2466.0,0.1441175699639643
2465.0,0.14417809459397013
2464.0,0.14429916916456276
2463.0,0.14435971910985468
2462.0,0.14435971910985468
2461.0,0.14435971910985468
2460.0,0.14435971910985468
2459.0,0.14435971910985468
2458.0,0.14435971910985468
2457.0,0.14429916916456276
2456.0,0.14429916916456276
2455.0,0.14429916916456276
2454.0,0.14429916916456276
2453.0,0.14435971910985468
2452.0,0.14435971910985468
2451.0,0.14442027749828212
2450.0,0.14442027749828212
2449.0,0.14442027749828212
2448.0,0.14448084433219988
2447.0,0.14454141961396383
2446.0,0.1446020033459312
2445.0,0.14466259553045968
2444.0,0.14466259553045968
2443.0,0.14466259553045968
2442.0,0.14466259553045968
2441.0,0.1446020033459312
2440.0,0.1446020033459312
2439.0,0.1446020033459312
2438.0,0.1446020033459312
2437.0,0.1446020033459312
2436.0,0.14466259553045968
2435.0,0.14466259553045968
2434.0,0.1446020033459312
2433.0,0.1446020033459312
2432.0,0.14454141961396383
2431.0,0.14454141961396383
2430.0,0.1446020033459312
2429.0,0.14466259553045968
2428.0,0.1447838052666366
2427.0,0.14484442282300614
2426.0,0.14490504884137811
2425.0,0.14496568332411575
2424.0,0.14496568332411575
2423.0,0.14496568332411575
2422.0,0.14496568332411575
2421.0,0.14502632627358292
2420.0,0.14514763758216587
2419.0,0.14520830594601453
2418.0,0.14526898278605782
2417.0,0.14520830594601453
2416.0,0.14514763758216587
2415.0,0.14520830594601453
2414.0,0.14520830594601453
2413.0,0.14526898278605782
2412.0,0.14532966810466452
2411.0,0.14539036190420496
2410.0,0.14539036190420496
2409.0,0.14539036190420496
2408.0,0.14532966810466452
2407.0,0.14532966810466452
2406.0,0.14539036190420496
2405.0,0.14545106418704923
2404.0,0.14545106418704923
2403.0,0.14545106418704923
2402.0,0.14545106418704923
2401.0,0.14539036190420496
2400.0,0.14539036190420496
2399.0,0.14539036190420496
2398.0,0.14539036190420496
2397.0,0.14532966810466452
2396.0,0.14539036190420496
2395.0,0.14539036190420496
2394.0,0.14545106418704923
2393.0,0.14545106418704923
2392.0,0.14551177495556966
2391.0,0.14551177495556966
2390.0,0.14545106418704923
2389.0,0.14551177495556966
2388.0,0.1456332219591303
2387.0,0.14581545616639335
2386.0,0.14605855411951008
2385.0,0.14630178822382556
2384.0,0.14642345638035836
2383.0,0.14648430324307138
2382.0,0.1463626180414057
2381.0,0.14599776687301103
2380.0,0.14551177495556966
2379.0,0.14502632627358292
2378.0,0.14466259553045968
2377.0,0.14454141961396383
2376.0,0.14466259553045968
2375.0,0.14502632627358292
2374.0,0.14545106418704923
2373.0,0.14581545616639335
2372.0,0.14605855411951008
2371.0,0.14605855411951008
2370.0,0.1459369881335788
2369.0,0.14599776687301103
2368.0,0.14630178822382556
2367.0,0.14666689499766483
2366.0,0.14672777597931685
2365.0,0.14648430324307138
2364.0,0.14630178822382556
2363.0,0.1463626180414057
2362.0,0.14630178822382556
2361.0,0.14581545616639335
2360.0,0.14545106418704923
2359.0,0.14587621789883287
2358.0,0.14697138528701026
2357.0,0.14776406058811253
2356.0,0.1475810070629986
2355.0,0.14691047014813452
2354.0,0.1463626180414057
2353.0,0.14599776687301103
2352.0,0.1459369881335788
2351.0,0.14642345638035836
2350.0,0.14739803066176504
2349.0,0.1479471913021495
2348.0,0.14752000636314366
2347.0,0.1463626180414057
2346.0,0.14551177495556966
2345.0,0.14599776687301103
2344.0,0.14733705565543076
2343.0,0.14819148577176255
2342.0,0.1480693213597324
2341.0,0.14733705565543076
2340.0,0.14642345638035836
2339.0,0.14581545616639335
2338.0,0.14526898278605782
2337.0,0.1447838052666366
2336.0,0.14466259553045968
2335.0,0.14490504884137811
2334.0,0.14514763758216587
2333.0,0.14496568332411575
2332.0,0.14448084433219988
2331.0,0.14448084433219988
2330.0,0.14520830594601453
2329.0,0.1463626180414057
2328.0,0.1472760892087941
2327.0,0.14764201633217278
2326.0,0.14752000636314366
2325.0,0.14684956355215717
2324.0,0.14599776687301103
2323.0,0.14520830594601453
2322.0,0.14490504884137811
2321.0,0.1450869776921444
2320.0,0.1456939581989194
2319.0,0.14642345638035836
2318.0,0.1471541819850033
2317.0,0.14764201633217278
2316.0,0.14776406058811253
2315.0,0.1475810070629986
2314.0,0.14733705565543076
2313.0,0.1471541819850033
2312.0,0.1471541819850033
2311.0,0.14733705565543076
2310.0,0.14752000636314366
2309.0,0.14764201633217278
2308.0,0.14764201633217278
2307.0,0.1475810070629986
2306.0,0.14745901423020125
2305.0,0.14745901423020125
2304.0,0.14752000636314366
2303.0,0.1477030341730745
2302.0,0.1479471913021495
2301.0,0.14813039927023364
2300.0,0.14831368455757254
2299.0,0.14837479684669086
2298.0,0.14831368455757254
2297.0,0.14831368455757254
2296.0,0.1482525808667361
2295.0,0.14813039927023364
2294.0,0.14813039927023364
2293.0,0.14813039927023364
2292.0,0.14813039927023364
2291.0,0.14813039927023364
2290.0,0.14800825203784274
2289.0,0.1478861391502384
2288.0,0.14782509557969692
2287.0,0.14782509557969692
2286.0,0.14782509557969692
2285.0,0.14782509557969692
2284.0,0.14782509557969692
2283.0,0.14782509557969692
2282.0,0.1478861391502384
2281.0,0.1479471913021495
2280.0,0.1479471913021495
2279.0,0.14800825203784274
2278.0,0.1479471913021495
2277.0,0.14800825203784274
2276.0,0.14800825203784274
2275.0,0.1480693213597324
2274.0,0.14813039927023364
2273.0,0.14813039927023364
2272.0,0.1480693213597324
2271.0,0.1480693213597324
2270.0,0.1480693213597324
2269.0,0.14819148577176255
2268.0,0.14831368455757254
2267.0,0.14837479684669086
2266.0,0.14837479684669086
2265.0,0.14837479684669086
2264.0,0.14831368455757254
2263.0,0.14813039927023364
2262.0,0.14800825203784274
2261.0,0.1479471913021495
2260.0,0.14800825203784274
2259.0,0.14819148577176255
2258.0,0.14837479684669086
2257.0,0.14849704722945534
2256.0,0.14861933203440336
2255.0,0.14868048735125483
2254.0,0.14868048735125483
2253.0,0.14868048735125483
2252.0,0.14855818532794496
2251.0,0.14849704722945534
2250.0,0.14843591773651155
2249.0,0.14837479684669086
2248.0,0.14843591773651155
2247.0,0.14849704722945534
2246.0,0.14855818532794496
2245.0,0.14855818532794496
2244.0,0.14855818532794496
2243.0,0.14849704722945534
2242.0,0.14837479684669086
2241.0,0.14831368455757254
2240.0,0.14831368455757254
2239.0,0.14837479684669086
2238.0,0.14849704722945534
2237.0,0.14855818532794496
2236.0,0.14868048735125483
2235.0,0.14874165128092476
2234.0,0.14874165128092476
2233.0,0.14874165128092476
2232.0,0.14868048735125483
2231.0,0.14868048735125483
2230.0,0.14868048735125483
2229.0,0.14880282382583943
2228.0,0.148864004988426
2227.0,0.14898639317633
2226.0,0.1491088158640761
2225.0,0.1491088158640761
2224.0,0.1491088158640761
2223.0,0.1490476002065071
2222.0,0.14898639317633
2221.0,0.1489251947711132
2220.0,0.1489251947711132
2219.0,0.1489251947711132
2218.0,0.1489251947711132
2217.0,0.1489251947711132
2216.0,0.14898639317633
2215.0,0.14898639317633
2214.0,0.14898639317633
2213.0,0.14898639317633
2212.0,0.14898639317633
2211.0,0.14898639317633
2210.0,0.1490476002065071
2209.0,0.1490476002065071
2208.0,0.1490476002065071
2207.0,0.14898639317633
2206.0,0.14898639317633
2205.0,0.1490476002065071
2204.0,0.14917004015146906
2203.0,0.14923127307111983
2202.0,0.14929251462546267
2201.0,0.1493537648169334
2200.0,0.14941502364796855
2199.0,0.1494762911210057
2198.0,0.14953756723848333
2197.0,0.1494762911210057
2196.0,0.14941502364796855
2195.0,0.14941502364796855
2194.0,0.14941502364796855
2193.0,0.1494762911210057
2192.0,0.1494762911210057
2191.0,0.1494762911210057
2190.0,0.14941502364796855
2189.0,0.14941502364796855
2188.0,0.1493537648169334
2187.0,0.1493537648169334
2186.0,0.14929251462546267
2185.0,0.1493537648169334
2184.0,0.14941502364796855
2183.0,0.14953756723848333
2182.0,0.14966014541652073
2181.0,0.14978275820161047
2180.0,0.14978275820161047
2179.0,0.14978275820161047
2178.0,0.14984407757790774
2177.0,0.14984407757790774
2176.0,0.14990540561329913
2175.0,0.14990540561329913
2174.0,0.1499667423102311
2173.0,0.15002808767114995
2172.0,0.15002808767114995
2171.0,0.15002808767114995
2170.0,0.15002808767114995
2169.0,0.15002808767114995
2168.0,0.15002808767114995
2167.0,0.1500894416985039
2166.0,0.15015080439474215
2165.0,0.1502121757623145
2164.0,0.1502121757623145
2163.0,0.15027355580367208
2162.0,0.15027355580367208
2161.0,0.15033494452126717
2160.0,0.15027355580367208
2159.0,0.1502121757623145
2158.0,0.15015080439474215
2157.0,0.1500894416985039
2156.0,0.1500894416985039
2155.0,0.1500894416985039
2154.0,0.15015080439474215
2153.0,0.1502121757623145
2152.0,0.15027355580367208
2151.0,0.15033494452126717
2150.0,0.15033494452126717
2149.0,0.1503963419175529
2148.0,0.15045774799498335
2147.0,0.15051916275601385
2146.0,0.15045774799498335
2145.0,0.15033494452126717
2144.0,0.15027355580367208
2143.0,0.1502121757623145
2142.0,0.1502121757623145
2141.0,0.15027355580367208
2140.0,0.15033494452126717
2139.0,0.1503963419175529
2138.0,0.1503963419175529
2137.0,0.1503963419175529
2136.0,0.1503963419175529
2135.0,0.15033494452126717
2134.0,0.15033494452126717
2133.0,0.1503963419175529
2132.0,0.15045774799498335
2131.0,0.15051916275601385
2130.0,0.15064201833870117
2129.0,0.1507034591652734
2128.0,0.15076490868527737
2127.0,0.15076490868527737
2126.0,0.15076490868527737
2125.0,0.1507034591652734
2124.0,0.1507034591652734
2123.0,0.1507034591652734
2122.0,0.1507034591652734
2121.0,0.1507034591652734
2120.0,0.15076490868527737
2119.0,0.1507034591652734
2118.0,0.1507034591652734
2117.0,0.15076490868527737
2116.0,0.15076490868527737
2115.0,0.1507034591652734
2114.0,0.15064201833870117
2113.0,0.15058058620310066
2112.0,0.15064201833870117
2111.0,0.15076490868527737
2110.0,0.15082636690117335
2109.0,0.15082636690117335
2108.0,0.15082636690117335
2107.0,0.15082636690117335
2106.0,0.15082636690117335
2105.0,0.15076490868527737
2104.0,0.15076490868527737
2103.0,0.15076490868527737
2102.0,0.15082636690117335
2101.0,0.1509493094304879
2100.0,0.15101079374883275
2099.0,0.15113378850522063
2098.0,0.15119529894819617
2097.0,0.15119529894819617
2096.0,0.15113378850522063
2095.0,0.15107228677292173
2094.0,0.15107228677292173
2093.0,0.15101079374883275
2092.0,0.15101079374883275
2091.0,0.1509493094304879
2090.0,0.1509493094304879
2089.0,0.1509493094304879
2088.0,0.15101079374883275
2087.0,0.15113378850522063
2086.0,0.15113378850522063
2085.0,0.15119529894819617
2084.0,0.15119529894819617
2083.0,0.15119529894819617
2082.0,0.15125681810431635
2081.0,0.15125681810431635
2080.0,0.15125681810431635
2079.0,0.15125681810431635
2078.0,0.15119529894819617
2077.0,0.15119529894819617
2076.0,0.15119529894819617
2075.0,0.15119529894819617
2074.0,0.15125681810431635
2073.0,0.15125681810431635
2072.0,0.15131834597604965
2071.0,0.15131834597604965
2070.0,0.15125681810431635
2069.0,0.15119529894819617
2068.0,0.15119529894819617
2067.0,0.15125681810431635
2066.0,0.15131834597604965
2065.0,0.1513798825658661
2064.0,0.1513798825658661
2063.0,0.1513798825658661
2062.0,0.15131834597604965
2061.0,0.15131834597604965
2060.0,0.15131834597604965
2059.0,0.15125681810431635
2058.0,0.15107228677292173
2057.0,0.1509493094304879
2056.0,0.15101079374883275
2055.0,0.15119529894819617
2054.0,0.1513798825658661
2053.0,0.1515029819096334
2052.0,0.1515645446685292
2051.0,0.1515645446685292
2050.0,0.1515029819096334
2049.0,0.1515029819096334
2048.0,0.1515029819096334
2047.0,0.1515029819096334
2046.0,0.1515029819096334
2045.0,0.1515029819096334
2044.0,0.1515029819096334
2043.0,0.1515029819096334
2042.0,0.1515645446685292
2041.0,0.15162611615539823
2040.0,0.15168769637271562
2039.0,0.1517492853229574
2038.0,0.1517492853229574
2037.0,0.15168769637271562
2036.0,0.15168769637271562
2035.0,0.15162611615539823
2034.0,0.15162611615539823
2033.0,0.15162611615539823
2032.0,0.15168769637271562
2031.0,0.15168769637271562
2030.0,0.15168769637271562
2029.0,0.15168769637271562
2028.0,0.15168769637271562
2027.0,0.1517492853229574
2026.0,0.1517492853229574
2025.0,0.15181088300860135
2024.0,0.15181088300860135
2023.0,0.1517492853229574
2022.0,0.15168769637271562
2021.0,0.1517492853229574
2020.0,0.15187248943212528
2019.0,0.15205736115477642
2018.0,0.15218065270476067
2017.0,0.15218065270476067
2016.0,0.15211900255462485
2015.0,0.15205736115477642
2014.0,0.15193410459600853
2013.0,0.15187248943212528
2012.0,0.15181088300860135
2011.0,0.1517492853229574
2010.0,0.15181088300860135
2009.0,0.15193410459600853
2008.0,0.15205736115477642
2007.0,0.15218065270476067
2006.0,0.15218065270476067
2005.0,0.15211900255462485
2004.0,0.15211900255462485
2003.0,0.15211900255462485
2002.0,0.15211900255462485
2001.0,0.15211900255462485
2000.0,0.15211900255462485
1999.0,0.15211900255462485
1998.0,0.15218065270476067
1997.0,0.15224231160766877
1996.0,0.1523039792658345
1995.0,0.1523039792658345
1994.0,0.15236565568174498
1993.0,0.15236565568174498
1992.0,0.15242734085788778
1991.0,0.15242734085788778
1990.0,0.1524890347967518
1989.0,0.1524890347967518
1988.0,0.15255073750082726
1987.0,0.15255073750082726
1986.0,0.15261244897260462
1985.0,0.15261244897260462
1984.0,0.15255073750082726
1983.0,0.1524890347967518
1982.0,0.15236565568174498
1981.0,0.1523039792658345
1980.0,0.1523039792658345
1979.0,0.15242734085788778
1978.0,0.15255073750082726
1977.0,0.15267416921457633
1976.0,0.15267416921457633
1975.0,0.15267416921457633
1974.0,0.15267416921457633
1973.0,0.15267416921457633
1972.0,0.15261244897260462
1971.0,0.15255073750082726
1970.0,0.15255073750082726
1969.0,0.15255073750082726
1968.0,0.15261244897260462
1967.0,0.15261244897260462
1966.0,0.15267416921457633
1965.0,0.1527358982292355
1964.0,0.15285938258659382
1963.0,0.15292113793428452
1962.0,0.15292113793428452
1961.0,0.15292113793428452
1960.0,0.15292113793428452
1959.0,0.15292113793428452
1958.0,0.15292113793428452
1957.0,0.15298290206464582
1956.0,0.15310645668337486
1955.0,0.1531682471767426
1954.0,0.15323004646278116
1953.0,0.1532918545439932
1952.0,0.15335367142288248
1951.0,0.1532918545439932
1950.0,0.1532918545439932
1949.0,0.15335367142288248
1948.0,0.1534154971019539
1947.0,0.15347733158371324
1946.0,0.1535391748706676
1945.0,0.15347733158371324
1944.0,0.1535391748706676
1943.0,0.15360102696532518
1942.0,0.15366288787019466
1941.0,0.15366288787019466
1940.0,0.15372475758778692
1939.0,0.15372475758778692
1938.0,0.15372475758778692
1937.0,0.15372475758778692
1936.0,0.1537866361206126
1935.0,0.1538485234711846
1934.0,0.1538485234711846
1933.0,0.1538485234711846
1932.0,0.1538485234711846
1931.0,0.1538485234711846
1930.0,0.15391041964201602
1929.0,0.15391041964201602
1928.0,0.15391041964201602
1927.0,0.15391041964201602
1926.0,0.15391041964201602
1925.0,0.15391041964201602
1924.0,0.1538485234711846
1923.0,0.1538485234711846
1922.0,0.1538485234711846
1921.0,0.15391041964201602
1920.0,0.15397232463562127
1919.0,0.15403423845451636
1918.0,0.15403423845451636
1917.0,0.1540961611012175
1916.0,0.15415809257824264
1915.0,0.1542200328881107
1914.0,0.15428198203334142
1913.0,0.15440590683997568
1912.0,0.15446788250642451
1911.0,0.1545918603782066
1910.0,0.1545918603782066
1909.0,0.15452986701832638
1908.0,0.15446788250642451
1907.0,0.15440590683997568
1906.0,0.15440590683997568
1905.0,0.15440590683997568
1904.0,0.15440590683997568
1903.0,0.15446788250642451
1902.0,0.15446788250642451
1901.0,0.15452986701832638
1900.0,0.15465386258859137
1899.0,0.15471587365200845
1898.0,0.15477789357098626
1897.0,0.15477789357098626
1896.0,0.1548399223480541
1895.0,0.15490195998574308
1894.0,0.15496400648658493
1893.0,0.15496400648658493
1892.0,0.15496400648658493
1891.0,0.15490195998574308
1890.0,0.15490195998574308
1889.0,0.1548399223480541
1888.0,0.15490195998574308
1887.0,0.15496400648658493
1886.0,0.15496400648658493
1885.0,0.15496400648658493
1884.0,0.1550260618531123
1883.0,0.15508812608785938
1882.0,0.15515019919336104
1881.0,0.15515019919336104
1880.0,0.15508812608785938
1879.0,0.15508812608785938
1878.0,0.15515019919336104
1877.0,0.15521228117215347
1876.0,0.15527437202677397
1875.0,0.15527437202677397
1874.0,0.15515019919336104
1873.0,0.15508812608785938
1872.0,0.15508812608785938
1871.0,0.15515019919336104
1870.0,0.15521228117215347
1869.0,0.15527437202677397
1868.0,0.15533647175976073
1867.0,0.15539858037365328
1866.0,0.15546069787099204
1865.0,0.15552282425431851
1864.0,0.15558495952617557
1863.0,0.15564710368910672
1862.0,0.15570925674565683
1861.0,0.15570925674565683
1860.0,0.15570925674565683
1859.0,0.15570925674565683
1858.0,0.15577141869837208
1857.0,0.15589576930248672
1856.0,0.15602015552184012
1855.0,0.1560823619936076
1854.0,0.1560823619936076
1853.0,0.15602015552184012
1852.0,0.1560823619936076
1851.0,0.15614457737683884
1850.0,0.1562068016740874
1849.0,0.1562690348879079
1848.0,0.1562690348879079
1847.0,0.1562690348879079
1846.0,0.1562690348879079
1845.0,0.1562690348879079
1844.0,0.15633127702085625
1843.0,0.15639352807548912
1842.0,0.15645578805436489
1841.0,0.15645578805436489
1840.0,0.15639352807548912
1839.0,0.15633127702085625
1838.0,0.15633127702085625
1837.0,0.15633127702085625
1836.0,0.15645578805436489
1835.0,0.1565803347950816
1834.0,0.15664262156204445
1833.0,0.1565803347950816
1832.0,0.15645578805436489
1831.0,0.15639352807548912
1830.0,0.15645578805436489
1829.0,0.1565803347950816
1828.0,0.15682953548010214
1827.0,0.15695418946543072
1826.0,0.15695418946543072
1825.0,0.15695418946543072
1824.0,0.15695418946543072
1823.0,0.15695418946543072
1822.0,0.15695418946543072
1821.0,0.15689185800039307
1820.0,0.15682953548010214
1819.0,0.15682953548010214
1818.0,0.15682953548010214
1817.0,0.15682953548010214
1816.0,0.15689185800039307
1815.0,0.15695418946543072
1814.0,0.15701652987778258
1813.0,0.15707887924001773
1812.0,0.15714123755470633
1811.0,0.15720360482441986
1810.0,0.15720360482441986
1809.0,0.15726598105173029
1808.0,0.15726598105173029
1807.0,0.15726598105173029
1806.0,0.15726598105173029
1805.0,0.15732836623921154
1804.0,0.157390760389438
1803.0,0.157390760389438
1802.0,0.157390760389438
1801.0,0.157390760389438
1800.0,0.157390760389438
1799.0,0.15751557558842988
1798.0,0.15757799664235028
1797.0,0.1576404266693252
1796.0,0.1576404266693252
1795.0,0.1576404266693252
1794.0,0.1576404266693252
1793.0,0.1576404266693252
1792.0,0.1577028656719348
1791.0,0.15782777061438424
1790.0,0.15789023655938994
1789.0,0.15795271149036205
1788.0,0.15801519540988607
1787.0,0.15795271149036205
1786.0,0.15789023655938994
1785.0,0.15789023655938994
1784.0,0.15789023655938994
1783.0,0.15795271149036205
1782.0,0.15801519540988607
1781.0,0.15807768832054925
1780.0,0.1582027011256446
1779.0,0.15826522102525642
1778.0,0.15826522102525642
1777.0,0.15826522102525642
1776.0,0.1582027011256446
1775.0,0.15814019022493886
1774.0,0.15807768832054925
1773.0,0.15801519540988607
1772.0,0.15814019022493886
1771.0,0.1583902878315646
1770.0,0.15870311250971825
1769.0,0.1588909155318461
1768.0,0.15895353459069628
1767.0,0.15895353459069628
1766.0,0.15895353459069628
1765.0,0.15895353459069628
1764.0,0.15895353459069628
1763.0,0.15895353459069628
1762.0,0.15895353459069628
1761.0,0.1590787998012282
1760.0,0.15920410115290617
1759.0,0.15926676538819318
1758.0,0.15920410115290617
1757.0,0.15926676538819318
1756.0,0.15932943866659088
1755.0,0.15939212099070987
1754.0,0.15945481236316117
1753.0,0.159517512786558
1752.0,0.15964294079664376
1751.0,0.15976840504189105
1750.0,0.159956669396506
1749.0,0.1600822243213189
1748.0,0.16020781555467067
1747.0,0.16020781555467067
1746.0,0.1602706247936121
1745.0,0.1603334431175667
1744.0,0.16045910703103106
1743.0,0.16064767110457878
1742.0,0.16083631708534996
1741.0,0.16102504504453208
1740.0,0.16115090926274478
1739.0,0.16127680996862814
1738.0,0.16133977401105848
1737.0,0.16146572948813143
1736.0,0.16165473122400909
1735.0,0.16178077809237412
1734.0,0.16159172150581314
1733.0,0.1614027471833437
1732.0,0.16127680996862814
1731.0,0.16133977401105848
1730.0,0.16133977401105848
1729.0,0.16133977401105848
1728.0,0.1614027471833437
1727.0,0.1614027471833437
1726.0,0.1614027471833437
1725.0,0.16146572948813143
1724.0,0.16152872092807113
1723.0,0.16171775008531153
1722.0,0.16178077809237412
1721.0,0.16178077809237412
1720.0,0.16171775008531153
1719.0,0.16165473122400909
1718.0,0.16159172150581314
1717.0,0.16178077809237412
1716.0,0.16203298163134527
1715.0,0.16222223044626682
1714.0,0.16228533171508874
1713.0,0.16228533171508874
1712.0,0.16228533171508874
1711.0,0.16228533171508874
1710.0,0.16228533171508874
1709.0,0.16228533171508874
1708.0,0.16234844215360744
1707.0,0.1624115617644888
1706.0,0.16247469055039865
1705.0,0.16253782851400533
1704.0,0.16266413198498508
1703.0,0.16285365609093994
1702.0,0.16298005145909156
1701.0,0.16298005145909156
1700.0,0.1627904721987936
1699.0,0.1627904721987936
1698.0,0.16291684917681404
1697.0,0.16298005145909156
1696.0,0.16298005145909156
1695.0,0.16304326294044946
1694.0,0.16310648362356628
1693.0,0.16323295260579473
1692.0,0.16329620091026875
1691.0,0.163359458427226
1690.0,0.163359458427226
1689.0,0.16342272515935097
1688.0,0.16348600110932865
1687.0,0.16348600110932865
1686.0,0.16342272515935097
1685.0,0.16329620091026875
1684.0,0.16329620091026875
1683.0,0.16348600110932865
1682.0,0.1637391971415132
1681.0,0.16392919108485815
1680.0,0.16399254087446846
1679.0,0.16399254087446846
1678.0,0.16399254087446846
1677.0,0.16411926818260536
1676.0,0.16418264570652719
1675.0,0.16418264570652719
1674.0,0.16418264570652719
1673.0,0.16424603248061653
1672.0,0.16437283379010226
1671.0,0.1644362483309032
1670.0,0.16437283379010226
1669.0,0.16430942850757435
1668.0,0.16437283379010226
1667.0,0.1644362483309032
1666.0,0.16449967213268124
1665.0,0.16456310519814177
1664.0,0.16456310519814177
1663.0,0.16462654752999129
1662.0,0.1646899991309374
1661.0,0.1646899991309374
1660.0,0.1646899991309374
1659.0,0.1646899991309374
1658.0,0.16462654752999129
1657.0,0.1646899991309374
1656.0,0.1646899991309374
1655.0,0.16481693015095633
1654.0,0.16507090353942422
1653.0,0.16513442009996204
1652.0,0.16494389827988365
1651.0,0.16481693015095633
1650.0,0.16475346000368907
1649.0,0.16462654752999129
1648.0,0.16456310519814177
1647.0,0.1646899991309374
1646.0,0.16481693015095633
1645.0,0.16500739626697003
1644.0,0.16513442009996204
1643.0,0.16507090353942422
1642.0,0.16500739626697003
1641.0,0.16481693015095633
1640.0,0.1646899991309374
1639.0,0.16456310519814177
1638.0,0.1644362483309032
1637.0,0.1644362483309032
1636.0,0.16456310519814177
1635.0,0.1646899991309374
1634.0,0.16475346000368907
1633.0,0.16481693015095633
1632.0,0.16488040957545036
1631.0,0.16494389827988365
1630.0,0.16500739626697003
1629.0,0.16500739626697003
1628.0,0.16500739626697003
1627.0,0.16494389827988365
1626.0,0.16494389827988365
1625.0,0.16500739626697003
1624.0,0.16507090353942422
1623.0,0.16500739626697003
1622.0,0.16488040957545036
1621.0,0.16481693015095633
1620.0,0.16481693015095633
1619.0,0.16488040957545036
1618.0,0.16494389827988365
1617.0,0.16500739626697003
1616.0,0.16507090353942422
1615.0,0.16507090353942422
1614.0,0.16507090353942422
1613.0,0.16507090353942422
1612.0,0.16513442009996204
1611.0,0.16513442009996204
1610.0,0.16507090353942422
1609.0,0.16507090353942422
1608.0,0.16513442009996204
1607.0,0.16519794595130088
1606.0,0.165261481096159
1605.0,0.16532502553725603
1604.0,0.16545214231905137
1603.0,0.16545214231905137
1602.0,0.16538857927731287
1601.0,0.165261481096159
1600.0,0.16519794595130088
1599.0,0.16513442009996204
1598.0,0.16513442009996204
1597.0,0.16513442009996204
1596.0,0.16513442009996204
1595.0,0.16519794595130088
1594.0,0.16519794595130088
1593.0,0.165261481096159
1592.0,0.165261481096159
1591.0,0.165261481096159
1590.0,0.165261481096159
1589.0,0.165261481096159
1588.0,0.165261481096159
1587.0,0.16532502553725603
1586.0,0.16532502553725603
1585.0,0.16532502553725603
1584.0,0.16538857927731287
1583.0,0.16538857927731287
1582.0,0.16532502553725603
1581.0,0.16532502553725603
1580.0,0.165261481096159
1579.0,0.165261481096159
1578.0,0.16519794595130088
1577.0,0.16519794595130088
1576.0,0.165261481096159
1575.0,0.165261481096159
1574.0,0.16532502553725603
1573.0,0.16538857927731287
1572.0,0.16545214231905137
1571.0,0.16545214231905137
1570.0,0.16532502553725603
1569.0,0.165261481096159
1568.0,0.165261481096159
1567.0,0.16532502553725603
1566.0,0.16532502553725603
1565.0,0.165261481096159
1564.0,0.16519794595130088
1563.0,0.16513442009996204
1562.0,0.16513442009996204
1561.0,0.16519794595130088
1560.0,0.16532502553725603
1559.0,0.16564288728159493
1558.0,0.1657700971483227
1557.0,0.1657700971483227
1556.0,0.16583371605737995
1555.0,0.1657700971483227
1554.0,0.165706487557304
1553.0,0.165706487557304
1552.0,0.16583371605737995
1551.0,0.16583371605737995
1550.0,0.165706487557304
1549.0,0.16564288728159493
1548.0,0.16557929631846746
1547.0,0.16557929631846746
1546.0,0.16564288728159493
1545.0,0.16564288728159493
1544.0,0.1657700971483227
1543.0,0.16583371605737995
1542.0,0.16589734428720626
1541.0,0.16602462872009371
1540.0,0.1660882849286216
1539.0,0.16583371605737995
1538.0,0.16564288728159493
1537.0,0.165706487557304
1536.0,0.1657700971483227
1535.0,0.16583371605737995
1534.0,0.165706487557304
1533.0,0.16545214231905137
1532.0,0.165261481096159
1531.0,0.165261481096159
1530.0,0.16519794595130088
1529.0,0.16513442009996204
1528.0,0.16507090353942422
1527.0,0.16507090353942422
1526.0,0.16507090353942422
1525.0,0.16507090353942422
1524.0,0.16507090353942422
1523.0,0.16500739626697003
1522.0,0.16475346000368907
1521.0,0.16449967213268124
1520.0,0.16449967213268124
1519.0,0.16456310519814177
1518.0,0.16456310519814177
1517.0,0.1644362483309032
1516.0,0.16430942850757435
1515.0,0.16424603248061653
1514.0,0.16424603248061653
1513.0,0.16430942850757435
1512.0,0.1644362483309032
1511.0,0.16449967213268124
1510.0,0.16456310519814177
1509.0,0.16456310519814177
1508.0,0.1646899991309374
1507.0,0.1644362483309032
1506.0,0.16380251922107458
1505.0,0.16361258067358908
1504.0,0.16380251922107458
1503.0,0.16386585053462532
1502.0,0.16380251922107458
1501.0,0.1637391971415132
1500.0,0.1637391971415132
1499.0,0.16361258067358908
1498.0,0.16342272515935097
1497.0,0.16310648362356628
1496.0,0.16298005145909156
1495.0,0.16285365609093994
1494.0,0.16285365609093994
1493.0,0.1627904721987936
1492.0,0.16285365609093994
1491.0,0.16272729749769965
1490.0,0.1624115617644888
1489.0,0.16215913834447737
1488.0,0.16209605540705763
1487.0,0.16209605540705763
1486.0,0.16203298163134527
1485.0,0.16203298163134527
1484.0,0.16209605540705763
1483.0,0.16209605540705763
1482.0,0.16209605540705763
1481.0,0.16215913834447737
1480.0,0.16234844215360744
1479.0,0.1626009756579776
1478.0,0.16285365609093994
1477.0,0.16329620091026875
1476.0,0.16399254087446846
1475.0,0.16500739626697003
1474.0,0.16653413982930765
1473.0,0.16928305056310244
1472.0,0.17347169365934856
1471.0,0.17776651976115598
1470.0,0.18170810920000413
1469.0,0.18588564387087447
1468.0,0.19070969882368427
1467.0,0.19620159201032594
1466.0,0.20307892466983124
1465.0,0.21176090261783198
1464.0,0.22076436832413648
1463.0,0.2277516600281464
1462.0,0.23239893194966443
1461.0,0.23597339230796277
1460.0,0.23905004858910273
1459.0,0.24161805822532467
1458.0,0.24435378054332002
1457.0,0.24795155218056153
1456.0,0.2509597312965428
1455.0,0.2525105077413272
1454.0,0.25336580106242135
1453.0,0.25406684154055714
1452.0,0.2543787786930616
1451.0,0.2539888922480742
1450.0,0.2527436025578558
1449.0,0.25041826513444065
1448.0,0.24634035271400134
1447.0,0.24093681183951277
1446.0,0.23537560214901854
1445.0,0.2303273359445075
1444.0,0.22555603107503486
1443.0,0.22112552799726037
1442.0,0.21724080737600282
1441.0,0.21431433171909875
1440.0,0.212185432936977
1439.0,0.2108425080885603
1438.0,0.21041928783557462
1437.0,0.21105427297625234
1436.0,0.21183162885883222
1435.0,0.2115487929765445
1434.0,0.2100669190682496
1433.0,0.2076783636484265
1432.0,0.20453710560962013
1431.0,0.2010042655561186
1430.0,0.19756837356927637
1429.0,0.19470308384201496
1428.0,0.19253262431572216
1427.0,0.19097927951632743
1426.0,0.18983471545685027
1425.0,0.1887602272467106
1424.0,0.18762148884580565
1423.0,0.1867526991023949
1422.0,0.1862189218259176
1421.0,0.18575240426807982
1420.0,0.18508681872492616
1419.0,0.1842894602110372
1418.0,0.18369240056806024
1417.0,0.18329481633348466
1416.0,0.18289759574307696
1415.0,0.18256685588861554
1414.0,0.18223636771963214
1413.0,0.1818401136028147
1412.0,0.18131233655848633
1411.0,0.18085105719286587
1410.0,0.18045606445813123
1409.0,0.180127178049454
1408.0,0.17973284283903546
1407.0,0.17940450345550985
1406.0,0.17907641211868253
1405.0,0.17868302940890257
1404.0,0.17815907279954568
1403.0,0.17770112873763355
1402.0,0.17730898922394545
1401.0,0.1769172034671962
1400.0,0.17626501160126873
1399.0,0.17561379768122598
1398.0,0.1751585282462993
1397.0,0.1748985884019969
1396.0,0.1743791749964998
1395.0,0.17373078060627378
1394.0,0.17314805217935603
1393.0,0.17256610459922084
1392.0,0.17192040944325404
1391.0,0.1714689933548985
1390.0,0.17101804599207693
1389.0,0.17056756638240134
1388.0,0.1701175535565067
1387.0,0.17005330405836405
1386.0,0.17088928984470542
1385.0,0.17282465170130723
1384.0,0.17626501160126873
1383.0,0.18203819546800593
1382.0,0.19084446825281964
1381.0,0.20314825095011302
1380.0,0.2196826878598488
1379.0,0.24070996697569602
1378.0,0.26432127409409545
1377.0,0.28676153845433827
1376.0,0.3039932847814546
1375.0,0.3126494304419727
1374.0,0.3103360349842297
1373.0,0.2996424721773401
1372.0,0.28617357561947543
1371.0,0.27270279719641266
1370.0,0.2597162803181208
1369.0,0.24772101453988138
1368.0,0.2376966367122315
1367.0,0.23040115161255348
1366.0,0.22548303427145044
1365.0,0.22221081256513253
1364.0,0.22025924882325953
1363.0,0.2195386671382824
1362.0,0.22011503680735567
1361.0,0.22155931642876725
1360.0,0.2234440892967382
1359.0,0.22497239990115525
1358.0,0.22570206150072258
1357.0,0.2251911696892941
1356.0,0.22358941119265774
1355.0,0.22112552799726037
1354.0,0.2182446253475312
1353.0,0.21531140049857878
1352.0,0.21282300752944616
1351.0,0.21056031543282083
1350.0,0.2085198839799991
1349.0,0.20669864638688495
1348.0,0.20516354218543853
1347.0,0.20384212309308558
1346.0,0.20259395032361804
1345.0,0.20155653964981246
1344.0,0.20065945054641832
1343.0,0.19990181982522426
1342.0,0.19914550849643908
1341.0,0.19845909380968174
1340.0,0.19784224681303852
1339.0,0.19729467292564795
1338.0,0.19681611146465805
1337.0,0.19654288435158618
1336.0,0.19640633522865558
1335.0,0.19633807676377568
1334.0,0.19633807676377568
1333.0,0.19647460442346754
1332.0,0.19667947642124606
1331.0,0.1969527895088714
1330.0,0.19722627470802445
1329.0,0.19729467292564795
1328.0,0.19715788726092565
1327.0,0.19688444510997294
1326.0,0.19647460442346754
1325.0,0.1960651501361581
1324.0,0.19558794086228604
1323.0,0.19517932127883775
1322.0,0.19470308384201496
1321.0,0.19429529556613567
1320.0,0.19388788983090888
1319.0,0.19361649817583237
1318.0,0.19341306567219707
1317.0,0.1932097284159331
1316.0,0.19300648631789286
1315.0,0.19273564472389304
1314.0,0.19253262431572216
1313.0,0.19232969876951622
1312.0,0.19219446772937543
1311.0,0.1921268679966679
1310.0,0.19219446772937543
1309.0,0.19239733008350535
1308.0,0.19273564472389304
1307.0,0.1932097284159331
1306.0,0.19375217280420953
1305.0,0.19429529556613567
1304.0,0.1946350925335547
1303.0,0.19470308384201496
1302.0,0.19456711186786002
1301.0,0.19436323369406505
1300.0,0.19436323369406505
1299.0,0.19449914184159978
1298.0,0.19477108579657387
1297.0,0.19511125537760865
1296.0,0.19531548509305963
1295.0,0.19538358301274483
1294.0,0.19531548509305963
1293.0,0.19511125537760865
1292.0,0.1948390984005659
1291.0,0.19449914184159978
1290.0,0.1941594511853273
1289.0,0.19388788983090888
1288.0,0.19375217280420953
1287.0,0.1935486767527379
1286.0,0.19341306567219707
1285.0,0.19327749692381868
1284.0,0.1932097284159331
1283.0,0.19314197048118253
1282.0,0.1930742231162681
1281.0,0.192938760082761
1280.0,0.1928033392890527
1279.0,0.19266796070880954
1278.0,0.19253262431572216
1277.0,0.19246497193114664
1276.0,0.19239733008350535
1275.0,0.19232969876951622
1274.0,0.19226207798589923
1273.0,0.19232969876951622
1272.0,0.19239733008350535
1271.0,0.19246497193114664
1270.0,0.19253262431572216
1269.0,0.1926002872405146
1268.0,0.1926002872405146
1267.0,0.19273564472389304
1266.0,0.19300648631789286
1265.0,0.19327749692381868
1264.0,0.1935486767527379
1263.0,0.19375217280420953
1262.0,0.19388788983090888
1261.0,0.19409154492580294
1260.0,0.19429529556613567
1259.0,0.1946350925335547
1258.0,0.19511125537760865
1257.0,0.19551981089400727
1256.0,0.19586056766464965
1255.0,0.19592875111433883
1254.0,0.19579239491795852
1253.0,0.19538358301274483
1252.0,0.19504320014250842
1251.0,0.19470308384201496
1250.0,0.1944311824514442
1249.0,0.19422736806433094
1248.0,0.1940236492824372
1247.0,0.19395576425191186
1246.0,0.19382002601611292
1245.0,0.19375217280420953
1244.0,0.19361649817583237
1243.0,0.1935486767527379
1242.0,0.19341306567219707
1241.0,0.19341306567219707
1240.0,0.19341306567219707
1239.0,0.19334527600813955
1238.0,0.19327749692381868
1237.0,0.19327749692381868
1236.0,0.19327749692381868
1235.0,0.19334527600813955
1234.0,0.19341306567219707
1233.0,0.19341306567219707
1232.0,0.19341306567219707
1231.0,0.19341306567219707
1230.0,0.1935486767527379
1229.0,0.19361649817583237
1228.0,0.19375217280420953
1227.0,0.19382002601611292
1226.0,0.19388788983090888
1225.0,0.19395576425191186
1224.0,0.1941594511853273
1223.0,0.19436323369406505
1222.0,0.1946350925335547
1221.0,0.19490712165732704
1220.0,0.19524739784953948
1219.0,0.19545169161194398
1218.0,0.19558794086228604
1217.0,0.19558794086228604
1216.0,0.19545169161194398
1215.0,0.19524739784953948
1214.0,0.19504320014250842
1213.0,0.19490712165732704
1212.0,0.1948390984005659
1211.0,0.19477108579657387
1210.0,0.1946350925335547
1209.0,0.19449914184159978
1208.0,0.19436323369406505
1207.0,0.19429529556613567
1206.0,0.1941594511853273
1205.0,0.19409154492580294
1204.0,0.1940236492824372
1203.0,0.1940236492824372
1202.0,0.19395576425191186
1201.0,0.19395576425191186
1200.0,0.19395576425191186
1199.0,0.1940236492824372
1198.0,0.1940236492824372
1197.0,0.19395576425191186
1196.0,0.19382002601611292
1195.0,0.19375217280420953
1194.0,0.19368433019188647
1193.0,0.19368433019188647
1192.0,0.19361649817583237
1191.0,0.19361649817583237
1190.0,0.19361649817583237
1189.0,0.19361649817583237
1188.0,0.1935486767527379
1187.0,0.19341306567219707
1186.0,0.19327749692381868
1185.0,0.1932097284159331
1184.0,0.1932097284159331
1183.0,0.19327749692381868
1182.0,0.19341306567219707
1181.0,0.19361649817583237
1180.0,0.19382002601611292
1179.0,0.1940236492824372
1178.0,0.19429529556613567
1177.0,0.19456711186786002
1176.0,0.19497515557019485
1175.0,0.19565608152013425
1174.0,0.19667947642124606
1173.0,0.1981162928747604
1172.0,0.19983300979863605
1171.0,0.20183294028406085
1170.0,0.20384212309308558
1169.0,0.20572113427860006
1168.0,0.20725821416525125
1167.0,0.2081690523251638
1166.0,0.20844969497266996
1165.0,0.2083093509798819
1164.0,0.20788859091283163
1163.0,0.20739821883503362
1162.0,0.20683847075444928
1161.0,0.206349282292827
1160.0,0.20606999322731534
1159.0,0.20586064423222616
1158.0,0.20579088365350362
1157.0,0.20586064423222616
1156.0,0.20600019901552957
1155.0,0.20620961530918125
1154.0,0.20648899420714217
1153.0,0.20669864638688495
1152.0,0.2069083998234198
1151.0,0.20683847075444928
1150.0,0.2065588670223364
1149.0,0.20613979865733034
1148.0,0.20565139610391725
1147.0,0.20502425594886842
1146.0,0.2043980201058202
1145.0,0.20384212309308558
1144.0,0.2033562962148836
1143.0,0.20280173016104097
1142.0,0.20217868863597643
1141.0,0.2016256233184388
1140.0,0.20121128604875071
1139.0,0.20086630669793704
1138.0,0.20065945054641832
1137.0,0.20038379551850105
1136.0,0.20010831534313467
1135.0,0.19983300979863605
1134.0,0.19948912310563194
1133.0,0.19935164463601196
1132.0,0.19928292171761486
1131.0,0.19935164463601196
1130.0,0.1994203784308699
1129.0,0.1994203784308699
1128.0,0.1994203784308699
1127.0,0.19935164463601196
1126.0,0.19935164463601196
1125.0,0.19928292171761486
1124.0,0.19928292171761486
1123.0,0.19921420967223735
1122.0,0.19921420967223735
1121.0,0.19928292171761486
1120.0,0.1994203784308699
1119.0,0.19955787866374353
1118.0,0.19955787866374353
1117.0,0.19955787866374353
1116.0,0.19962664510865036
1115.0,0.19969542244380145
1114.0,0.19990181982522426
1113.0,0.20017716900668026
1112.0,0.20059052038487324
1111.0,0.2009352806489919
1110.0,0.20121128604875071
1109.0,0.2014874669686484
1108.0,0.20183294028406085
1107.0,0.20231706508510094
1106.0,0.20300960945431368
1105.0,0.20384212309308558
1104.0,0.20467623567068616
1103.0,0.20530287310800133
1102.0,0.20572113427860006
1101.0,0.20579088365350362
1100.0,0.20558166912585896
1099.0,0.20516354218543853
1098.0,0.20474581741911724
1097.0,0.20432849405397824
1096.0,0.20398103065285067
1095.0,0.2037726859705613
1094.0,0.20370325994820848
1093.0,0.20370325994820848
1092.0,0.20370325994820848
1091.0,0.2036338450224786
1090.0,0.20349504844670374
1089.0,0.20349504844670374
1088.0,0.20349504844670374
1087.0,0.20349504844670374
1086.0,0.20356444118982564
1085.0,0.20356444118982564
1084.0,0.2036338450224786
1083.0,0.2037726859705613
1082.0,0.20391157131933157
1081.0,0.2041199826559248
1080.0,0.20418947533259169
1079.0,0.20432849405397824
1078.0,0.20446755728984556
1077.0,0.20453710560962013
1076.0,0.20446755728984556
1075.0,0.20432849405397824
1074.0,0.2041199826559248
1073.0,0.20398103065285067
1072.0,0.20384212309308558
1071.0,0.2037726859705613
1070.0,0.20370325994820848
1069.0,0.20370325994820848
1068.0,0.20384212309308558
1067.0,0.20398103065285067
1066.0,0.2041199826559248
1065.0,0.20418947533259169
1064.0,0.20425897913075608
1063.0,0.20432849405397824
1062.0,0.20432849405397824
1061.0,0.20432849405397824
1060.0,0.20446755728984556
1059.0,0.20453710560962013
1058.0,0.2046066650687106
1057.0,0.2046066650687106
1056.0,0.20467623567068616
1055.0,0.20481541031757589
1054.0,0.2049546295788751
1053.0,0.20516354218543853
1052.0,0.20537255533549192
1051.0,0.20551195334083028
1050.0,0.20572113427860006
1049.0,0.20600019901552957
1048.0,0.20620961530918125
1047.0,0.206349282292827
1046.0,0.20641913263184408
1045.0,0.206349282292827
1044.0,0.20641913263184408
1043.0,0.20641913263184408
1042.0,0.206349282292827
1041.0,0.20620961530918125
1040.0,0.20600019901552957
1039.0,0.20593041601836748
1038.0,0.20586064423222616
1037.0,0.20593041601836748
1036.0,0.20600019901552957
1035.0,0.20593041601836748
1034.0,0.20579088365350362
1033.0,0.20565139610391725
1032.0,0.20551195334083028
1031.0,0.20537255533549192
1030.0,0.20537255533549192
1029.0,0.20537255533549192
1028.0,0.20537255533549192
1027.0,0.20523320205917894
1026.0,0.20509389348319607
1025.0,0.2049546295788751
1024.0,0.2049546295788751
1023.0,0.20509389348319607
1022.0,0.20523320205917894
1021.0,0.20530287310800133
1020.0,0.20537255533549192
1019.0,0.20537255533549192
1018.0,0.20537255533549192
1017.0,0.20537255533549192
1016.0,0.20537255533549192
1015.0,0.20523320205917894
1014.0,0.20516354218543853
1013.0,0.20523320205917894
1012.0,0.20558166912585896
1011.0,0.20593041601836748
1010.0,0.20613979865733034
1009.0,0.206349282292827
1008.0,0.2065588670223364
1007.0,0.20676855294347907
1006.0,0.20718822875185294
1005.0,0.20774842809673588
1004.0,0.20866029603486047
1003.0,0.20992605157369537
1002.0,0.21161948468043668
1001.0,0.21367456560992992
1000.0,0.21602499658732888
999.0,0.21831641549264935
998.0,0.2199708726626617
997.0,0.22047565667521019
996.0,0.21989880853208832
995.0,0.2183882175068499
994.0,0.2166682371125761
993.0,0.21495504166845603
992.0,0.2134615195021976
991.0,0.2121146490590755
990.0,0.21098367320662526
989.0,0.2102078322693246
988.0,0.20964445358561346
987.0,0.2092223986623063
986.0,0.2089412564081745
985.0,0.2087305190897315
984.0,0.2085198839799991
983.0,0.2085198839799991
982.0,0.2088709992727138
981.0,0.20964445358561346
980.0,0.21105427297625234
979.0,0.2128939069634299
978.0,0.21538270736712462
977.0,0.21846003139405834
976.0,0.221921138062545
975.0,0.2254100497352054
974.0,0.22833904065111255
973.0,0.2301797422364078
972.0,0.2306226739238615
971.0,0.2296635589048508
970.0,0.22753159694671954
969.0,0.22497239990115525
968.0,0.222500680409635
967.0,0.22047565667521019
966.0,0.21889116427053357
965.0,0.21759904750347014
964.0,0.21652521241775347
963.0,0.21573941743391623
962.0,0.21516882187553077
961.0,0.21481257997063818
960.0,0.2145989750076125
959.0,0.21438547505317596
958.0,0.21417208000413446
957.0,0.21388771628017356
956.0,0.21367456560992992
955.0,0.21339052735134012
954.0,0.21310667473868428
953.0,0.21268124337545258
952.0,0.21239785381766252
951.0,0.2121146490590755
950.0,0.2119731159041962
949.0,0.21204387671606817
948.0,0.212185432936977
947.0,0.21239785381766252
946.0,0.21253952548158495
945.0,0.21282300752944616
944.0,0.21317762050081246
943.0,0.21367456560992992
942.0,0.2141009716156166
941.0,0.21438547505317596
940.0,0.21452779669361166
939.0,0.21452779669361166
938.0,0.21445663004340698
937.0,0.21431433171909875
936.0,0.2141009716156166
935.0,0.2137456042102197
934.0,0.21339052735134012
933.0,0.21317762050081246
932.0,0.2130357405642671
931.0,0.21296481797377664
930.0,0.2128939069634299
929.0,0.21282300752944616
928.0,0.21282300752944616
927.0,0.21275211966804597
926.0,0.2126103786478899
925.0,0.21253952548158495
924.0,0.21253952548158495
923.0,0.2126103786478899
922.0,0.21268124337545258
921.0,0.21268124337545258
920.0,0.21268124337545258
919.0,0.21246868387276563
918.0,0.21232703531250707
917.0,0.212185432936977
916.0,0.2122562283535332
915.0,0.21246868387276563
914.0,0.21268124337545258
913.0,0.2128939069634299
912.0,0.2130357405642671
911.0,0.21310667473868428
910.0,0.2130357405642671
909.0,0.2128939069634299
908.0,0.2128939069634299
907.0,0.21296481797377664
906.0,0.21324857785443885
905.0,0.2137456042102197
904.0,0.2145989750076125
903.0,0.21588218353707678
902.0,0.21767073100316314
901.0,0.21989880853208832
900.0,0.22213837582375806
899.0,0.22388020094701222
898.0,0.22475374025976347
897.0,0.2246808781705225
896.0,0.2240256688706308
895.0,0.2229358452575705
894.0,0.22184874961635637
893.0,0.22076436832413648
892.0,0.2199708726626617
891.0,0.2193946941610303
890.0,0.21896306137886823
889.0,0.21867554433301217
888.0,0.21853185715820178
887.0,0.21831641549264935
886.0,0.21802932608744796
885.0,0.2178141335079835
884.0,0.21752737583371373
883.0,0.21716919479740815
882.0,0.21688286250953293
881.0,0.21681130892474232
880.0,0.21688286250953293
879.0,0.21716919479740815
878.0,0.21745571598998992
877.0,0.21752737583371373
876.0,0.2173840679683965
875.0,0.21716919479740815
874.0,0.21695442788530706
873.0,0.21702600505595182
872.0,0.21731243176503368
871.0,0.21759904750347014
870.0,0.21767073100316314
869.0,0.21759904750347014
868.0,0.21731243176503368
867.0,0.21702600505595182
866.0,0.216739767127051
865.0,0.21652521241775347
864.0,0.21659671887743648
863.0,0.21681130892474232
862.0,0.21702600505595182
861.0,0.21716919479740815
860.0,0.21716919479740815
859.0,0.21709759402535544
858.0,0.21695442788530706
857.0,0.21702600505595182
856.0,0.21724080737600282
855.0,0.2173840679683965
854.0,0.21724080737600282
853.0,0.21688286250953293
852.0,0.21652521241775347
851.0,0.21645371772965016
850.0,0.21681130892474232
849.0,0.21745571598998992
848.0,0.21817284706757212
847.0,0.2187474057515435
846.0,0.2193946941610303
845.0,0.2204035087421754
844.0,0.22235572230351508
843.0,0.22504531091986135
842.0,0.22797183467514515
841.0,0.2298847052128985
840.0,0.23003219867055757
839.0,0.22855951336008817
838.0,0.22643295107394135
837.0,0.2243895519936392
836.0,0.2228632874958274
835.0,0.22177637323390353
834.0,0.22098102808512943
833.0,0.22047565667521019
832.0,0.22011503680735567
831.0,0.21975471613464737
830.0,0.2194666746835956
829.0,0.2192507688964478
828.0,0.21917882414652712
827.0,0.2192507688964478
826.0,0.2192507688964478
825.0,0.2193227255666319
824.0,0.2193946941610303
823.0,0.2192507688964478
822.0,0.21896306137886823
821.0,0.21867554433301217
820.0,0.2186036948032093
819.0,0.2186036948032093
818.0,0.21881927906273835
817.0,0.21910689131292105
816.0,0.2194666746835956
815.0,0.22004294875309416
814.0,0.22090879615450087
813.0,0.22228326139037402
812.0,0.22417118553538762
811.0,0.22628667472297836
810.0,0.22833904065111255
809.0,0.23003219867055757
808.0,0.23113999915704286
807.0,0.23158391178366822
806.0,0.23128791962233652
805.0,0.23040115161255348
804.0,0.22929523178422073
803.0,0.22819212100089437
802.0,0.22723835285596783
801.0,0.22643295107394135
800.0,0.22577509513108107
799.0,0.22533707746217768
798.0,0.2251182341812037
797.0,0.22504531091986135
796.0,0.2251911696892941
795.0,0.2252641174482466
794.0,0.2251182341812037
793.0,0.22489950112097512
792.0,0.22453519065426075
791.0,0.22409842110832567
790.0,0.22380748525292793
789.0,0.22358941119265774
788.0,0.2235167441663184
787.0,0.22337144657984997
786.0,0.2230809971579535
785.0,0.2229358452575705
784.0,0.22300841514359493
783.0,0.22300841514359493
782.0,0.22300841514359493
781.0,0.2230809971579535
780.0,0.2231535913047007
779.0,0.22329881601158919
778.0,0.22337144657984997
777.0,0.2234440892967382
776.0,0.22358941119265774
775.0,0.22366209037982476
774.0,0.22373478173189043
773.0,0.22380748525292793
772.0,0.2240256688706308
771.0,0.22417118553538762
770.0,0.2240256688706308
769.0,0.22380748525292793
768.0,0.22366209037982476
767.0,0.22395292881822026
766.0,0.22453519065426075
765.0,0.22504531091986135
764.0,0.2254100497352054
763.0,0.22533707746217768
762.0,0.22497239990115525
761.0,0.2246808781705225
760.0,0.22475374025976347
759.0,0.2251182341812037
758.0,0.2254100497352054
757.0,0.22562904015008334
756.0,0.22570206150072258
755.0,0.22570206150072258
754.0,0.22570206150072258
753.0,0.22570206150072258
752.0,0.22577509513108107
751.0,0.22592119924748122
750.0,0.2261404476233131
749.0,0.22635980673997413
748.0,0.22657927670938993
747.0,0.2267256516625462
746.0,0.2267988576436557
745.0,0.2267988576436557
744.0,0.2267988576436557
743.0,0.22665245801917688
742.0,0.22643295107394135
741.0,0.22635980673997413
740.0,0.22665245801917688
739.0,0.22716507276098175
738.0,0.22753159694671954
737.0,0.22767829327708022
736.0,0.22767829327708022
735.0,0.22767829327708022
734.0,0.22753159694671954
733.0,0.22738495015082916
732.0,0.22723835285596783
731.0,0.22731164531785852
730.0,0.22738495015082916
729.0,0.22753159694671954
728.0,0.2277516600281464
727.0,0.2278984307229881
726.0,0.2280452510360509
725.0,0.22819212100089437
724.0,0.22833904065111255
723.0,0.22855951336008817
722.0,0.22870655737094037
721.0,0.22900079483605928
720.0,0.22929523178422073
719.0,0.22944252514900487
718.0,0.22922160383085233
717.0,0.22892721677880523
716.0,0.22885365118501477
715.0,0.22914798835785577
714.0,0.22944252514900487
713.0,0.22944252514900487
712.0,0.22900079483605928
711.0,0.22855951336008817
710.0,0.22826557461323072
709.0,0.22848601002033342
708.0,0.2290743853610009
707.0,0.22973726182940668
706.0,0.2301797422364078
705.0,0.2304749798289496
704.0,0.23054882059796222
703.0,0.2304749798289496
702.0,0.2302535328205466
701.0,0.2301797422364078
700.0,0.2304749798289496
699.0,0.23091821288178105
698.0,0.2312139530919859
697.0,0.23099212905622624
696.0,0.2304749798289496
695.0,0.23003219867055757
694.0,0.22981097726400668
693.0,0.2298847052128985
692.0,0.2301797422364078
691.0,0.2302535328205466
690.0,0.2298847052128985
689.0,0.22936887222219338
688.0,0.2287800980504664
687.0,0.22848601002033342
686.0,0.22833904065111255
685.0,0.22841251911874472
684.0,0.22870655737094037
683.0,0.22885365118501477
682.0,0.2286330291422194
681.0,0.22819212100089437
680.0,0.2278984307229881
679.0,0.2278984307229881
678.0,0.22797183467514515
677.0,0.22819212100089437
676.0,0.22855951336008817
675.0,0.2290743853610009
674.0,0.22929523178422073
673.0,0.22900079483605928
672.0,0.22826557461323072
671.0,0.2267988576436557
670.0,0.2240256688706308
669.0,0.21989880853208832
668.0,0.216739767127051
667.0,0.21853185715820178
666.0,0.22279074185431513
665.0,0.22555603107503486
664.0,0.22650610772902935
663.0,0.22635980673997413
662.0,0.22577509513108107
661.0,0.2251911696892941
660.0,0.2246808781705225
659.0,0.22424396215590203
658.0,0.22373478173189043
657.0,0.2231535913047007
656.0,0.2225731776106885
655.0,0.22184874961635637
654.0,0.22105327203138314
653.0,0.2204035087421754
652.0,0.22025924882325953
651.0,0.22054781659593825
650.0,0.22119779598676126
649.0,0.221921138062545
648.0,0.22279074185431513
647.0,0.2234440892967382
646.0,0.2234440892967382
645.0,0.2229358452575705
644.0,0.22228326139037402
643.0,0.221921138062545
642.0,0.22199353857649173
641.0,0.222500680409635
640.0,0.22358941119265774
639.0,0.2251182341812037
638.0,0.22657927670938993
637.0,0.2278984307229881
636.0,0.22900079483605928
635.0,0.2299584456803314
634.0,0.2304749798289496
633.0,0.2301059641878309
632.0,0.2290743853610009
631.0,0.22797183467514515
630.0,0.22723835285596783
629.0,0.22665245801917688
628.0,0.2259942697417905
627.0,0.2252641174482466
626.0,0.22482661457521314
625.0,0.22482661457521314
624.0,0.22497239990115525
623.0,0.22504531091986135
622.0,0.22475374025976347
621.0,0.22453519065426075
620.0,0.22475374025976347
619.0,0.2252641174482466
618.0,0.2261404476233131
617.0,0.22716507276098175
616.0,0.22833904065111255
615.0,0.22944252514900487
614.0,0.23003219867055757
613.0,0.2298847052128985
612.0,0.22914798835785577
611.0,0.22848601002033342
610.0,0.22848601002033342
609.0,0.22929523178422073
608.0,0.2301797422364078
607.0,0.23077041826340627
606.0,0.2312139530919859
605.0,0.23180603836692848
604.0,0.23247310059161808
603.0,0.23254728190222673
602.0,0.23158391178366822
601.0,0.22958986848609375
600.0,0.22716507276098175
