cm-1,A
4000.0,-0.004364371107751008
3999.0,-0.0042783722001624724
3998.0,-0.0042353663594676405
3997.0,-0.0042783722001624724
3996.0,-0.004364371107751008
3995.0,-0.00445035298922436
3994.0,-0.004493337547274212
3993.0,-0.004536317851322913
3992.0,-0.004536317851322913
3991.0,-0.004536317851322913
3990.0,-0.004493337547274212
3989.0,-0.004364371107751008
3988.0,-0.0042353663594676405
3987.0,-0.004106323279658319
3986.0,-0.004020273253241502
3985.0,-0.004063300397667113
3984.0,-0.004192356259714369
3983.0,-0.004321373782642635
3982.0,-0.00445035298922436
3981.0,-0.004536317851322913
3980.0,-0.004622265700782613
3979.0,-0.004665233247877154
3978.0,-0.004665233247877154
3977.0,-0.0045792939022115675
3976.0,-0.004407364176330919
3975.0,-0.0042353663594676405
3974.0,-0.004149341900058889
3973.0,-0.004149341900058889
3972.0,-0.004192356259714369
3971.0,-0.0042783722001624724
3970.0,-0.004364371107751008
3969.0,-0.004407364176330919
3968.0,-0.004364371107751008
3967.0,-0.004321373782642635
3966.0,-0.004321373782642635
3965.0,-0.004321373782642635
3964.0,-0.004407364176330919
3963.0,-0.00445035298922436
3962.0,-0.00445035298922436
3961.0,-0.004407364176330919
3960.0,-0.004321373782642635
3959.0,-0.0042783722001624724
3958.0,-0.0042783722001624724
3957.0,-0.0042783722001624724
3956.0,-0.0042783722001624724
3955.0,-0.0042353663594676405
3954.0,-0.004192356259714369
3953.0,-0.004106323279658319
3952.0,-0.004063300397667113
3951.0,-0.004063300397667113
3950.0,-0.004063300397667113
3949.0,-0.004063300397667113
3948.0,-0.004063300397667113
3947.0,-0.004020273253241502
3946.0,-0.004020273253241502
3945.0,-0.004063300397667113
3944.0,-0.004149341900058889
3943.0,-0.0042353663594676405
3942.0,-0.004321373782642635
3941.0,-0.004364371107751008
3940.0,-0.004364371107751008
3939.0,-0.004364371107751008
3938.0,-0.004364371107751008
3937.0,-0.004364371107751008
3936.0,-0.004364371107751008
3935.0,-0.004321373782642635
3934.0,-0.0042783722001624724
3933.0,-0.004192356259714369
3932.0,-0.004063300397667113
3931.0,-0.0039772418455368275
3930.0,-0.003934206173708432
3929.0,-0.003934206173708432
3928.0,-0.003934206173708432
3927.0,-0.003934206173708432
3926.0,-0.003934206173708432
3925.0,-0.003891166236910326
3924.0,-0.003891166236910326
3923.0,-0.003891166236910326
3922.0,-0.003934206173708432
3921.0,-0.0039772418455368275
3920.0,-0.004020273253241502
3919.0,-0.004063300397667113
3918.0,-0.004149341900058889
3917.0,-0.0042353663594676405
3916.0,-0.0042783722001624724
3915.0,-0.0042783722001624724
3914.0,-0.004321373782642635
3913.0,-0.004364371107751008
3912.0,-0.004407364176330919
3911.0,-0.004364371107751008
3910.0,-0.0042783722001624724
3909.0,-0.004192356259714369
3908.0,-0.004149341900058889
3907.0,-0.004063300397667113
3906.0,-0.004020273253241502
3905.0,-0.0038481220342978517
3904.0,-0.003675902548784027
3903.0,-0.0035897671891400584
3902.0,-0.003675902548784027
3901.0,-0.003891166236910326
3900.0,-0.004106323279658319
3899.0,-0.0042783722001624724
3898.0,-0.0042783722001624724
3897.0,-0.0042783722001624724
3896.0,-0.004192356259714369
3895.0,-0.004149341900058889
3894.0,-0.004149341900058889
3893.0,-0.0042353663594676405
3892.0,-0.004321373782642635
3891.0,-0.004321373782642635
3890.0,-0.0042353663594676405
3889.0,-0.004106323279658319
3888.0,-0.004020273253241502
3887.0,-0.0039772418455368275
3886.0,-0.003934206173708432
3885.0,-0.003934206173708432
3884.0,-0.003934206173708432
3883.0,-0.004063300397667113
3882.0,-0.004149341900058889
3881.0,-0.004149341900058889
3880.0,-0.004020273253241502
3879.0,-0.003891166236910326
3878.0,-0.0038481220342978517
3877.0,-0.003934206173708432
3876.0,-0.004149341900058889
3875.0,-0.004407364176330919
3874.0,-0.004536317851322913
3873.0,-0.0045792939022115675
3872.0,-0.0045792939022115675
3871.0,-0.00445035298922436
3870.0,-0.004149341900058889
3869.0,-0.0038481220342978517
3868.0,-0.003632837004408529
3867.0,-0.0035897671891400584
3866.0,-0.003632837004408529
3865.0,-0.0037189638231147626
3864.0,-0.003762020828246282
3863.0,-0.0038481220342978517
3862.0,-0.003934206173708432
3861.0,-0.004020273253241502
3860.0,-0.004063300397667113
3859.0,-0.004149341900058889
3858.0,-0.004149341900058889
3857.0,-0.004063300397667113
3856.0,-0.004063300397667113
3855.0,-0.004149341900058889
3854.0,-0.004192356259714369
3853.0,-0.004149341900058889
3852.0,-0.004106323279658319
3851.0,-0.004106323279658319
3850.0,-0.004149341900058889
3849.0,-0.004149341900058889
3848.0,-0.004106323279658319
3847.0,-0.0039772418455368275
3846.0,-0.0038481220342978517
3845.0,-0.003675902548784027
3844.0,-0.003546693102131737
3843.0,-0.003503614742536687
3842.0,-0.003546693102131737
3841.0,-0.003675902548784027
3840.0,-0.003762020828246282
3839.0,-0.0038481220342978517
3838.0,-0.003934206173708432
3837.0,-0.004106323279658319
3836.0,-0.004192356259714369
3835.0,-0.0042353663594676405
3834.0,-0.004149341900058889
3833.0,-0.004063300397667113
3832.0,-0.0039772418455368275
3831.0,-0.003891166236910326
3830.0,-0.003891166236910326
3829.0,-0.003891166236910326
3828.0,-0.0039772418455368275
3827.0,-0.004020273253241502
3826.0,-0.004020273253241502
3825.0,-0.0039772418455368275
3824.0,-0.004063300397667113
3823.0,-0.004321373782642635
3822.0,-0.004536317851322913
3821.0,-0.004493337547274212
3820.0,-0.004364371107751008
3819.0,-0.0042353663594676405
3818.0,-0.0042353663594676405
3817.0,-0.0042783722001624724
3816.0,-0.0042783722001624724
3815.0,-0.004192356259714369
3814.0,-0.004192356259714369
3813.0,-0.0042783722001624724
3812.0,-0.004364371107751008
3811.0,-0.004321373782642635
3810.0,-0.0042783722001624724
3809.0,-0.004192356259714369
3808.0,-0.004149341900058889
3807.0,-0.004063300397667113
3806.0,-0.003891166236910326
3805.0,-0.003805073565025019
3804.0,-0.003891166236910326
3803.0,-0.004063300397667113
3802.0,-0.004192356259714369
3801.0,-0.004149341900058889
3800.0,-0.004063300397667113
3799.0,-0.004063300397667113
3798.0,-0.004063300397667113
3797.0,-0.004106323279658319
3796.0,-0.004063300397667113
3795.0,-0.004063300397667113
3794.0,-0.004106323279658319
3793.0,-0.004149341900058889
3792.0,-0.004149341900058889
3791.0,-0.004106323279658319
3790.0,-0.004020273253241502
3789.0,-0.004020273253241502
3788.0,-0.004020273253241502
3787.0,-0.004063300397667113
3786.0,-0.004063300397667113
3785.0,-0.0039772418455368275
3784.0,-0.0038481220342978517
3783.0,-0.003805073565025019
3782.0,-0.0038481220342978517
3781.0,-0.0039772418455368275
3780.0,-0.004106323279658319
3779.0,-0.004149341900058889
3778.0,-0.004149341900058889
3777.0,-0.004149341900058889
3776.0,-0.0042353663594676405
3775.0,-0.0042353663594676405
3774.0,-0.0042353663594676405
3773.0,-0.0042353663594676405
3772.0,-0.0042783722001624724
3771.0,-0.004321373782642635
3770.0,-0.004321373782642635
3769.0,-0.004192356259714369
3768.0,-0.004063300397667113
3767.0,-0.0039772418455368275
3766.0,-0.0039772418455368275
3765.0,-0.0039772418455368275
3764.0,-0.003934206173708432
3763.0,-0.003891166236910326
3762.0,-0.003891166236910326
3761.0,-0.003805073565025019
3760.0,-0.003762020828246282
3759.0,-0.003805073565025019
3758.0,-0.003891166236910326
3757.0,-0.004063300397667113
3756.0,-0.004192356259714369
3755.0,-0.0042353663594676405
3754.0,-0.0042783722001624724
3753.0,-0.004321373782642635
3752.0,-0.004321373782642635
3751.0,-0.0042783722001624724
3750.0,-0.0042353663594676405
3749.0,-0.004192356259714369
3748.0,-0.004063300397667113
3747.0,-0.0039772418455368275
3746.0,-0.003934206173708432
3745.0,-0.003891166236910326
3744.0,-0.003805073565025019
3743.0,-0.003805073565025019
3742.0,-0.0038481220342978517
3741.0,-0.003891166236910326
3740.0,-0.003891166236910326
3739.0,-0.003762020828246282
3738.0,-0.003675902548784027
3737.0,-0.003675902548784027
3736.0,-0.003675902548784027
3735.0,-0.003762020828246282
3734.0,-0.004020273253241502
3733.0,-0.004364371107751008
3732.0,-0.004622265700782613
3731.0,-0.004751155591001144
3730.0,-0.004751155591001144
3729.0,-0.004665233247877154
3728.0,-0.004536317851322913
3727.0,-0.004364371107751008
3726.0,-0.004192356259714369
3725.0,-0.004106323279658319
3724.0,-0.004192356259714369
3723.0,-0.0042353663594676405
3722.0,-0.004149341900058889
3721.0,-0.004020273253241502
3720.0,-0.0038481220342978517
3719.0,-0.0037189638231147626
3718.0,-0.003675902548784027
3717.0,-0.003632837004408529
3716.0,-0.003632837004408529
3715.0,-0.003675902548784027
3714.0,-0.003762020828246282
3713.0,-0.0038481220342978517
3712.0,-0.003891166236910326
3711.0,-0.003891166236910326
3710.0,-0.003934206173708432
3709.0,-0.004020273253241502
3708.0,-0.004063300397667113
3707.0,-0.004106323279658319
3706.0,-0.004106323279658319
3705.0,-0.004106323279658319
3704.0,-0.004192356259714369
3703.0,-0.0042783722001624724
3702.0,-0.004321373782642635
3701.0,-0.004321373782642635
3700.0,-0.0042353663594676405
3699.0,-0.004149341900058889
3698.0,-0.004106323279658319
3697.0,-0.004106323279658319
3696.0,-0.004063300397667113
3695.0,-0.004063300397667113
3694.0,-0.004063300397667113
3693.0,-0.004063300397667113
3692.0,-0.004063300397667113
3691.0,-0.004063300397667113
3690.0,-0.004020273253241502
3689.0,-0.003891166236910326
3688.0,-0.003805073565025019
3687.0,-0.0037189638231147626
3686.0,-0.0037189638231147626
3685.0,-0.0037189638231147626
3684.0,-0.0037189638231147626
3683.0,-0.003632837004408529
3682.0,-0.003546693102131737
3681.0,-0.0034605321095062536
3680.0,-0.0033743540197499478
3679.0,-0.0032881588260753603
3678.0,-0.0033312585613267665
3677.0,-0.0034605321095062536
3676.0,-0.0034605321095062536
3675.0,-0.0032450548131470747
3674.0,-0.003029470553618019
3673.0,-0.0029863408567849525
3672.0,-0.003158833950862139
3671.0,-0.0033312585613267665
3670.0,-0.0033312585613267665
3669.0,-0.0032450548131470747
3668.0,-0.003201946521692367
3667.0,-0.0032450548131470747
3666.0,-0.0032450548131470747
3665.0,-0.0032881588260753603
3664.0,-0.0032881588260753603
3663.0,-0.0032881588260753603
3662.0,-0.0032881588260753603
3661.0,-0.0032450548131470747
3660.0,-0.003201946521692367
3659.0,-0.003115717099805959
3658.0,-0.0030725959676747294
3657.0,-0.003029470553618019
3656.0,-0.0029432068763250996
3655.0,-0.0028137792246734072
3654.0,-0.0027274726898296464
3653.0,-0.0026411490000399773
3652.0,-0.002597980719908577
3651.0,-0.002597980719908577
3650.0,-0.0025548081484823015
3649.0,-0.002597980719908577
3648.0,-0.0026411490000399773
3647.0,-0.0027274726898296464
3646.0,-0.0028137792246734072
3645.0,-0.0029432068763250996
3644.0,-0.0030725959676747294
3643.0,-0.003201946521692367
3642.0,-0.0032881588260753603
3641.0,-0.0033312585613267665
3640.0,-0.0033312585613267665
3639.0,-0.0034174452021935586
3638.0,-0.0034605321095062536
3637.0,-0.003546693102131737
3636.0,-0.0035897671891400584
3635.0,-0.003632837004408529
3634.0,-0.0035897671891400584
3633.0,-0.0034174452021935586
3632.0,-0.0032881588260753603
3631.0,-0.0033312585613267665
3630.0,-0.0034174452021935586
3629.0,-0.0033743540197499478
3628.0,-0.0032881588260753603
3627.0,-0.0032450548131470747
3626.0,-0.0033312585613267665
3625.0,-0.0034174452021935586
3624.0,-0.0034174452021935586
3623.0,-0.0033312585613267665
3622.0,-0.0032881588260753603
3621.0,-0.0032881588260753603
3620.0,-0.0032881588260753603
3619.0,-0.0032450548131470747
3618.0,-0.003158833950862139
3617.0,-0.003029470553618019
3616.0,-0.0029863408567849525
3615.0,-0.0030725959676747294
3614.0,-0.003201946521692367
3613.0,-0.0033312585613267665
3612.0,-0.0033743540197499478
3611.0,-0.0034174452021935586
3610.0,-0.0034174452021935586
3609.0,-0.0033743540197499478
3608.0,-0.0032450548131470747
3607.0,-0.003158833950862139
3606.0,-0.003158833950862139
3605.0,-0.0032450548131470747
3604.0,-0.0033312585613267665
3603.0,-0.0034605321095062536
3602.0,-0.003503614742536687
3601.0,-0.003546693102131737
3600.0,-0.003546693102131737
3599.0,-0.003546693102131737
3598.0,-0.0034605321095062536
3597.0,-0.0033312585613267665
3596.0,-0.0032450548131470747
3595.0,-0.0032450548131470747
3594.0,-0.0033312585613267665
3593.0,-0.0033743540197499478
3592.0,-0.0034174452021935586
3591.0,-0.0033312585613267665
3590.0,-0.0032881588260753603
3589.0,-0.003158833950862139
3588.0,-0.0029863408567849525
3587.0,-0.0027706281011936618
3586.0,-0.0026411490000399773
3585.0,-0.0026411490000399773
3584.0,-0.0026411490000399773
3583.0,-0.0027274726898296464
3582.0,-0.0027706281011936618
3581.0,-0.002900068611387585
3580.0,-0.0029863408567849525
3579.0,-0.003115717099805959
3578.0,-0.003158833950862139
3577.0,-0.003158833950862139
3576.0,-0.003029470553618019
3575.0,-0.002900068611387585
3574.0,-0.0027706281011936618
3573.0,-0.002684312989729598
3572.0,-0.002597980719908577
3571.0,-0.0024684501283323
3570.0,-0.002338880892056583
3569.0,-0.0022956825549340643
3568.0,-0.0022956825549340643
3567.0,-0.002338880892056583
3566.0,-0.0023820749327607693
3565.0,-0.0024252646779014952
3564.0,-0.0025548081484823015
3563.0,-0.0026411490000399773
3562.0,-0.0027274726898296464
3561.0,-0.0027706281011936618
3560.0,-0.0027706281011936618
3559.0,-0.0027274726898296464
3558.0,-0.002684312989729598
3557.0,-0.002597980719908577
3556.0,-0.0025548081484823015
3555.0,-0.0025116312849080558
3554.0,-0.0025116312849080558
3553.0,-0.0025116312849080558
3552.0,-0.0025116312849080558
3551.0,-0.0024252646779014952
3550.0,-0.002338880892056583
3549.0,-0.0022524799205383417
3548.0,-0.0022092729880145434
3547.0,-0.0022524799205383417
3546.0,-0.002338880892056583
3545.0,-0.0024252646779014952
3544.0,-0.0024252646779014952
3543.0,-0.0024252646779014952
3542.0,-0.0024684501283323
3541.0,-0.0025548081484823015
3540.0,-0.0025548081484823015
3539.0,-0.0025548081484823015
3538.0,-0.0024684501283323
3537.0,-0.002338880892056583
3536.0,-0.0021660617565077978
3535.0,-0.0020364022595291686
3534.0,-0.0019067040408846658
3533.0,-0.0018634626925240205
3532.0,-0.0018202170383281313
3531.0,-0.0018202170383281313
3530.0,-0.0018202170383281313
3529.0,-0.0018202170383281313
3528.0,-0.0018634626925240205
3527.0,-0.0019067040408846658
3526.0,-0.0019499410842680476
3525.0,-0.0019499410842680476
3524.0,-0.0019067040408846658
3523.0,-0.001776967077439462
3522.0,-0.0016471913460383014
3521.0,-0.0015606526425728795
3520.0,-0.001474096691732818
3519.0,-0.001474096691732818
3518.0,-0.001474096691732818
3517.0,-0.0014308122463981832
3516.0,-0.001344230411601366
3515.0,-0.001257631312230778
3514.0,-0.00121432528617893
3513.0,-0.00121432528617893
3512.0,-0.00121432528617893
3511.0,-0.00121432528617893
3510.0,-0.0011710149414008164
3509.0,-0.0010843812922201046
3508.0,-0.001041057986093552
3507.0,-0.001041057986093552
3506.0,-0.001041057986093552
3505.0,-0.001041057986093552
3504.0,-0.0009977303577937136
3503.0,-0.0009543984064577238
3502.0,-0.0009543984064577238
3501.0,-0.0009977303577937136
3500.0,-0.001041057986093552
3499.0,-0.001041057986093552
3498.0,-0.001041057986093552
3497.0,-0.0009977303577937136
3496.0,-0.0009977303577937136
3495.0,-0.001041057986093552
3494.0,-0.0011277002770349043
3493.0,-0.0011710149414008164
3492.0,-0.0011277002770349043
3491.0,-0.0010843812922201046
3490.0,-0.0010843812922201046
3489.0,-0.0011277002770349043
3488.0,-0.0011710149414008164
3487.0,-0.0011710149414008164
3486.0,-0.0011277002770349043
3485.0,-0.001041057986093552
3484.0,-0.0010843812922201046
3483.0,-0.001257631312230778
3482.0,-0.001474096691732818
3481.0,-0.0016904542321527494
3480.0,-0.0018202170383281313
3479.0,-0.0018634626925240205
3478.0,-0.0018634626925240205
3477.0,-0.0018202170383281313
3476.0,-0.001776967077439462
3475.0,-0.001776967077439462
3474.0,-0.0018202170383281313
3473.0,-0.0019499410842680476
3472.0,-0.0020364022595291686
3471.0,-0.0020796263931210923
3470.0,-0.0020364022595291686
3469.0,-0.0018634626925240205
3468.0,-0.001733712809000476
3467.0,-0.0016904542321527494
3466.0,-0.001776967077439462
3465.0,-0.0019499410842680476
3464.0,-0.0021660617565077978
3463.0,-0.002338880892056583
3462.0,-0.0023820749327607693
3461.0,-0.002338880892056583
3460.0,-0.0022956825549340643
3459.0,-0.0022524799205383417
3458.0,-0.0022956825549340643
3457.0,-0.0022956825549340643
3456.0,-0.002338880892056583
3455.0,-0.0023820749327607693
3454.0,-0.0023820749327607693
3453.0,-0.0024252646779014952
3452.0,-0.0023820749327607693
3451.0,-0.0022524799205383417
3450.0,-0.0021228462251614566
3449.0,-0.0019931738235303698
3448.0,-0.0019931738235303698
3447.0,-0.0020364022595291686
3446.0,-0.0021660617565077978
3445.0,-0.002338880892056583
3444.0,-0.0024252646779014952
3443.0,-0.0024684501283323
3442.0,-0.0025116312849080558
3441.0,-0.0024684501283323
3440.0,-0.0024684501283323
3439.0,-0.0024252646779014952
3438.0,-0.0023820749327607693
3437.0,-0.002338880892056583
3436.0,-0.002338880892056583
3435.0,-0.0023820749327607693
3434.0,-0.0024252646779014952
3433.0,-0.0023820749327607693
3432.0,-0.002338880892056583
3431.0,-0.0023820749327607693
3430.0,-0.0023820749327607693
3429.0,-0.0024252646779014952
3428.0,-0.0024684501283323
3427.0,-0.0024252646779014952
3426.0,-0.0023820749327607693
3425.0,-0.0022524799205383417
3424.0,-0.0021660617565077978
3423.0,-0.0022092729880145434
3422.0,-0.002338880892056583
3421.0,-0.0024684501283323
3420.0,-0.0025548081484823015
3419.0,-0.002597980719908577
3418.0,-0.0025548081484823015
3417.0,-0.0025116312849080558
3416.0,-0.0024252646779014952
3415.0,-0.0022956825549340643
3414.0,-0.0022092729880145434
3413.0,-0.0021660617565077978
3412.0,-0.0022092729880145434
3411.0,-0.0022956825549340643
3410.0,-0.0023820749327607693
3409.0,-0.0024684501283323
3408.0,-0.0024252646779014952
3407.0,-0.002338880892056583
3406.0,-0.0021660617565077978
3405.0,-0.0019931738235303698
3404.0,-0.0019931738235303698
3403.0,-0.0020364022595291686
3402.0,-0.0021660617565077978
3401.0,-0.0022524799205383417
3400.0,-0.0022956825549340643
3399.0,-0.0022524799205383417
3398.0,-0.0022524799205383417
3397.0,-0.0022524799205383417
3396.0,-0.0022956825549340643
3395.0,-0.002338880892056583
3394.0,-0.0023820749327607693
3393.0,-0.0024252646779014952
3392.0,-0.0023820749327607693
3391.0,-0.0023820749327607693
3390.0,-0.002338880892056583
3389.0,-0.0022956825549340643
3388.0,-0.0022524799205383417
3387.0,-0.0022524799205383417
3386.0,-0.0022956825549340643
3385.0,-0.002338880892056583
3384.0,-0.0024252646779014952
3383.0,-0.0024684501283323
3382.0,-0.0025116312849080558
3381.0,-0.0025548081484823015
3380.0,-0.0025548081484823015
3379.0,-0.0025548081484823015
3378.0,-0.0025548081484823015
3377.0,-0.0025548081484823015
3376.0,-0.0025548081484823015
3375.0,-0.0025548081484823015
3374.0,-0.0025548081484823015
3373.0,-0.0025116312849080558
3372.0,-0.0024252646779014952
3371.0,-0.0022956825549340643
3370.0,-0.0022092729880145434
3369.0,-0.0022092729880145434
3368.0,-0.0022524799205383417
3367.0,-0.0022524799205383417
3366.0,-0.0022524799205383417
3365.0,-0.0022092729880145434
3364.0,-0.0021660617565077978
3363.0,-0.0021660617565077978
3362.0,-0.0022092729880145434
3361.0,-0.0022524799205383417
3360.0,-0.0022524799205383417
3359.0,-0.0022524799205383417
3358.0,-0.0021660617565077978
3357.0,-0.0021228462251614566
3356.0,-0.0020796263931210923
3355.0,-0.0021660617565077978
3354.0,-0.0022956825549340643
3353.0,-0.0024252646779014952
3352.0,-0.0024684501283323
3351.0,-0.0023820749327607693
3350.0,-0.0022524799205383417
3349.0,-0.0021228462251614566
3348.0,-0.0020364022595291686
3347.0,-0.0020364022595291686
3346.0,-0.0020796263931210923
3345.0,-0.0021228462251614566
3344.0,-0.0021660617565077978
3343.0,-0.0021660617565077978
3342.0,-0.0021228462251614566
3341.0,-0.0021228462251614566
3340.0,-0.0021660617565077978
3339.0,-0.0022092729880145434
3338.0,-0.0022524799205383417
3337.0,-0.0022092729880145434
3336.0,-0.0022092729880145434
3335.0,-0.0022092729880145434
3334.0,-0.0022524799205383417
3333.0,-0.0022956825549340643
3332.0,-0.0022956825549340643
3331.0,-0.0022524799205383417
3330.0,-0.0022524799205383417
3329.0,-0.0022092729880145434
3328.0,-0.0022092729880145434
3327.0,-0.0022092729880145434
3326.0,-0.0022524799205383417
3325.0,-0.0022956825549340643
3324.0,-0.0023820749327607693
3323.0,-0.0024252646779014952
3322.0,-0.0023820749327607693
3321.0,-0.0022956825549340643
3320.0,-0.0022092729880145434
3319.0,-0.0021228462251614566
3318.0,-0.0021228462251614566
3317.0,-0.0021228462251614566
3316.0,-0.0021660617565077978
3315.0,-0.0022092729880145434
3314.0,-0.0021660617565077978
3313.0,-0.0021228462251614566
3312.0,-0.0021228462251614566
3311.0,-0.0021660617565077978
3310.0,-0.0022092729880145434
3309.0,-0.0021660617565077978
3308.0,-0.0020796263931210923
3307.0,-0.0019931738235303698
3306.0,-0.0019499410842680476
3305.0,-0.0019499410842680476
3304.0,-0.0019931738235303698
3303.0,-0.0020364022595291686
3302.0,-0.0020364022595291686
3301.0,-0.0019931738235303698
3300.0,-0.0019931738235303698
3299.0,-0.0020364022595291686
3298.0,-0.0021228462251614566
3297.0,-0.0021660617565077978
3296.0,-0.0021660617565077978
3295.0,-0.0021228462251614566
3294.0,-0.0021660617565077978
3293.0,-0.0021660617565077978
3292.0,-0.0022092729880145434
3291.0,-0.0021660617565077978
3290.0,-0.0021660617565077978
3289.0,-0.0021660617565077978
3288.0,-0.0021660617565077978
3287.0,-0.0022956825549340643
3286.0,-0.0023820749327607693
3285.0,-0.0024252646779014952
3284.0,-0.0024252646779014952
3283.0,-0.0023820749327607693
3282.0,-0.0022956825549340643
3281.0,-0.0022092729880145434
3280.0,-0.0021660617565077978
3279.0,-0.0021228462251614566
3278.0,-0.0021228462251614566
3277.0,-0.0021228462251614566
3276.0,-0.0021660617565077978
3275.0,-0.0021660617565077978
3274.0,-0.0022092729880145434
3273.0,-0.0022524799205383417
3272.0,-0.0022956825549340643
3271.0,-0.002338880892056583
3270.0,-0.0023820749327607693
3269.0,-0.002338880892056583
3268.0,-0.0022524799205383417
3267.0,-0.0021228462251614566
3266.0,-0.0020364022595291686
3265.0,-0.0020364022595291686
3264.0,-0.0020796263931210923
3263.0,-0.0021228462251614566
3262.0,-0.0021660617565077978
3261.0,-0.0022092729880145434
3260.0,-0.0022092729880145434
3259.0,-0.0022524799205383417
3258.0,-0.0022956825549340643
3257.0,-0.0023820749327607693
3256.0,-0.0024684501283323
3255.0,-0.0025116312849080558
3254.0,-0.0025116312849080558
3253.0,-0.0024684501283323
3252.0,-0.0024252646779014952
3251.0,-0.0024252646779014952
3250.0,-0.0024252646779014952
3249.0,-0.0024252646779014952
3248.0,-0.0024684501283323
3247.0,-0.0024684501283323
3246.0,-0.0024684501283323
3245.0,-0.0024252646779014952
3244.0,-0.0023820749327607693
3243.0,-0.002338880892056583
3242.0,-0.0022956825549340643
3241.0,-0.0022956825549340643
3240.0,-0.0022956825549340643
3239.0,-0.0022956825549340643
3238.0,-0.0022956825549340643
3237.0,-0.0022524799205383417
3236.0,-0.0022092729880145434
3235.0,-0.0022092729880145434
3234.0,-0.0022524799205383417
3233.0,-0.0022956825549340643
3232.0,-0.0023820749327607693
3231.0,-0.0024684501283323
3230.0,-0.0024684501283323
3229.0,-0.0024684501283323
3228.0,-0.0023820749327607693
3227.0,-0.002338880892056583
3226.0,-0.0022956825549340643
3225.0,-0.002338880892056583
3224.0,-0.0022956825549340643
3223.0,-0.0022524799205383417
3222.0,-0.0022092729880145434
3221.0,-0.0022524799205383417
3220.0,-0.0022956825549340643
3219.0,-0.002338880892056583
3218.0,-0.0024252646779014952
3217.0,-0.0024684501283323
3216.0,-0.0024252646779014952
3215.0,-0.0023820749327607693
3214.0,-0.0022956825549340643
3213.0,-0.0022092729880145434
3212.0,-0.0022092729880145434
3211.0,-0.0022956825549340643
3210.0,-0.002338880892056583
3209.0,-0.0023820749327607693
3208.0,-0.0024252646779014952
3207.0,-0.0025116312849080558
3206.0,-0.0026411490000399773
3205.0,-0.0027274726898296464
3204.0,-0.0027274726898296464
3203.0,-0.002684312989729598
3202.0,-0.0026411490000399773
3201.0,-0.002597980719908577
3200.0,-0.002597980719908577
3199.0,-0.0025548081484823015
3198.0,-0.0025116312849080558
3197.0,-0.0024684501283323
3196.0,-0.0024252646779014952
3195.0,-0.0024684501283323
3194.0,-0.0024684501283323
3193.0,-0.0024684501283323
3192.0,-0.0024684501283323
3191.0,-0.0025116312849080558
3190.0,-0.0025548081484823015
3189.0,-0.002597980719908577
3188.0,-0.0026411490000399773
3187.0,-0.002597980719908577
3186.0,-0.0025548081484823015
3185.0,-0.0025116312849080558
3184.0,-0.0024684501283323
3183.0,-0.0024684501283323
3182.0,-0.0024684501283323
3181.0,-0.0025116312849080558
3180.0,-0.0025548081484823015
3179.0,-0.0025548081484823015
3178.0,-0.0025548081484823015
3177.0,-0.0024684501283323
3176.0,-0.0023820749327607693
3175.0,-0.0022956825549340643
3174.0,-0.0022956825549340643
3173.0,-0.0022956825549340643
3172.0,-0.002338880892056583
3171.0,-0.0024252646779014952
3170.0,-0.0024684501283323
3169.0,-0.0024684501283323
3168.0,-0.0024684501283323
3167.0,-0.0024252646779014952
3166.0,-0.0024684501283323
3165.0,-0.0024684501283323
3164.0,-0.0024252646779014952
3163.0,-0.0024252646779014952
3162.0,-0.002338880892056583
3161.0,-0.0022956825549340643
3160.0,-0.0022524799205383417
3159.0,-0.0022956825549340643
3158.0,-0.0024684501283323
3157.0,-0.0026411490000399773
3156.0,-0.002856926061120646
3155.0,-0.0029432068763250996
3154.0,-0.0029432068763250996
3153.0,-0.002900068611387585
3152.0,-0.0028137792246734072
3151.0,-0.0027274726898296464
3150.0,-0.0027274726898296464
3149.0,-0.0027706281011936618
3148.0,-0.0028137792246734072
3147.0,-0.0027706281011936618
3146.0,-0.002684312989729598
3145.0,-0.0026411490000399773
3144.0,-0.002597980719908577
3143.0,-0.0026411490000399773
3142.0,-0.0027274726898296464
3141.0,-0.0027706281011936618
3140.0,-0.0028137792246734072
3139.0,-0.0028137792246734072
3138.0,-0.0027706281011936618
3137.0,-0.0027706281011936618
3136.0,-0.0027274726898296464
3135.0,-0.0027274726898296464
3134.0,-0.0027706281011936618
3133.0,-0.0027706281011936618
3132.0,-0.002684312989729598
3131.0,-0.0026411490000399773
3130.0,-0.002597980719908577
3129.0,-0.0026411490000399773
3128.0,-0.0027706281011936618
3127.0,-0.002856926061120646
3126.0,-0.002856926061120646
3125.0,-0.0027706281011936618
3124.0,-0.0027274726898296464
3123.0,-0.0027706281011936618
3122.0,-0.0028137792246734072
3121.0,-0.0028137792246734072
3120.0,-0.0027274726898296464
3119.0,-0.0026411490000399773
3118.0,-0.002597980719908577
3117.0,-0.002597980719908577
3116.0,-0.0026411490000399773
3115.0,-0.0026411490000399773
3114.0,-0.0026411490000399773
3113.0,-0.0026411490000399773
3112.0,-0.002597980719908577
3111.0,-0.002597980719908577
3110.0,-0.0026411490000399773
3109.0,-0.0026411490000399773
3108.0,-0.0026411490000399773
3107.0,-0.0026411490000399773
3106.0,-0.0026411490000399773
3105.0,-0.002684312989729598
3104.0,-0.0027706281011936618
3103.0,-0.002856926061120646
3102.0,-0.002900068611387585
3101.0,-0.002856926061120646
3100.0,-0.0027706281011936618
3099.0,-0.0026411490000399773
3098.0,-0.0025548081484823015
3097.0,-0.002597980719908577
3096.0,-0.0026411490000399773
3095.0,-0.0027274726898296464
3094.0,-0.0027706281011936618
3093.0,-0.002684312989729598
3092.0,-0.002597980719908577
3091.0,-0.0025548081484823015
3090.0,-0.002597980719908577
3089.0,-0.0026411490000399773
3088.0,-0.002684312989729598
3087.0,-0.002684312989729598
3086.0,-0.002684312989729598
3085.0,-0.0026411490000399773
3084.0,-0.0026411490000399773
3083.0,-0.0026411490000399773
3082.0,-0.0026411490000399773
3081.0,-0.0026411490000399773
3080.0,-0.0026411490000399773
3079.0,-0.002597980719908577
3078.0,-0.002597980719908577
3077.0,-0.002597980719908577
3076.0,-0.002597980719908577
3075.0,-0.002684312989729598
3074.0,-0.0027274726898296464
3073.0,-0.0027706281011936618
3072.0,-0.0027706281011936618
3071.0,-0.0027274726898296464
3070.0,-0.0026411490000399773
3069.0,-0.002597980719908577
3068.0,-0.002597980719908577
3067.0,-0.002597980719908577
3066.0,-0.0026411490000399773
3065.0,-0.0026411490000399773
3064.0,-0.002684312989729598
3063.0,-0.002684312989729598
3062.0,-0.002684312989729598
3061.0,-0.0026411490000399773
3060.0,-0.0026411490000399773
3059.0,-0.0026411490000399773
3058.0,-0.0026411490000399773
3057.0,-0.0026411490000399773
3056.0,-0.002597980719908577
3055.0,-0.0025116312849080558
3054.0,-0.0025116312849080558
3053.0,-0.0025116312849080558
3052.0,-0.0025116312849080558
3051.0,-0.0025116312849080558
3050.0,-0.0024684501283323
3049.0,-0.0023820749327607693
3048.0,-0.0023820749327607693
3047.0,-0.0023820749327607693
3046.0,-0.0024684501283323
3045.0,-0.0024684501283323
3044.0,-0.0024684501283323
3043.0,-0.0024684501283323
3042.0,-0.0024252646779014952
3041.0,-0.0023820749327607693
3040.0,-0.002338880892056583
3039.0,-0.0022524799205383417
3038.0,-0.0021660617565077978
3037.0,-0.0020796263931210923
3036.0,-0.0020364022595291686
3035.0,-0.0019931738235303698
3034.0,-0.0019931738235303698
3033.0,-0.0020364022595291686
3032.0,-0.0020364022595291686
3031.0,-0.0019931738235303698
3030.0,-0.0018634626925240205
3029.0,-0.0016904542321527494
3028.0,-0.0015606526425728795
3027.0,-0.0013875234866409514
3026.0,-0.001257631312230778
3025.0,-0.001041057986093552
3024.0,-0.0008243766056055257
3023.0,-0.0006075870628903246
3022.0,-0.0003906892499099257
3021.0,-0.00021709297223004853
3020.0,-4.3427276862573194e-05
3019.0,0.00026065489343207737
3018.0,0.0006084382809090627
3017.0,0.0010870956412141197
3016.0,0.0015662811355310335
3015.0,0.0020459959305969555
3014.0,0.002482560585275184
3013.0,0.0029632891174733444
3012.0,0.0034445503666347133
3011.0,0.00401400208620073
3010.0,0.004671990922590297
3009.0,0.005330978174470591
3008.0,0.006035001804881146
3007.0,0.006696062080525422
3006.0,0.007402303897961815
3005.0,0.008153946355103248
3004.0,0.008951223547323472
3003.0,0.009705553871561357
3002.0,0.01046119667949763
3001.0,0.01117359295472431
3000.0,0.011753276624621556
2999.0,0.012244383261476699
2998.0,0.01260190086298274
2997.0,0.012870232340102872
2996.0,0.013004460275618523
2995.0,0.013004460275618523
2994.0,0.012780770091995297
2993.0,0.012423105273012602
2992.0,0.011887159731648111
2991.0,0.01117359295472431
2990.0,0.01037222925484893
2989.0,0.009527946474380489
2988.0,0.0087296108049002
2987.0,0.007932739972333236
2986.0,0.007181479933320523
2985.0,0.006431517210272464
2984.0,0.005814871797682919
2983.0,0.0052870145684298375
2982.0,0.004935465843858511
2981.0,0.004671990922590297
2980.0,0.004452550524862486
2979.0,0.004277078004534696
2978.0,0.0040578370074493275
2977.0,0.0038387066319929275
2976.0,0.0036634819042162814
2975.0,0.0035321097382827737
2974.0,0.003488327845821315
2973.0,0.003488327845821315
2972.0,0.0035321097382827737
2971.0,0.0035321097382827737
2970.0,0.003619686766589858
2969.0,0.0037510854308679953
2968.0,0.003926345514724705
2967.0,0.0040578370074493275
2966.0,0.004145520125434121
2965.0,0.004233220950025984
2964.0,0.004320939488377862
2963.0,0.004452550524862486
2962.0,0.004628093971837721
2961.0,0.00484762310854614
2960.0,0.005111204635089406
2959.0,0.00541891874010525
2958.0,0.00577085918230158
2957.0,0.00612308505878878
2956.0,0.006475596832934416
2955.0,0.006916639301937977
2954.0,0.007402303897961815
2953.0,0.007976972236149349
2952.0,0.008640997362049818
2951.0,0.009306039320248427
2950.0,0.009927665307847056
2949.0,0.010505687227290839
2948.0,0.011039929609661936
2947.0,0.011485634166333858
2946.0,0.011708658092512314
2945.0,0.011708658092512314
2944.0,0.011485634166333858
2943.0,0.011084479487313281
2942.0,0.01046119667949763
2941.0,0.009705553871561357
2940.0,0.008951223547323472
2939.0,0.008198201155356077
2938.0,0.0074464821678643656
2937.0,0.006696062080525422
2936.0,0.006035001804881146
2935.0,0.005462895701502157
2934.0,0.005023326350308999
2933.0,0.004715892310740433
2932.0,0.004452550524862486
2931.0,0.004145520125434121
2930.0,0.0038825238627120395
2929.0,0.0036634819042162814
2928.0,0.003488327845821315
2927.0,0.0034007772998332353
2926.0,0.0033570086445275926
2925.0,0.0033132443998284966
2924.0,0.0032694845648473247
2923.0,0.0031819781204844855
2922.0,0.0030944893043338695
2921.0,0.0030070181092942683
2920.0,0.0029195645282691363
2919.0,0.0027884171674950053
2918.0,0.002613615602686581
2917.0,0.0024388843664115978
2916.0,0.0022205691343961664
2915.0,0.0019587356365717845
2914.0,0.0017406615763013722
2913.0,0.0014791171649619628
2912.0,0.001304841688344327
2911.0,0.0011306361176557367
2910.0,0.0010000277816797354
2909.0,0.0009565003968372565
2908.0,0.0009565003968372565
2907.0,0.0009565003968372565
2906.0,0.0009565003968372565
2905.0,0.0009129773741116676
2904.0,0.000869458712629001
2903.0,0.0007824344698965646
2902.0,0.0007389288868995258
2901.0,0.0006954276616513155
2900.0,0.0006954276616513155
2899.0,0.0006519307932786322
2898.0,0.0005649501236701937
2897.0,0.000521466320689834
2896.0,0.00043451177401765406
2895.0,0.0003910410285830057
2894.0,0.0003910410285830057
2893.0,0.0004779868710962365
2892.0,0.0005649501236701937
2891.0,0.0006084382809090627
2890.0,0.0006519307932786322
2889.0,0.0006954276616513155
2888.0,0.0007824344698965646
2887.0,0.0009129773741116676
2886.0,0.0011306361176557367
2885.0,0.001348404001626502
2884.0,0.0015226969634936083
2883.0,0.0016534626036355249
2882.0,0.0016970599014589638
2881.0,0.0016534626036355249
2880.0,0.0015226969634936083
2879.0,0.001348404001626502
2878.0,0.0011741809597138886
2877.0,0.0010000277816797354
2876.0,0.0008259444115150671
2875.0,0.0006519307932786322
2874.0,0.0003910410285830057
2873.0,8.686758342868472e-05
2872.0,-0.00021709297223004853
2871.0,-0.00043407747931878404
2870.0,-0.0006075870628903246
2869.0,-0.0006943158663546001
2868.0,-0.0007376737740329986
2867.0,-0.0007810273534953893
2866.0,-0.0008677215312267172
2865.0,-0.0009543984064577238
2864.0,-0.001041057986093552
2863.0,-0.001041057986093552
2862.0,-0.001041057986093552
2861.0,-0.001041057986093552
2860.0,-0.0009543984064577238
2859.0,-0.0009110621312231615
2858.0,-0.0008677215312267172
2857.0,-0.0009110621312231615
2856.0,-0.0009543984064577238
2855.0,-0.0009543984064577238
2854.0,-0.0008677215312267172
2853.0,-0.0007376737740329986
2852.0,-0.0006075870628903246
2851.0,-0.0004774613744551459
2850.0,-0.0004774613744551459
2849.0,-0.0006075870628903246
2848.0,-0.0007810273534953893
2847.0,-0.001041057986093552
2846.0,-0.001257631312230778
2845.0,-0.001344230411601366
2844.0,-0.0013875234866409514
2843.0,-0.0013875234866409514
2842.0,-0.0014308122463981832
2841.0,-0.0014308122463981832
2840.0,-0.001474096691732818
2839.0,-0.0015606526425728795
2838.0,-0.0016039241497978196
2837.0,-0.0016904542321527494
2836.0,-0.001733712809000476
2835.0,-0.001733712809000476
2834.0,-0.001776967077439462
2833.0,-0.001776967077439462
2832.0,-0.0018202170383281313
2831.0,-0.0018202170383281313
2830.0,-0.0018202170383281313
2829.0,-0.0018202170383281313
2828.0,-0.0018634626925240205
2827.0,-0.0019067040408846658
2826.0,-0.0019499410842680476
2825.0,-0.0019931738235303698
2824.0,-0.0020364022595291686
2823.0,-0.0020364022595291686
2822.0,-0.0020364022595291686
2821.0,-0.0021228462251614566
2820.0,-0.0021660617565077978
2819.0,-0.0022092729880145434
2818.0,-0.0021660617565077978
2817.0,-0.0021660617565077978
2816.0,-0.0021228462251614566
2815.0,-0.0021660617565077978
2814.0,-0.0022092729880145434
2813.0,-0.0022524799205383417
2812.0,-0.002338880892056583
2811.0,-0.0024684501283323
2810.0,-0.0025548081484823015
2809.0,-0.0025548081484823015
2808.0,-0.0025116312849080558
2807.0,-0.0024684501283323
2806.0,-0.0024684501283323
2805.0,-0.0025116312849080558
2804.0,-0.0025116312849080558
2803.0,-0.0025548081484823015
2802.0,-0.0025548081484823015
2801.0,-0.002597980719908577
2800.0,-0.002597980719908577
2799.0,-0.0025548081484823015
2798.0,-0.0025548081484823015
2797.0,-0.0025548081484823015
2796.0,-0.0025116312849080558
2795.0,-0.0025116312849080558
2794.0,-0.0025116312849080558
2793.0,-0.002597980719908577
2792.0,-0.0026411490000399773
2791.0,-0.0026411490000399773
2790.0,-0.0026411490000399773
2789.0,-0.0025548081484823015
2788.0,-0.0025548081484823015
2787.0,-0.0025548081484823015
2786.0,-0.002597980719908577
2785.0,-0.0026411490000399773
2784.0,-0.0026411490000399773
2783.0,-0.002684312989729598
2782.0,-0.0027274726898296464
2781.0,-0.002684312989729598
2780.0,-0.002684312989729598
2779.0,-0.0026411490000399773
2778.0,-0.0026411490000399773
2777.0,-0.0026411490000399773
2776.0,-0.0027274726898296464
2775.0,-0.0027706281011936618
2774.0,-0.002856926061120646
2773.0,-0.002900068611387585
2772.0,-0.002900068611387585
2771.0,-0.0029432068763250996
2770.0,-0.0029432068763250996
2769.0,-0.002900068611387585
2768.0,-0.002900068611387585
2767.0,-0.002856926061120646
2766.0,-0.002856926061120646
2765.0,-0.002856926061120646
2764.0,-0.0028137792246734072
2763.0,-0.0027706281011936618
2762.0,-0.0027706281011936618
2761.0,-0.0027706281011936618
2760.0,-0.0027274726898296464
2759.0,-0.0027274726898296464
2758.0,-0.0027706281011936618
2757.0,-0.0028137792246734072
2756.0,-0.002856926061120646
2755.0,-0.002900068611387585
2754.0,-0.0029432068763250996
2753.0,-0.0029432068763250996
2752.0,-0.0029432068763250996
2751.0,-0.002900068611387585
2750.0,-0.002856926061120646
2749.0,-0.002856926061120646
2748.0,-0.002856926061120646
2747.0,-0.002856926061120646
2746.0,-0.002856926061120646
2745.0,-0.0028137792246734072
2744.0,-0.0027706281011936618
2743.0,-0.002684312989729598
2742.0,-0.0026411490000399773
2741.0,-0.002597980719908577
2740.0,-0.002597980719908577
2739.0,-0.002597980719908577
2738.0,-0.0026411490000399773
2737.0,-0.002684312989729598
2736.0,-0.002684312989729598
2735.0,-0.0027274726898296464
2734.0,-0.0027706281011936618
2733.0,-0.002856926061120646
2732.0,-0.002900068611387585
2731.0,-0.002900068611387585
2730.0,-0.002856926061120646
2729.0,-0.002856926061120646
2728.0,-0.0028137792246734072
2727.0,-0.0028137792246734072
2726.0,-0.0027706281011936618
2725.0,-0.0027274726898296464
2724.0,-0.002684312989729598
2723.0,-0.002684312989729598
2722.0,-0.0027274726898296464
2721.0,-0.0027706281011936618
2720.0,-0.0027706281011936618
2719.0,-0.0027706281011936618
2718.0,-0.0027706281011936618
2717.0,-0.0028137792246734072
2716.0,-0.002856926061120646
2715.0,-0.002856926061120646
2714.0,-0.0028137792246734072
2713.0,-0.002684312989729598
2712.0,-0.002597980719908577
2711.0,-0.0025548081484823015
2710.0,-0.0025548081484823015
2709.0,-0.0026411490000399773
2708.0,-0.0027274726898296464
2707.0,-0.0028137792246734072
2706.0,-0.0028137792246734072
2705.0,-0.0027706281011936618
2704.0,-0.0026411490000399773
2703.0,-0.0025548081484823015
2702.0,-0.0025548081484823015
2701.0,-0.0025548081484823015
2700.0,-0.0026411490000399773
2699.0,-0.0027706281011936618
2698.0,-0.002856926061120646
2697.0,-0.002900068611387585
2696.0,-0.002900068611387585
2695.0,-0.002900068611387585
2694.0,-0.0029432068763250996
2693.0,-0.002900068611387585
2692.0,-0.002856926061120646
2691.0,-0.0028137792246734072
2690.0,-0.0028137792246734072
2689.0,-0.0028137792246734072
2688.0,-0.0027706281011936618
2687.0,-0.0027706281011936618
2686.0,-0.0027274726898296464
2685.0,-0.002684312989729598
2684.0,-0.0026411490000399773
2683.0,-0.002597980719908577
2682.0,-0.002597980719908577
2681.0,-0.002597980719908577
2680.0,-0.002597980719908577
2679.0,-0.0026411490000399773
2678.0,-0.002684312989729598
2677.0,-0.002684312989729598
2676.0,-0.0026411490000399773
2675.0,-0.002597980719908577
2674.0,-0.0025116312849080558
2673.0,-0.0024252646779014952
2672.0,-0.0023820749327607693
2671.0,-0.0024252646779014952
2670.0,-0.0025116312849080558
2669.0,-0.002597980719908577
2668.0,-0.0026411490000399773
2667.0,-0.0026411490000399773
2666.0,-0.002684312989729598
2665.0,-0.002684312989729598
2664.0,-0.002684312989729598
2663.0,-0.002684312989729598
2662.0,-0.0027274726898296464
2661.0,-0.0027274726898296464
2660.0,-0.0027274726898296464
2659.0,-0.0027274726898296464
2658.0,-0.0027274726898296464
2657.0,-0.002684312989729598
2656.0,-0.002597980719908577
2655.0,-0.0025116312849080558
2654.0,-0.0025116312849080558
2653.0,-0.0025116312849080558
2652.0,-0.0025548081484823015
2651.0,-0.0025548081484823015
2650.0,-0.0025548081484823015
2649.0,-0.0024684501283323
2648.0,-0.002338880892056583
2647.0,-0.0022524799205383417
2646.0,-0.0022524799205383417
2645.0,-0.0022956825549340643
2644.0,-0.002338880892056583
2643.0,-0.0023820749327607693
2642.0,-0.0024252646779014952
2641.0,-0.0024252646779014952
2640.0,-0.0024684501283323
2639.0,-0.0024684501283323
2638.0,-0.0025116312849080558
2637.0,-0.0025116312849080558
2636.0,-0.0025116312849080558
2635.0,-0.0025116312849080558
2634.0,-0.0025548081484823015
2633.0,-0.002597980719908577
2632.0,-0.0026411490000399773
2631.0,-0.002684312989729598
2630.0,-0.0027274726898296464
2629.0,-0.0027274726898296464
2628.0,-0.0026411490000399773
2627.0,-0.0025548081484823015
2626.0,-0.0024684501283323
2625.0,-0.0024684501283323
2624.0,-0.0025116312849080558
2623.0,-0.002597980719908577
2622.0,-0.002684312989729598
2621.0,-0.002684312989729598
2620.0,-0.002684312989729598
2619.0,-0.002684312989729598
2618.0,-0.0026411490000399773
2617.0,-0.0026411490000399773
2616.0,-0.002597980719908577
2615.0,-0.0026411490000399773
2614.0,-0.0026411490000399773
2613.0,-0.002684312989729598
2612.0,-0.0027706281011936618
2611.0,-0.0028137792246734072
2610.0,-0.0028137792246734072
2609.0,-0.0028137792246734072
2608.0,-0.0027706281011936618
2607.0,-0.0027706281011936618
2606.0,-0.0027274726898296464
2605.0,-0.0027274726898296464
2604.0,-0.0027274726898296464
2603.0,-0.0027706281011936618
2602.0,-0.0028137792246734072
2601.0,-0.002856926061120646
2600.0,-0.0028137792246734072
2599.0,-0.0027274726898296464
2598.0,-0.002684312989729598
2597.0,-0.002684312989729598
2596.0,-0.002684312989729598
2595.0,-0.002684312989729598
2594.0,-0.002684312989729598
2593.0,-0.0026411490000399773
2592.0,-0.0025548081484823015
2591.0,-0.0025548081484823015
2590.0,-0.0025548081484823015
2589.0,-0.002597980719908577
2588.0,-0.0026411490000399773
2587.0,-0.002684312989729598
2586.0,-0.002684312989729598
2585.0,-0.002684312989729598
2584.0,-0.002684312989729598
2583.0,-0.0027274726898296464
2582.0,-0.0028137792246734072
2581.0,-0.002900068611387585
2580.0,-0.0029432068763250996
2579.0,-0.002900068611387585
2578.0,-0.002900068611387585
2577.0,-0.002856926061120646
2576.0,-0.0028137792246734072
2575.0,-0.0028137792246734072
2574.0,-0.0028137792246734072
2573.0,-0.0027706281011936618
2572.0,-0.0027274726898296464
2571.0,-0.0027274726898296464
2570.0,-0.0027274726898296464
2569.0,-0.0028137792246734072
2568.0,-0.002856926061120646
2567.0,-0.002900068611387585
2566.0,-0.002900068611387585
2565.0,-0.002900068611387585
2564.0,-0.002856926061120646
2563.0,-0.002900068611387585
2562.0,-0.0029432068763250996
2561.0,-0.0029432068763250996
2560.0,-0.002900068611387585
2559.0,-0.002900068611387585
2558.0,-0.002900068611387585
2557.0,-0.0029432068763250996
2556.0,-0.0029432068763250996
2555.0,-0.0029432068763250996
2554.0,-0.0029432068763250996
2553.0,-0.002900068611387585
2552.0,-0.002900068611387585
2551.0,-0.002900068611387585
2550.0,-0.002900068611387585
2549.0,-0.002900068611387585
2548.0,-0.002900068611387585
2547.0,-0.002900068611387585
2546.0,-0.0029432068763250996
2545.0,-0.0029863408567849525
2544.0,-0.0029432068763250996
2543.0,-0.0029432068763250996
2542.0,-0.002900068611387585
2541.0,-0.002900068611387585
2540.0,-0.002900068611387585
2539.0,-0.002856926061120646
2538.0,-0.002856926061120646
2537.0,-0.002856926061120646
2536.0,-0.002856926061120646
2535.0,-0.002856926061120646
2534.0,-0.0028137792246734072
2533.0,-0.0028137792246734072
2532.0,-0.0027706281011936618
2531.0,-0.0027274726898296464
2530.0,-0.0027706281011936618
2529.0,-0.0028137792246734072
2528.0,-0.002856926061120646
2527.0,-0.002856926061120646
2526.0,-0.002856926061120646
2525.0,-0.0028137792246734072
2524.0,-0.002856926061120646
2523.0,-0.002900068611387585
2522.0,-0.003029470553618019
2521.0,-0.0030725959676747294
2520.0,-0.0030725959676747294
2519.0,-0.0029863408567849525
2518.0,-0.0029432068763250996
2517.0,-0.0029432068763250996
2516.0,-0.0029432068763250996
2515.0,-0.0029432068763250996
2514.0,-0.0029863408567849525
2513.0,-0.003029470553618019
2512.0,-0.0030725959676747294
2511.0,-0.003158833950862139
2510.0,-0.003158833950862139
2509.0,-0.003115717099805959
2508.0,-0.0030725959676747294
2507.0,-0.0030725959676747294
2506.0,-0.003115717099805959
2505.0,-0.003158833950862139
2504.0,-0.003158833950862139
2503.0,-0.003201946521692367
2502.0,-0.0032450548131470747
2501.0,-0.0032450548131470747
2500.0,-0.0032450548131470747
2499.0,-0.0032450548131470747
2498.0,-0.0032450548131470747
2497.0,-0.0032450548131470747
2496.0,-0.003201946521692367
2495.0,-0.003201946521692367
2494.0,-0.003158833950862139
2493.0,-0.003158833950862139
2492.0,-0.003158833950862139
2491.0,-0.003115717099805959
2490.0,-0.0030725959676747294
2489.0,-0.003029470553618019
2488.0,-0.003029470553618019
2487.0,-0.003029470553618019
2486.0,-0.0030725959676747294
2485.0,-0.003115717099805959
2484.0,-0.003158833950862139
2483.0,-0.0032450548131470747
2482.0,-0.0032450548131470747
2481.0,-0.003201946521692367
2480.0,-0.003115717099805959
2479.0,-0.003115717099805959
2478.0,-0.003115717099805959
2477.0,-0.003115717099805959
2476.0,-0.003115717099805959
2475.0,-0.0030725959676747294
2474.0,-0.0030725959676747294
2473.0,-0.003115717099805959
2472.0,-0.003115717099805959
2471.0,-0.003158833950862139
2470.0,-0.003201946521692367
2469.0,-0.0032450548131470747
2468.0,-0.0032881588260753603
2467.0,-0.0032881588260753603
2466.0,-0.0033312585613267665
2465.0,-0.0032881588260753603
2464.0,-0.0032450548131470747
2463.0,-0.003201946521692367
2462.0,-0.003158833950862139
2461.0,-0.003115717099805959
2460.0,-0.0030725959676747294
2459.0,-0.0030725959676747294
2458.0,-0.003115717099805959
2457.0,-0.003158833950862139
2456.0,-0.003201946521692367
2455.0,-0.0032881588260753603
2454.0,-0.0033312585613267665
2453.0,-0.0034174452021935586
2452.0,-0.0034174452021935586
2451.0,-0.0033743540197499478
2450.0,-0.0033312585613267665
2449.0,-0.0032450548131470747
2448.0,-0.003115717099805959
2447.0,-0.0030725959676747294
2446.0,-0.0030725959676747294
2445.0,-0.003029470553618019
2444.0,-0.0029863408567849525
2443.0,-0.0029863408567849525
2442.0,-0.003029470553618019
2441.0,-0.003029470553618019
2440.0,-0.003029470553618019
2439.0,-0.0029863408567849525
2438.0,-0.0029863408567849525
2437.0,-0.0029863408567849525
2436.0,-0.003029470553618019
2435.0,-0.0030725959676747294
2434.0,-0.003115717099805959
2433.0,-0.003115717099805959
2432.0,-0.003115717099805959
2431.0,-0.003158833950862139
2430.0,-0.003158833950862139
2429.0,-0.003115717099805959
2428.0,-0.003029470553618019
2427.0,-0.0029863408567849525
2426.0,-0.0029432068763250996
2425.0,-0.002856926061120646
2424.0,-0.0027706281011936618
2423.0,-0.002684312989729598
2422.0,-0.0026411490000399773
2421.0,-0.002684312989729598
2420.0,-0.002684312989729598
2419.0,-0.002684312989729598
2418.0,-0.0026411490000399773
2417.0,-0.0026411490000399773
2416.0,-0.002684312989729598
2415.0,-0.0027274726898296464
2414.0,-0.0027706281011936618
2413.0,-0.0027706281011936618
2412.0,-0.0027274726898296464
2411.0,-0.0027274726898296464
2410.0,-0.002684312989729598
2409.0,-0.002684312989729598
2408.0,-0.002597980719908577
2407.0,-0.002597980719908577
2406.0,-0.0025548081484823015
2405.0,-0.0025116312849080558
2404.0,-0.0024684501283323
2403.0,-0.0024684501283323
2402.0,-0.0024684501283323
2401.0,-0.0024684501283323
2400.0,-0.0025116312849080558
2399.0,-0.0025116312849080558
2398.0,-0.002597980719908577
2397.0,-0.002684312989729598
2396.0,-0.002684312989729598
2395.0,-0.002684312989729598
2394.0,-0.0026411490000399773
2393.0,-0.002597980719908577
2392.0,-0.002597980719908577
2391.0,-0.002597980719908577
2390.0,-0.0026411490000399773
2389.0,-0.0026411490000399773
2388.0,-0.0026411490000399773
2387.0,-0.0027706281011936618
2386.0,-0.0029432068763250996
2385.0,-0.003201946521692367
2384.0,-0.0034174452021935586
2383.0,-0.0035897671891400584
2382.0,-0.0037189638231147626
2381.0,-0.003891166236910326
2380.0,-0.004106323279658319
2379.0,-0.004407364176330919
2378.0,-0.004708196544336296
2377.0,-0.004922949296525481
2376.0,-0.005008820672367076
2375.0,-0.004965887106823441
2374.0,-0.004837060938309712
2373.0,-0.004622265700782613
2372.0,-0.004364371107751008
2371.0,-0.0042353663594676405
2370.0,-0.004321373782642635
2369.0,-0.004493337547274212
2368.0,-0.004794110388711914
2367.0,-0.005309236848516363
2366.0,-0.005995123054691298
2365.0,-0.006252051369364686
2364.0,-0.005695181118510195
2363.0,-0.004536317851322913
2362.0,-0.0033312585613267665
2361.0,-0.002684312989729598
2360.0,-0.002856926061120646
2359.0,-0.0037189638231147626
2358.0,-0.004536317851322913
2357.0,-0.004751155591001144
2356.0,-0.004708196544336296
2355.0,-0.005094675072548682
2354.0,-0.005780899954652252
2353.0,-0.006037954997317296
2352.0,-0.005780899954652252
2351.0,-0.005566571133294396
2350.0,-0.00582375302902749
2349.0,-0.006637159068586307
2348.0,-0.00766244653727588
2347.0,-0.008387230114158761
2346.0,-0.008472419302722134
2345.0,-0.008003671840159488
2344.0,-0.007278247334244092
2343.0,-0.006551609086648202
2342.0,-0.005995123054691298
2341.0,-0.005566571133294396
2340.0,-0.005309236848516363
2339.0,-0.005352136486216796
2338.0,-0.00552369267327979
2337.0,-0.005566571133294396
2336.0,-0.005352136486216796
2335.0,-0.005137595908863979
2334.0,-0.005051749993995713
2333.0,-0.005094675072548682
2332.0,-0.005180512503780488
2331.0,-0.005137595908863979
2330.0,-0.004922949296525481
2329.0,-0.0045792939022115675
2328.0,-0.0042353663594676405
2327.0,-0.004063300397667113
2326.0,-0.004063300397667113
2325.0,-0.004106323279658319
2324.0,-0.004149341900058889
2323.0,-0.004192356259714369
2322.0,-0.0042353663594676405
2321.0,-0.004149341900058889
2320.0,-0.0039772418455368275
2319.0,-0.0038481220342978517
2318.0,-0.0038481220342978517
2317.0,-0.003891166236910326
2316.0,-0.0039772418455368275
2315.0,-0.004149341900058889
2314.0,-0.0042783722001624724
2313.0,-0.004407364176330919
2312.0,-0.00445035298922436
2311.0,-0.004407364176330919
2310.0,-0.0042783722001624724
2309.0,-0.004106323279658319
2308.0,-0.003934206173708432
2307.0,-0.0038481220342978517
2306.0,-0.003934206173708432
2305.0,-0.004020273253241502
2304.0,-0.004063300397667113
2303.0,-0.004020273253241502
2302.0,-0.003934206173708432
2301.0,-0.003891166236910326
2300.0,-0.0038481220342978517
2299.0,-0.003891166236910326
2298.0,-0.003934206173708432
2297.0,-0.0039772418455368275
2296.0,-0.0039772418455368275
2295.0,-0.0039772418455368275
2294.0,-0.003934206173708432
2293.0,-0.003891166236910326
2292.0,-0.003805073565025019
2291.0,-0.0037189638231147626
2290.0,-0.003675902548784027
2289.0,-0.0035897671891400584
2288.0,-0.003546693102131737
2287.0,-0.0034605321095062536
2286.0,-0.0034605321095062536
2285.0,-0.0034605321095062536
2284.0,-0.0034605321095062536
2283.0,-0.003503614742536687
2282.0,-0.0035897671891400584
2281.0,-0.003675902548784027
2280.0,-0.0037189638231147626
2279.0,-0.003762020828246282
2278.0,-0.003805073565025019
2277.0,-0.003805073565025019
2276.0,-0.003762020828246282
2275.0,-0.003762020828246282
2274.0,-0.003762020828246282
2273.0,-0.003762020828246282
2272.0,-0.0037189638231147626
2271.0,-0.0037189638231147626
2270.0,-0.0037189638231147626
2269.0,-0.0037189638231147626
2268.0,-0.0037189638231147626
2267.0,-0.003675902548784027
2266.0,-0.003675902548784027
2265.0,-0.0037189638231147626
2264.0,-0.0037189638231147626
2263.0,-0.003762020828246282
2262.0,-0.003805073565025019
2261.0,-0.0038481220342978517
2260.0,-0.003891166236910326
2259.0,-0.003891166236910326
2258.0,-0.003891166236910326
2257.0,-0.0038481220342978517
2256.0,-0.003805073565025019
2255.0,-0.003762020828246282
2254.0,-0.003762020828246282
2253.0,-0.003805073565025019
2252.0,-0.003805073565025019
2251.0,-0.003762020828246282
2250.0,-0.003675902548784027
2249.0,-0.0035897671891400584
2248.0,-0.003546693102131737
2247.0,-0.003546693102131737
2246.0,-0.0035897671891400584
2245.0,-0.003632837004408529
2244.0,-0.0035897671891400584
2243.0,-0.0035897671891400584
2242.0,-0.0035897671891400584
2241.0,-0.003632837004408529
2240.0,-0.003675902548784027
2239.0,-0.0037189638231147626
2238.0,-0.003762020828246282
2237.0,-0.003762020828246282
2236.0,-0.0037189638231147626
2235.0,-0.0037189638231147626
2234.0,-0.003762020828246282
2233.0,-0.0038481220342978517
2232.0,-0.003891166236910326
2231.0,-0.003891166236910326
2230.0,-0.003891166236910326
2229.0,-0.0038481220342978517
2228.0,-0.003805073565025019
2227.0,-0.003805073565025019
2226.0,-0.0038481220342978517
2225.0,-0.003934206173708432
2224.0,-0.0039772418455368275
2223.0,-0.0039772418455368275
2222.0,-0.003891166236910326
2221.0,-0.0038481220342978517
2220.0,-0.0038481220342978517
2219.0,-0.003891166236910326
2218.0,-0.0039772418455368275
2217.0,-0.0039772418455368275
2216.0,-0.003934206173708432
2215.0,-0.003891166236910326
2214.0,-0.003891166236910326
2213.0,-0.003934206173708432
2212.0,-0.0039772418455368275
2211.0,-0.004020273253241502
2210.0,-0.004063300397667113
2209.0,-0.004063300397667113
2208.0,-0.004020273253241502
2207.0,-0.004063300397667113
2206.0,-0.004063300397667113
2205.0,-0.004063300397667113
2204.0,-0.004063300397667113
2203.0,-0.004106323279658319
2202.0,-0.004192356259714369
2201.0,-0.004321373782642635
2200.0,-0.004364371107751008
2199.0,-0.004407364176330919
2198.0,-0.004364371107751008
2197.0,-0.0042783722001624724
2196.0,-0.0042353663594676405
2195.0,-0.004192356259714369
2194.0,-0.004192356259714369
2193.0,-0.004192356259714369
2192.0,-0.004149341900058889
2191.0,-0.004149341900058889
2190.0,-0.004149341900058889
2189.0,-0.004149341900058889
2188.0,-0.004192356259714369
2187.0,-0.0042353663594676405
2186.0,-0.0042783722001624724
2185.0,-0.0042783722001624724
2184.0,-0.004192356259714369
2183.0,-0.004106323279658319
2182.0,-0.004020273253241502
2181.0,-0.004020273253241502
2180.0,-0.004020273253241502
2179.0,-0.004020273253241502
2178.0,-0.004020273253241502
2177.0,-0.0039772418455368275
2176.0,-0.003934206173708432
2175.0,-0.003934206173708432
2174.0,-0.0039772418455368275
2173.0,-0.004020273253241502
2172.0,-0.0039772418455368275
2171.0,-0.003934206173708432
2170.0,-0.003891166236910326
2169.0,-0.003891166236910326
2168.0,-0.003934206173708432
2167.0,-0.0039772418455368275
2166.0,-0.004020273253241502
2165.0,-0.004063300397667113
2164.0,-0.004063300397667113
2163.0,-0.004063300397667113
2162.0,-0.004063300397667113
2161.0,-0.004020273253241502
2160.0,-0.0039772418455368275
2159.0,-0.003934206173708432
2158.0,-0.003934206173708432
2157.0,-0.003934206173708432
2156.0,-0.0039772418455368275
2155.0,-0.004020273253241502
2154.0,-0.004020273253241502
2153.0,-0.004020273253241502
2152.0,-0.004020273253241502
2151.0,-0.004020273253241502
2150.0,-0.004020273253241502
2149.0,-0.004020273253241502
2148.0,-0.0039772418455368275
2147.0,-0.003934206173708432
2146.0,-0.003934206173708432
2145.0,-0.003934206173708432
2144.0,-0.003934206173708432
2143.0,-0.0039772418455368275
2142.0,-0.003934206173708432
2141.0,-0.003891166236910326
2140.0,-0.0038481220342978517
2139.0,-0.003805073565025019
2138.0,-0.003805073565025019
2137.0,-0.0038481220342978517
2136.0,-0.003891166236910326
2135.0,-0.003934206173708432
2134.0,-0.003891166236910326
2133.0,-0.003805073565025019
2132.0,-0.003675902548784027
2131.0,-0.0035897671891400584
2130.0,-0.0035897671891400584
2129.0,-0.0035897671891400584
2128.0,-0.0035897671891400584
2127.0,-0.003632837004408529
2126.0,-0.003675902548784027
2125.0,-0.0037189638231147626
2124.0,-0.0037189638231147626
2123.0,-0.003762020828246282
2122.0,-0.003805073565025019
2121.0,-0.003762020828246282
2120.0,-0.0037189638231147626
2119.0,-0.003632837004408529
2118.0,-0.0035897671891400584
2117.0,-0.0035897671891400584
2116.0,-0.003632837004408529
2115.0,-0.0037189638231147626
2114.0,-0.003805073565025019
2113.0,-0.003805073565025019
2112.0,-0.003805073565025019
2111.0,-0.003805073565025019
2110.0,-0.0038481220342978517
2109.0,-0.003805073565025019
2108.0,-0.003762020828246282
2107.0,-0.0037189638231147626
2106.0,-0.003675902548784027
2105.0,-0.003675902548784027
2104.0,-0.0035897671891400584
2103.0,-0.003546693102131737
2102.0,-0.003546693102131737
2101.0,-0.003546693102131737
2100.0,-0.003546693102131737
2099.0,-0.003632837004408529
2098.0,-0.003675902548784027
2097.0,-0.003632837004408529
2096.0,-0.003632837004408529
2095.0,-0.0035897671891400584
2094.0,-0.0035897671891400584
2093.0,-0.0035897671891400584
2092.0,-0.003546693102131737
2091.0,-0.003503614742536687
2090.0,-0.0034174452021935586
2089.0,-0.0033312585613267665
2088.0,-0.0032881588260753603
2087.0,-0.0032881588260753603
2086.0,-0.0033743540197499478
2085.0,-0.0034174452021935586
2084.0,-0.0034174452021935586
2083.0,-0.0033743540197499478
2082.0,-0.0033743540197499478
2081.0,-0.0033743540197499478
2080.0,-0.0033743540197499478
2079.0,-0.0034174452021935586
2078.0,-0.0034174452021935586
2077.0,-0.0034174452021935586
2076.0,-0.0034174452021935586
2075.0,-0.0034174452021935586
2074.0,-0.003503614742536687
2073.0,-0.003546693102131737
2072.0,-0.003546693102131737
2071.0,-0.003546693102131737
2070.0,-0.0035897671891400584
2069.0,-0.003632837004408529
2068.0,-0.003675902548784027
2067.0,-0.003675902548784027
2066.0,-0.003675902548784027
2065.0,-0.003675902548784027
2064.0,-0.0037189638231147626
2063.0,-0.003762020828246282
2062.0,-0.003762020828246282
2061.0,-0.003805073565025019
2060.0,-0.003805073565025019
2059.0,-0.0038481220342978517
2058.0,-0.0038481220342978517
2057.0,-0.0038481220342978517
2056.0,-0.0038481220342978517
2055.0,-0.003934206173708432
2054.0,-0.004020273253241502
2053.0,-0.004106323279658319
2052.0,-0.004106323279658319
2051.0,-0.004106323279658319
2050.0,-0.004192356259714369
2049.0,-0.004321373782642635
2048.0,-0.004364371107751008
2047.0,-0.004407364176330919
2046.0,-0.00445035298922436
2045.0,-0.004493337547274212
2044.0,-0.004493337547274212
2043.0,-0.004536317851322913
2042.0,-0.004536317851322913
2041.0,-0.004536317851322913
2040.0,-0.004493337547274212
2039.0,-0.00445035298922436
2038.0,-0.004493337547274212
2037.0,-0.0045792939022115675
2036.0,-0.004665233247877154
2035.0,-0.004708196544336296
2034.0,-0.004751155591001144
2033.0,-0.004794110388711914
2032.0,-0.004751155591001144
2031.0,-0.004751155591001144
2030.0,-0.004751155591001144
2029.0,-0.004794110388711914
2028.0,-0.004794110388711914
2027.0,-0.004794110388711914
2026.0,-0.004794110388711914
2025.0,-0.004794110388711914
2024.0,-0.004751155591001144
2023.0,-0.004708196544336296
2022.0,-0.004708196544336296
2021.0,-0.004751155591001144
2020.0,-0.004708196544336296
2019.0,-0.004665233247877154
2018.0,-0.004622265700782613
2017.0,-0.0045792939022115675
2016.0,-0.004536317851322913
2015.0,-0.004536317851322913
2014.0,-0.0045792939022115675
2013.0,-0.0045792939022115675
2012.0,-0.004493337547274212
2011.0,-0.004407364176330919
2010.0,-0.004364371107751008
2009.0,-0.004364371107751008
2008.0,-0.004364371107751008
2007.0,-0.004364371107751008
2006.0,-0.004407364176330919
2005.0,-0.004407364176330919
2004.0,-0.004407364176330919
2003.0,-0.004364371107751008
2002.0,-0.004364371107751008
2001.0,-0.004407364176330919
2000.0,-0.004407364176330919
1999.0,-0.004493337547274212
1998.0,-0.004536317851322913
1997.0,-0.0045792939022115675
1996.0,-0.004536317851322913
1995.0,-0.00445035298922436
1994.0,-0.00445035298922436
1993.0,-0.00445035298922436
1992.0,-0.00445035298922436
1991.0,-0.00445035298922436
1990.0,-0.004493337547274212
1989.0,-0.004493337547274212
1988.0,-0.004493337547274212
1987.0,-0.004493337547274212
1986.0,-0.004536317851322913
1985.0,-0.004493337547274212
1984.0,-0.004407364176330919
1983.0,-0.004364371107751008
1982.0,-0.004364371107751008
1981.0,-0.004407364176330919
1980.0,-0.004407364176330919
1979.0,-0.004407364176330919
1978.0,-0.004364371107751008
1977.0,-0.004321373782642635
1976.0,-0.0042353663594676405
1975.0,-0.0042353663594676405
1974.0,-0.0042353663594676405
1973.0,-0.0042353663594676405
1972.0,-0.0042353663594676405
1971.0,-0.0042353663594676405
1970.0,-0.0042353663594676405
1969.0,-0.0042353663594676405
1968.0,-0.004192356259714369
1967.0,-0.004192356259714369
1966.0,-0.0042353663594676405
1965.0,-0.0042353663594676405
1964.0,-0.004192356259714369
1963.0,-0.004192356259714369
1962.0,-0.004192356259714369
1961.0,-0.004192356259714369
1960.0,-0.004192356259714369
1959.0,-0.0042783722001624724
1958.0,-0.004364371107751008
1957.0,-0.004407364176330919
1956.0,-0.004407364176330919
1955.0,-0.00445035298922436
1954.0,-0.004493337547274212
1953.0,-0.004536317851322913
1952.0,-0.004536317851322913
1951.0,-0.0045792939022115675
1950.0,-0.004622265700782613
1949.0,-0.0045792939022115675
1948.0,-0.004536317851322913
1947.0,-0.004536317851322913
1946.0,-0.004622265700782613
1945.0,-0.004665233247877154
1944.0,-0.004751155591001144
1943.0,-0.004837060938309712
1942.0,-0.004922949296525481
1941.0,-0.004922949296525481
1940.0,-0.00488000724063431
1939.0,-0.004794110388711914
1938.0,-0.004837060938309712
1937.0,-0.004837060938309712
1936.0,-0.00488000724063431
1935.0,-0.004965887106823441
1934.0,-0.005051749993995713
1933.0,-0.005094675072548682
1932.0,-0.005094675072548682
1931.0,-0.005051749993995713
1930.0,-0.005051749993995713
1929.0,-0.005051749993995713
1928.0,-0.005008820672367076
1927.0,-0.004965887106823441
1926.0,-0.00488000724063431
1925.0,-0.004837060938309712
1924.0,-0.004794110388711914
1923.0,-0.004837060938309712
1922.0,-0.004837060938309712
1921.0,-0.004751155591001144
1920.0,-0.004708196544336296
1919.0,-0.004708196544336296
1918.0,-0.004837060938309712
1917.0,-0.00488000724063431
1916.0,-0.004837060938309712
1915.0,-0.004794110388711914
1914.0,-0.004794110388711914
1913.0,-0.004794110388711914
1912.0,-0.004708196544336296
1911.0,-0.004665233247877154
1910.0,-0.004708196544336296
1909.0,-0.004708196544336296
1908.0,-0.004708196544336296
1907.0,-0.004708196544336296
1906.0,-0.004751155591001144
1905.0,-0.004751155591001144
1904.0,-0.004751155591001144
1903.0,-0.004708196544336296
1902.0,-0.004751155591001144
1901.0,-0.004751155591001144
1900.0,-0.004751155591001144
1899.0,-0.004794110388711914
1898.0,-0.004837060938309712
1897.0,-0.004837060938309712
1896.0,-0.004837060938309712
1895.0,-0.00488000724063431
1894.0,-0.004922949296525481
1893.0,-0.004922949296525481
1892.0,-0.004837060938309712
1891.0,-0.004837060938309712
1890.0,-0.004922949296525481
1889.0,-0.004965887106823441
1888.0,-0.004922949296525481
1887.0,-0.00488000724063431
1886.0,-0.00488000724063431
1885.0,-0.00488000724063431
1884.0,-0.004837060938309712
1883.0,-0.004837060938309712
1882.0,-0.00488000724063431
1881.0,-0.00488000724063431
1880.0,-0.004837060938309712
1879.0,-0.004794110388711914
1878.0,-0.004794110388711914
1877.0,-0.004751155591001144
1876.0,-0.004708196544336296
1875.0,-0.004665233247877154
1874.0,-0.004665233247877154
1873.0,-0.004665233247877154
1872.0,-0.004622265700782613
1871.0,-0.004665233247877154
1870.0,-0.004794110388711914
1869.0,-0.00488000724063431
1868.0,-0.004837060938309712
1867.0,-0.004794110388711914
1866.0,-0.004751155591001144
1865.0,-0.004665233247877154
1864.0,-0.004536317851322913
1863.0,-0.004493337547274212
1862.0,-0.004536317851322913
1861.0,-0.0045792939022115675
1860.0,-0.004536317851322913
1859.0,-0.004493337547274212
1858.0,-0.004493337547274212
1857.0,-0.004407364176330919
1856.0,-0.004321373782642635
1855.0,-0.0042783722001624724
1854.0,-0.0042783722001624724
1853.0,-0.004192356259714369
1852.0,-0.004063300397667113
1851.0,-0.0039772418455368275
1850.0,-0.003934206173708432
1849.0,-0.003934206173708432
1848.0,-0.003805073565025019
1847.0,-0.003675902548784027
1846.0,-0.003632837004408529
1845.0,-0.003632837004408529
1844.0,-0.0035897671891400584
1843.0,-0.003546693102131737
1842.0,-0.003503614742536687
1841.0,-0.0033743540197499478
1840.0,-0.003201946521692367
1839.0,-0.003029470553618019
1838.0,-0.0029432068763250996
1837.0,-0.0028137792246734072
1836.0,-0.0026411490000399773
1835.0,-0.0025548081484823015
1834.0,-0.0024252646779014952
1833.0,-0.0022956825549340643
1832.0,-0.0020796263931210923
1831.0,-0.0019067040408846658
1830.0,-0.0018634626925240205
1829.0,-0.0016904542321527494
1828.0,-0.0013875234866409514
1827.0,-0.0011710149414008164
1826.0,-0.001041057986093552
1825.0,-0.0009110621312231615
1824.0,-0.0007376737740329986
1823.0,-0.0005642161653756084
1822.0,-0.0004774613744551459
1821.0,-0.0002604985473904087
1820.0,0.0
1819.0,0.00021720154586435392
1818.0,0.0003475746339209884
1817.0,0.00043451177401765406
1816.0,0.0005649501236701937
1815.0,0.0006519307932786322
1814.0,0.0007389288868995258
1813.0,0.0009129773741116676
1812.0,0.0012177301682640973
1811.0,0.0014791171649619628
1810.0,0.001609869681952425
1809.0,0.0017842676290416026
1808.0,0.0020459959305969555
1807.0,0.0022642234021015284
1806.0,0.0024388843664115978
1805.0,0.002701007590486082
1804.0,0.0031382315093266833
1803.0,0.0035758960449088217
1802.0,0.003926345514724705
1801.0,0.004452550524862486
1800.0,0.005067263269958211
1799.0,0.005594853310833647
1798.0,0.005990966876386672
1797.0,0.006519680930003435
1796.0,0.007225635744644521
1795.0,0.007932739972333236
1794.0,0.008773924307505121
1793.0,0.010105436281226954
1792.0,0.012110390002254778
1791.0,0.014124642691606404
1790.0,0.01596801972881945
1789.0,0.017955020928509757
1788.0,0.02026956933771462
1787.0,0.02300845469384938
1786.0,0.026318081496016443
1785.0,0.03025802323714588
1784.0,0.03432802877989327
1783.0,0.038199360808321536
1782.0,0.04229695845116854
1781.0,0.04715914332429838
1780.0,0.052419250695677544
1779.0,0.05709945885970602
1778.0,0.06108018775522828
1777.0,0.06489597884855036
1776.0,0.06864384953207203
1775.0,0.07221915065262552
1774.0,0.07628980560343712
1773.0,0.08244197917456386
1772.0,0.09023008526723086
1771.0,0.09685572959046151
1770.0,0.10204318999304807
1769.0,0.10784972209863586
1768.0,0.11531789579397489
1767.0,0.1233203895807995
1766.0,0.1304749371427727
1765.0,0.13721290176465573
1764.0,0.14532966810466452
1763.0,0.15676722190199066
1762.0,0.17159792150840691
1761.0,0.18641901143180806
1760.0,0.1979107421182673
1759.0,0.20718822875185294
1758.0,0.21752737583371373
1757.0,0.2304749798289496
1756.0,0.2423003749122612
1755.0,0.24918315735024543
1754.0,0.2519671058698565
1753.0,0.254534831329273
1752.0,0.25924267669222956
1751.0,0.26552021057442277
1750.0,0.2710783536271406
1749.0,0.27466018409026294
1748.0,0.27572413039921084
1747.0,0.2735988378970775
1746.0,0.2688142923659995
1745.0,0.2624893093265239
1744.0,0.25492520841794253
1743.0,0.24595761321456378
1742.0,0.23545028093553277
1741.0,0.22337144657984997
1740.0,0.20985563495709947
1739.0,0.19620159201032594
1738.0,0.1835598320438614
1737.0,0.17159792150840691
1736.0,0.15882830550046778
1735.0,0.14490504884137811
1734.0,0.1322379753497993
1733.0,0.12268625668776156
1732.0,0.114865033936566
1731.0,0.10746019534136453
1730.0,0.10061729446673495
1729.0,0.09441997176475758
1728.0,0.08884239126002336
1727.0,0.08407278830288423
1726.0,0.08003329851661278
1725.0,0.07644514193245056
1724.0,0.07304051161972436
1723.0,0.0699173666076287
1722.0,0.06712054217620067
1721.0,0.06439198148213077
1720.0,0.06148027482350815
1719.0,0.05858795962645047
1718.0,0.056406567231630955
1717.0,0.054728418492290265
1716.0,0.05256627811294923
1715.0,0.05021979163799939
1714.0,0.04803141550708934
1713.0,0.04585401117045196
1712.0,0.04359142880416744
1711.0,0.04138834223512067
1710.0,0.03938654235209116
1709.0,0.03763066432997886
1708.0,0.03578752703018084
1707.0,0.033952178923546183
1706.0,0.03235843591698884
1705.0,0.031003673351687855
1704.0,0.02960662792039992
1703.0,0.02812138297373412
1702.0,0.026733563891471412
1701.0,0.025488307262671706
1700.0,0.024476287039668643
1699.0,0.02355831062115543
1698.0,0.022871099419317753
1697.0,0.022230681908425698
1696.0,0.021499930688540836
1695.0,0.02081596632558158
1694.0,0.02022406727031445
1693.0,0.01958753839310856
1692.0,0.018861217359339655
1691.0,0.018136109008649592
1690.0,0.017502630802287644
1689.0,0.016960383953898095
1688.0,0.016373712875465518
1687.0,0.01578783323856614
1686.0,0.015202742910707112
1685.0,0.014888020460646079
1684.0,0.014843078722943437
1683.0,0.014753209197138295
1682.0,0.01452861671041239
1681.0,0.014214382227394795
1680.0,0.013765869865004277
1679.0,0.013317820220494436
1678.0,0.012959713020733288
1677.0,0.01260190086298274
1676.0,0.012244383261476699
1675.0,0.012021084124518078
1674.0,0.011842527443247208
1673.0,0.011664044143949504
1672.0,0.011351874764248926
1671.0,0.011039929609661936
1670.0,0.010906307389674463
1669.0,0.010817248744452446
1668.0,0.010594681998483901
1667.0,0.01023881228122181
1666.0,0.009927665307847056
1665.0,0.009572341514736404
1664.0,0.009261671492462709
1663.0,0.009128595198514056
1662.0,0.009217308196862062
1661.0,0.009217308196862062
1660.0,0.009039900317800775
1659.0,0.008773924307505121
1658.0,0.008463824699968647
1657.0,0.008198201155356077
1656.0,0.007888512213050314
1655.0,0.0074464821678643656
1654.0,0.007225635744644521
1653.0,0.0074464821678643656
1652.0,0.0074464821678643656
1651.0,0.007225635744644521
1650.0,0.007137328610972382
1649.0,0.007049039429553483
1648.0,0.00696076819309055
1647.0,0.006916639301937977
1646.0,0.006916639301937977
1645.0,0.006784279525863024
1644.0,0.006519680930003435
1643.0,0.006343371384537999
1642.0,0.00621118618129457
1641.0,0.006079041198713275
1640.0,0.00590291041179003
1639.0,0.00577085918230158
1638.0,0.00577085918230158
1637.0,0.00577085918230158
1636.0,0.005726851026829571
1635.0,0.005638848091999105
1634.0,0.005594853310833647
1633.0,0.005506877116487674
1632.0,0.00537494623139545
1631.0,0.005155150446602086
1630.0,0.004935465843858511
1629.0,0.004759798137184523
1628.0,0.00458420145758498
1627.0,0.004452550524862486
1626.0,0.0043648054024501
1625.0,0.004277078004534696
1624.0,0.004233220950025984
1623.0,0.004233220950025984
1622.0,0.004145520125434121
1621.0,0.00401400208620073
1620.0,0.003794893821675638
1619.0,0.003619686766589858
1618.0,0.0035758960449088217
1617.0,0.0036634819042162814
1616.0,0.0036634819042162814
1615.0,0.0035758960449088217
1614.0,0.0034445503666347133
1613.0,0.0033132443998284966
1612.0,0.0031382315093266833
1611.0,0.0030070181092942683
1610.0,0.0029632891174733444
1609.0,0.0029195645282691363
1608.0,0.0028321285541661467
1607.0,0.0027447101798967477
1606.0,0.0026573093983774942
1605.0,0.0025262411970197185
1604.0,0.002351545103793873
1603.0,0.0021769192542746563
1602.0,0.0020459959305969555
1601.0,0.0019587356365717845
1600.0,0.0018714928717336043
1599.0,0.0017842676290416026
1598.0,0.0017406615763013722
1597.0,0.0016970599014589638
1596.0,0.0015662811355310335
1595.0,0.0014355417390583547
1594.0,0.001304841688344327
1593.0,0.0011741809597138886
1592.0,0.0010435595295137379
1591.0,0.0009129773741116676
1590.0,0.000869458712629001
1589.0,0.000869458712629001
1588.0,0.0008259444115150671
1587.0,0.0007824344698965646
1586.0,0.0007389288868995258
1585.0,0.0006954276616513155
1584.0,0.0006084382809090627
1583.0,0.0005649501236701937
1582.0,0.000521466320689834
1581.0,0.00043451177401765406
1580.0,0.00030411258916074324
1579.0,0.00021720154586435392
1578.0,0.0001303078917322953
1577.0,4.343161980746579e-05
1576.0,-4.3427276862573194e-05
1575.0,-8.685021164911433e-05
1574.0,-8.685021164911433e-05
1573.0,0.0
1572.0,4.343161980746579e-05
1571.0,0.0
1570.0,-4.3427276862573194e-05
1569.0,-8.685021164911433e-05
1568.0,-0.00013026880522692963
1567.0,-8.685021164911433e-05
1566.0,-4.3427276862573194e-05
1565.0,-4.3427276862573194e-05
1564.0,-8.685021164911433e-05
1563.0,-0.00017368305846510168
1562.0,-0.00017368305846510168
1561.0,-0.0002604985473904087
1560.0,-0.00043407747931878404
1559.0,-0.0003906892499099257
1558.0,-0.00017368305846510168
1557.0,-0.00013026880522692963
1556.0,-8.685021164911433e-05
1555.0,-8.685021164911433e-05
1554.0,-8.685021164911433e-05
1553.0,-8.685021164911433e-05
1552.0,0.0
1551.0,0.0
1550.0,-4.3427276862573194e-05
1549.0,-4.3427276862573194e-05
1548.0,-4.3427276862573194e-05
1547.0,-4.3427276862573194e-05
1546.0,-4.3427276862573194e-05
1545.0,-4.3427276862573194e-05
1544.0,0.0
1543.0,0.0
1542.0,-4.3427276862573194e-05
1541.0,-4.3427276862573194e-05
1540.0,-0.00013026880522692963
1539.0,-0.00021709297223004853
1538.0,-0.00030389978481260016
1537.0,-0.0002604985473904087
1536.0,-0.00021709297223004853
1535.0,-0.0002604985473904087
1534.0,-0.0002604985473904087
1533.0,-0.00017368305846510168
1532.0,-0.00013026880522692963
1531.0,-8.685021164911433e-05
1530.0,-0.00013026880522692963
1529.0,-0.00013026880522692963
1528.0,-0.00017368305846510168
1527.0,-0.00021709297223004853
1526.0,-0.00021709297223004853
1525.0,-0.00021709297223004853
1524.0,-0.00013026880522692963
1523.0,-0.00013026880522692963
1522.0,-0.00021709297223004853
1521.0,-0.00030389978481260016
1520.0,-0.0003472966853634851
1519.0,-0.00043407747931878404
1518.0,-0.0004774613744551459
1517.0,-0.0004774613744551459
1516.0,-0.0004774613744551459
1515.0,-0.0004774613744551459
1514.0,-0.00043407747931878404
1513.0,-0.0003906892499099257
1512.0,-0.00043407747931878404
1511.0,-0.0004774613744551459
1510.0,-0.0005208409361854294
1509.0,-0.0003906892499099257
1508.0,-0.0002604985473904087
1507.0,-0.00017368305846510168
1506.0,-0.0002604985473904087
1505.0,-0.0003906892499099257
1504.0,-0.00043407747931878404
1503.0,-0.00043407747931878404
1502.0,-0.0003906892499099257
1501.0,-0.0003906892499099257
1500.0,-0.0003472966853634851
1499.0,-0.0003906892499099257
1498.0,-0.0003906892499099257
1497.0,-0.0003472966853634851
1496.0,-0.00030389978481260016
1495.0,-0.00030389978481260016
1494.0,-0.00030389978481260016
1493.0,-0.00021709297223004853
1492.0,-0.00013026880522692963
1491.0,-0.00013026880522692963
1490.0,-0.00013026880522692963
1489.0,-8.685021164911433e-05
1488.0,-4.3427276862573194e-05
1487.0,-4.3427276862573194e-05
1486.0,4.343161980746579e-05
1485.0,0.00021720154586435392
1484.0,0.00043451177401765406
1483.0,0.0006084382809090627
1482.0,0.0007389288868995258
1481.0,0.0009129773741116676
1480.0,0.0011306361176557367
1479.0,0.001348404001626502
1478.0,0.0017406615763013722
1477.0,0.0023078820582733695
1476.0,0.0030070181092942683
1475.0,0.0037510854308679953
1474.0,0.004759798137184523
1473.0,0.006475596832934416
1472.0,0.008596697419959609
1471.0,0.010505687227290839
1470.0,0.012289056869694281
1469.0,0.014349026309051105
1468.0,0.016689514205884493
1467.0,0.01958753839310856
1466.0,0.023741750742954926
1465.0,0.029281296279810798
1464.0,0.03498654972775217
1463.0,0.03948165721929198
1462.0,0.04301563225723992
1461.0,0.046192002334692894
1460.0,0.04944043838819989
1459.0,0.05325306496641513
1458.0,0.05918479134919874
1457.0,0.06661395809694559
1456.0,0.07139934015547578
1455.0,0.07304051161972436
1454.0,0.07355465218161061
1453.0,0.07391491307485598
1452.0,0.07396640332115534
1451.0,0.07355465218161061
1450.0,0.07273231918911849
1449.0,0.0713481533463054
1448.0,0.0692037370166998
1447.0,0.06615853710127872
1446.0,0.062381820606176586
1445.0,0.05789269101064454
1444.0,0.05271335532220167
1443.0,0.04711073508906982
1442.0,0.041483896576958834
1441.0,0.03621217265444465
1440.0,0.03147035562516054
1439.0,0.027334407733889066
1438.0,0.023374947949272418
1437.0,0.01949668180660491
1436.0,0.01632861713980338
1435.0,0.014304140310157809
1434.0,0.012959713020733288
1433.0,0.011708658092512314
1432.0,0.01046119667949763
1431.0,0.009350411681145587
1430.0,0.008419542825660153
1429.0,0.0075790439479759275
1428.0,0.006916639301937977
1427.0,0.006431517210272464
1426.0,0.006035001804881146
1425.0,0.005550862985963967
1424.0,0.005023326350308999
1423.0,0.004628093971837721
1422.0,0.0043648054024501
1421.0,0.0040578370074493275
1420.0,0.0037510854308679953
1419.0,0.003619686766589858
1418.0,0.003619686766589858
1417.0,0.0035758960449088217
1416.0,0.003488327845821315
1415.0,0.0034445503666347133
1414.0,0.0034445503666347133
1413.0,0.0034445503666347133
1412.0,0.003488327845821315
1411.0,0.0035758960449088217
1410.0,0.0036634819042162814
1409.0,0.0036634819042162814
1408.0,0.003707281458678491
1407.0,0.0038825238627120395
1406.0,0.004145520125434121
1405.0,0.0044964297349936455
1404.0,0.00489154225525934
1403.0,0.005462895701502157
1402.0,0.006079041198713275
1401.0,0.006784279525863024
1400.0,0.007844288957383316
1399.0,0.009306039320248427
1398.0,0.010950843561779777
1397.0,0.012825498912458322
1396.0,0.01538268676325183
1395.0,0.01899731005860028
1394.0,0.02300845469384938
1393.0,0.02677975314776626
1392.0,0.030397735151460825
1391.0,0.03399914237121604
1390.0,0.03767802727041558
1389.0,0.04186632432376469
1388.0,0.04682039893436585
1387.0,0.05212534510230182
1386.0,0.05655495097496965
1385.0,0.05968277842578207
1384.0,0.061830653609679764
1383.0,0.06318476880236723
1382.0,0.06363708040225546
1381.0,0.06298389253518577
1380.0,0.06133019897732073
1379.0,0.058737090681050264
1378.0,0.05561604235915585
1377.0,0.0525172634430815
1376.0,0.04997609347667353
1375.0,0.048565334467987054
1374.0,0.048565334467987054
1373.0,0.04968383607539972
1372.0,0.05134256785867963
1371.0,0.0531548860393769
1370.0,0.055122694036304765
1369.0,0.05709945885970602
1368.0,0.058836539841526925
1367.0,0.05998184499233683
1366.0,0.06068046892176193
1365.0,0.06123017721688262
1364.0,0.06198090252378963
1363.0,0.0630843190547461
1362.0,0.06424089625468832
1361.0,0.06494641076893504
1360.0,0.06519865825346338
1359.0,0.06509774167768612
1358.0,0.06479513257341862
1357.0,0.06419054619006714
1356.0,0.06323500239005853
1355.0,0.061880730805688344
1354.0,0.060231224546650086
1353.0,0.0583395216116076
1352.0,0.05630767289398331
1351.0,0.054186873412661596
1350.0,0.05197846685889629
1349.0,0.04982994019179987
1348.0,0.04774046340917959
1347.0,0.04570923829887308
1346.0,0.04383156952463674
1345.0,0.04210551278710151
1344.0,0.040481623027001756
1343.0,0.038958783046687984
1342.0,0.037583306554248797
1341.0,0.03635381351515665
1340.0,0.03526907894637077
1339.0,0.03432802877989327
1338.0,0.033482823553208085
1337.0,0.03263926003405038
1336.0,0.03175060589208267
1335.0,0.030910397045078586
1334.0,0.030211462585061133
1333.0,0.029653123769906697
1332.0,0.029141943003497595
1331.0,0.02872415126189476
1330.0,0.028353117935693284
1329.0,0.028028723600243666
1328.0,0.027750864037404455
1327.0,0.02751945012352408
1326.0,0.02738066094037661
1325.0,0.027334407733889066
1324.0,0.02738066094037661
1323.0,0.027426919073445077
1322.0,0.02747318213414429
1321.0,0.02751945012352408
1320.0,0.02751945012352408
1319.0,0.02751945012352408
1318.0,0.027565723042634938
1317.0,0.027565723042634938
1316.0,0.027565723042634938
1315.0,0.027565723042634938
1314.0,0.027658283674251827
1313.0,0.027750864037404455
1312.0,0.027889771597169544
1311.0,0.028028723600243666
1310.0,0.02812138297373412
1309.0,0.028167720075074953
1308.0,0.028167720075074953
1307.0,0.028167720075074953
1306.0,0.028167720075074953
1305.0,0.028167720075074953
1304.0,0.02812138297373412
1303.0,0.028028723600243666
1302.0,0.027889771597169544
1301.0,0.027658283674251827
1300.0,0.027426919073445077
1299.0,0.027056991894431892
1298.0,0.026595025589939425
1297.0,0.025902996205869
1296.0,0.025074013910237447
1295.0,0.024108863598207186
1294.0,0.023237476732539397
1293.0,0.02245929405346514
1292.0,0.021910826943857264
1291.0,0.02159120737696063
1290.0,0.021728158389364705
1289.0,0.022230681908425698
1288.0,0.02314585342378117
1287.0,0.024476287039668643
1286.0,0.02613355016462182
1285.0,0.02812138297373412
1284.0,0.030397735151460825
1283.0,0.032920265855503006
1282.0,0.03555179208333925
1281.0,0.03824678581321739
1280.0,0.040958607678906356
1279.0,0.04363944632667782
1278.0,0.04628861957244457
1277.0,0.04885683989244738
1276.0,0.05134256785867963
1275.0,0.05354773498692689
1274.0,0.055566682299785564
1273.0,0.05734718830678798
1272.0,0.05898575629443026
1271.0,0.06033101647767336
1270.0,0.061380218497318895
1269.0,0.062131203436140536
1268.0,0.06258241852286206
1267.0,0.06278310913729457
1266.0,0.0627329277885873
1265.0,0.06248210798265341
1264.0,0.06198090252378963
1263.0,0.06123017721688262
1262.0,0.06033101647767336
1261.0,0.05933412752417122
1260.0,0.05824018618530458
1259.0,0.0571489934456626
1258.0,0.05601112492622806
1257.0,0.0549255115212699
1256.0,0.053842605077627725
1255.0,0.05281143447390635
1254.0,0.0518316382728683
1253.0,0.05100054597304693
1252.0,0.05026854768429301
1251.0,0.04963514562387683
1250.0,0.04909991063361274
1249.0,0.04871106272232795
1248.0,0.048468209457651845
1247.0,0.04827402457540786
1246.0,0.048225491918274965
1245.0,0.04832256265669943
1244.0,0.048565334467987054
1243.0,0.048954051864180226
1242.0,0.04939177521576932
1241.0,0.049927370249842395
1240.0,0.05051241005349638
1239.0,0.051244819831730126
1238.0,0.05207638016827354
1237.0,0.05310580489767336
1236.0,0.05428528594013993
1235.0,0.055566682299785564
1234.0,0.057049929922901255
1233.0,0.058737090681050264
1232.0,0.06058059667068294
1231.0,0.06268275223750575
1230.0,0.06499684854634524
1229.0,0.0675769736232612
1228.0,0.07032568205141221
1227.0,0.0732460948102629
1226.0,0.0763933569825408
1225.0,0.07972010536705154
1224.0,0.08328292240118751
1223.0,0.0870343792958963
1222.0,0.09087205801073917
1221.0,0.09485199814398393
1220.0,0.09903237608087578
1219.0,0.10325338439259446
1218.0,0.10746019534136453
1217.0,0.11165198982195101
1216.0,0.1157145376603248
1215.0,0.11958660012208333
1214.0,0.12314735239865637
1213.0,0.12650501774383094
1212.0,0.12936203678919433
1211.0,0.13176713157753506
1210.0,0.13365357725039817
1209.0,0.13519237097385295
1208.0,0.1363797797296844
1207.0,0.1373320497714121
1206.0,0.13798794874978348
1205.0,0.13864483980673992
1204.0,0.13930272594796111
1203.0,0.14002155835797914
1202.0,0.1408016384661226
1201.0,0.1419442819496357
1200.0,0.14345235514325205
1199.0,0.14532966810466452
1198.0,0.1475810070629986
1197.0,0.15027355580367208
1196.0,0.15360102696532518
1195.0,0.15757799664235028
1194.0,0.16222223044626682
1193.0,0.16774662980299215
1192.0,0.17405485679615196
1191.0,0.1811804924524636
1190.0,0.18902860017779255
1189.0,0.19777376230892996
1188.0,0.20732821085843267
1187.0,0.21759904750347014
1186.0,0.2280452510360509
1185.0,0.23844801143581806
1184.0,0.2482591261890994
1183.0,0.25656863485331627
1182.0,0.2623303726433581
1181.0,0.26496029496627926
1180.0,0.26360349772335767
1179.0,0.2577463300934064
1178.0,0.24749059921115713
1177.0,0.2336615247487126
1176.0,0.21716919479740815
1175.0,0.19921420967223735
1174.0,0.18085105719286587
1173.0,0.16316971351112097
1172.0,0.146788665496683
1171.0,0.1318847946727828
1170.0,0.11861534322942724
1169.0,0.10695988804288215
1168.0,0.09674718310604158
1167.0,0.0877779434675845
1166.0,0.08003329851661278
1165.0,0.07340034609297241
1164.0,0.06777998612288094
1163.0,0.06298389253518577
1162.0,0.0588862729628985
1161.0,0.05546797900801881
1160.0,0.0525172634430815
1159.0,0.05002482217034632
1158.0,0.047982909952573705
1157.0,0.04628861957244457
1156.0,0.04503426894157925
1155.0,0.044167989767578186
1154.0,0.043735497301724546
1153.0,0.04383156952463674
1152.0,0.044456557540257124
1151.0,0.045660991397539874
1150.0,0.04754660357696672
1149.0,0.05012229596312534
1148.0,0.053449489430144714
1147.0,0.05764465029232335
1146.0,0.06278310913729457
1145.0,0.06894915322260897
1144.0,0.0759792995259323
1143.0,0.0838620168928248
1142.0,0.09226626300234453
1141.0,0.10116516193172598
1140.0,0.11019424813191447
1139.0,0.11924355548978971
1138.0,0.1281352979118051
1137.0,0.1366771398795441
1136.0,0.14466259553045968
1135.0,0.15187248943212528
1134.0,0.1583902878315646
1133.0,0.16411926818260536
1132.0,0.16921892439363884
1131.0,0.17340694606595197
1130.0,0.17665620917935154
1129.0,0.17901082358395048
1128.0,0.18006143064460467
1127.0,0.17960147729601839
1126.0,0.1775703762206431
1125.0,0.1742494186519723
1124.0,0.16998906406388214
1123.0,0.16519794595130088
1122.0,0.1603334431175667
1121.0,0.15577141869837208
1120.0,0.1517492853229574
1119.0,0.14831368455757254
1118.0,0.1455724942121388
1117.0,0.14363367634075197
1116.0,0.1423660148499919
1115.0,0.14182386201765573
1114.0,0.1419442819496357
1113.0,0.14302956651750764
1112.0,0.1450869776921444
1111.0,0.14813039927023364
1110.0,0.15218065270476067
1109.0,0.15720360482441986
1108.0,0.16304326294044946
1107.0,0.16953964996903292
1106.0,0.1765909851074554
1105.0,0.18402399902801458
1104.0,0.1917214904172322
1103.0,0.19948912310563194
1102.0,0.20732821085843267
1101.0,0.21531140049857878
1100.0,0.2235167441663184
1099.0,0.2316579413554667
1098.0,0.2397283394579368
1097.0,0.24772101453988138
1096.0,0.25578527518583405
1095.0,0.2638426247268679
1094.0,0.2717274021049829
1093.0,0.27975798171294297
1092.0,0.28793985753892537
1091.0,0.29584948316020077
1090.0,0.30355623686100075
1089.0,0.31104653736258214
1088.0,0.3182162335321186
1087.0,0.3246800166607078
1086.0,0.33003263009149597
1085.0,0.3344190089820469
1084.0,0.3377144842778699
1083.0,0.3395139842150323
1082.0,0.3397038397292702
1081.0,0.33875539104066643
1080.0,0.3366760663717876
1079.0,0.3333884315809701
1078.0,0.32882715728491685
1077.0,0.3233063903751334
1076.0,0.31677279395856517
1075.0,0.3090069679001306
1074.0,0.3001622741327543
1073.0,0.2904756441236589
1072.0,0.2801717137456652
1071.0,0.2692984557181548
1070.0,0.25790359769675564
1069.0,0.24649354300903004
1068.0,0.23515164280658918
1067.0,0.22417118553538762
1066.0,0.2137456042102197
1065.0,0.20432849405397824
1064.0,0.19633807676377568
1063.0,0.18990195931885712
1062.0,0.1850203162392432
1061.0,0.1818401136028147
1060.0,0.180127178049454
1059.0,0.17953580942231584
1058.0,0.17992996568767428
1057.0,0.18111458540599013
1056.0,0.18289759574307696
1055.0,0.1849538239353694
1054.0,0.1871534630329288
1053.0,0.18963304631837485
1052.0,0.19232969876951622
1051.0,0.19524739784953948
1050.0,0.19825338078053978
1049.0,0.2014874669686484
1048.0,0.20481541031757589
1047.0,0.20781850385032108
1046.0,0.21034879120659045
1045.0,0.2122562283535332
1044.0,0.21339052735134012
1043.0,0.21367456560992992
1042.0,0.21296481797377664
1041.0,0.21133678687914248
1040.0,0.2088007535011247
1039.0,0.20523320205917894
1038.0,0.20086630669793704
1037.0,0.19592875111433883
1036.0,0.19057497120296585
1035.0,0.1849538239353694
1034.0,0.17933886535640453
1033.0,0.17392519729917355
1032.0,0.16896251435997467
1031.0,0.1644362483309032
1030.0,0.1602706247936121
1029.0,0.1565180569600424
1028.0,0.15310645668337486
1027.0,0.14984407757790774
1026.0,0.14672777597931685
1025.0,0.14357322752975565
1024.0,0.14014147951900724
1023.0,0.13632033212410222
1022.0,0.13212021654162043
1021.0,0.1277271537757949
1020.0,0.12314735239865637
1019.0,0.11855827805860697
1018.0,0.1138478180292033
1017.0,0.10913206118855912
1016.0,0.10457745396059215
1015.0,0.10012480397898926
1014.0,0.09582563171583658
1013.0,0.09183679994445204
1012.0,0.0880970039559672
1011.0,0.08465293767580806
1010.0,0.08149786036382611
1009.0,0.07872981449018734
1008.0,0.07623803917129979
1007.0,0.07391491307485598
1006.0,0.07175781684269089
1005.0,0.06981534770138009
1004.0,0.06798309356579857
1003.0,0.06625970050306473
1002.0,0.06469430971007495
1001.0,0.06323500239005853
1000.0,0.06193081377661436
999.0,0.060730413661268745
998.0,0.05963295401433477
997.0,0.05863766428823891
996.0,0.05764465029232335
995.0,0.05670338543334519
994.0,0.055764156206519866
993.0,0.054876229877880656
992.0,0.05399011523423525
991.0,0.05310580489767336
990.0,0.05227227303668425
989.0,0.05153812993871654
988.0,0.05075640943173498
987.0,0.04997609347667353
986.0,0.049294465226138895
985.0,0.0486139051197072
984.0,0.047982909952573705
983.0,0.04720755695590784
982.0,0.04643358574299339
981.0,0.04570923829887308
980.0,0.04503426894157925
979.0,0.044360346976747955
978.0,0.04368746915880539
977.0,0.04301563225723992
976.0,0.042344833056508824
975.0,0.04167506835594681
974.0,0.04105406750606355
973.0,0.040529297924893015
972.0,0.0400527842915015
971.0,0.03952922246570112
970.0,0.03910132267333921
969.0,0.038673844065289176
968.0,0.038341651362284734
967.0,0.03810452633214956
966.0,0.038057116858612794
965.0,0.03824678581321739
964.0,0.03886378261277468
963.0,0.03986232513620536
962.0,0.041197296600497646
961.0,0.04272802000705722
960.0,0.04421607108308856
959.0,0.045564513671517703
958.0,0.04662694927330402
957.0,0.04730440041308315
956.0,0.04749815213697639
955.0,0.04720755695590784
954.0,0.04657860031896477
953.0,0.04580574818413763
952.0,0.04488976902944808
951.0,0.04387961360698034
950.0,0.04287180232318688
949.0,0.04186632432376469
948.0,0.04091088563260792
947.0,0.04014804520039483
946.0,0.03948165721929198
945.0,0.038958783046687984
944.0,0.038531444649213764
943.0,0.038057116858612794
942.0,0.03767802727041558
941.0,0.037299268295658994
940.0,0.0369681249461018
939.0,0.03668448861388862
938.0,0.03644826642590382
937.0,0.03630659476198117
936.0,0.03616496929785207
935.0,0.0360705779734416
934.0,0.03602339000339416
933.0,0.03602339000339416
932.0,0.036117771071222604
931.0,0.03625938114211591
930.0,0.03635381351515665
929.0,0.03649550058570927
928.0,0.03658998431977123
927.0,0.03668448861388862
926.0,0.03682628362474838
925.0,0.03701541568300293
924.0,0.03720463014276687
923.0,0.037346595106788616
922.0,0.03739392707587297
921.0,0.03739392707587297
920.0,0.037299268295658994
919.0,0.037251946641359446
918.0,0.037299268295658994
917.0,0.03739392707587297
916.0,0.037488606492403154
915.0,0.03744126420403626
914.0,0.037346595106788616
913.0,0.0371100126082089
912.0,0.03682628362474838
911.0,0.03649550058570927
910.0,0.03621217265444465
909.0,0.03602339000339416
908.0,0.03588185684851508
907.0,0.035740369803151095
906.0,0.03555179208333925
905.0,0.035363296211498474
904.0,0.03512779136222477
903.0,0.0349394793888016
902.0,0.03475124903287918
901.0,0.03465716443937783
900.0,0.03465716443937783
899.0,0.03470420418834386
898.0,0.03479829897408804
897.0,0.03484535401307465
896.0,0.03484535401307465
895.0,0.03465716443937783
894.0,0.03432802877989327
893.0,0.033952178923546183
892.0,0.033482823553208085
891.0,0.0329671178412978
890.0,0.03235843591698884
889.0,0.03170388495374454
888.0,0.031143625385307683
887.0,0.0307239045110681
886.0,0.03063068826647264
885.0,0.03105031901865729
884.0,0.03193753992355086
883.0,0.033295223342125535
882.0,0.03522197797762394
881.0,0.03767802727041558
880.0,0.04062466342415694
879.0,0.04402377775167454
878.0,0.04778894189133087
877.0,0.05173378011970464
876.0,0.05571477931124735
875.0,0.05943371350990989
874.0,0.06288348923294618
873.0,0.06590573164451952
872.0,0.06844043290919477
871.0,0.07032568205141221
870.0,0.0716553647351379
869.0,0.07242434530888953
868.0,0.07283502570063005
867.0,0.07293775650699996
866.0,0.07262963696097646
865.0,0.07186029312488018
864.0,0.07068327324650436
863.0,0.06915280831750303
862.0,0.0671712330991534
861.0,0.06474471821595262
860.0,0.06193081377661436
859.0,0.058737090681050264
858.0,0.05531996611868961
857.0,0.0518316382728683
856.0,0.04837110616336182
855.0,0.045323413081356456
854.0,0.04272802000705722
853.0,0.04076775094900409
852.0,0.039338992729018196
851.0,0.03829421599749461
850.0,0.03753595394209874
849.0,0.03682628362474838
848.0,0.0360705779734416
847.0,0.03526907894637077
846.0,0.03432802877989327
845.0,0.033295223342125535
844.0,0.03217132066984485
843.0,0.030863766403287585
842.0,0.029513651152349718
841.0,0.028167720075074953
840.0,0.02691835039863255
839.0,0.025856900097785074
838.0,0.024936003904763915
837.0,0.024154774532432866
836.0,0.023466619608062178
835.0,0.02277955336461468
834.0,0.022093572362881675
833.0,0.0214542995372613
832.0,0.020952673052035298
831.0,0.02058821736556471
830.0,0.020315076172974234
829.0,0.019996628416253603
828.0,0.019678413991243593
827.0,0.01940584422377989
826.0,0.0192242260373785
825.0,0.0190880622231564
824.0,0.01899731005860028
823.0,0.018951941086827073
822.0,0.01899731005860028
821.0,0.01899731005860028
820.0,0.018906576854070378
819.0,0.018770512579999288
818.0,0.018634490921455527
817.0,0.018543833477873584
816.0,0.018498511851753108
815.0,0.018498511851753108
814.0,0.01845319495476394
813.0,0.018362575344230914
812.0,0.018226681372252695
811.0,0.018136109008649592
810.0,0.018226681372252695
809.0,0.018362575344230914
808.0,0.01845319495476394
807.0,0.01845319495476394
806.0,0.01840788278591865
805.0,0.018362575344230914
804.0,0.01831727262871463
803.0,0.01831727262871463
802.0,0.01831727262871463
801.0,0.01831727262871463
800.0,0.018271974638383703
799.0,0.018226681372252695
798.0,0.018271974638383703
797.0,0.01840788278591865
796.0,0.018543833477873584
795.0,0.018634490921455527
794.0,0.018770512579999288
793.0,0.018951941086827073
792.0,0.0192242260373785
791.0,0.01958753839310856
790.0,0.020178569969774962
789.0,0.020861530453190058
788.0,0.021545566634771474
787.0,0.022230681908425698
786.0,0.022871099419317753
785.0,0.023604163388120325
784.0,0.024430342106337877
783.0,0.025350165561278004
782.0,0.026318081496016443
781.0,0.027195677663422346
780.0,0.02798240132598462
779.0,0.028770552723758724
778.0,0.029653123769906697
777.0,0.0307239045110681
776.0,0.03189079887180224
775.0,0.03310770413286357
774.0,0.03428102975577918
773.0,0.03559892883726867
772.0,0.0369681249461018
771.0,0.038436537637930535
770.0,0.04014804520039483
769.0,0.04210551278710151
768.0,0.044312249686494276
767.0,0.04667530361081473
766.0,0.049148541111453614
765.0,0.051684859310652254
764.0,0.05443294655761144
763.0,0.05734718830678798
762.0,0.06038092104330195
761.0,0.06338573802478864
760.0,0.06625970050306473
759.0,0.06884736147670667
758.0,0.07109230975604719
757.0,0.07293775650699996
756.0,0.07437854520917098
755.0,0.07525564752005143
754.0,0.07551395626608493
753.0,0.07510073598571654
752.0,0.07412091069849924
751.0,0.07273231918911849
750.0,0.07119462910671581
749.0,0.06966236426227002
748.0,0.06828793294324442
747.0,0.06701917807680191
746.0,0.06590573164451952
745.0,0.06484555278383164
744.0,0.06383825908884244
743.0,0.06293368798257193
742.0,0.06208109735221967
741.0,0.06108018775522828
740.0,0.05978244440026481
739.0,0.05824018618530458
738.0,0.05635711724787096
737.0,0.05423607688882637
736.0,0.05173378011970464
735.0,0.04875964967565971
734.0,0.045564513671517703
733.0,0.04244059810252043
732.0,0.03957679292217042
731.0,0.0371100126082089
730.0,0.03526907894637077
729.0,0.03409308450480819
728.0,0.033482823553208085
727.0,0.03334211579824231
726.0,0.03343591590268957
725.0,0.03376437590141812
724.0,0.03437503289075727
723.0,0.03522197797762394
722.0,0.036401037402758574
721.0,0.03800971255993524
720.0,0.03986232513620536
719.0,0.04172287445230238
718.0,0.043303435105349175
717.0,0.044793462458058375
716.0,0.04624030826677128
715.0,0.047643522676209304
714.0,0.048905443158337114
713.0,0.049927370249842395
712.0,0.050707598587974356
711.0,0.05129369109514803
710.0,0.05173378011970464
709.0,0.05217431555754937
708.0,0.05271335532220167
707.0,0.05340037498486727
706.0,0.054186873412661596
705.0,0.0549255115212699
704.0,0.05531996611868961
703.0,0.05522131887649295
702.0,0.05482695382609992
701.0,0.05438372077326825
700.0,0.054186873412661596
699.0,0.05428528594013993
698.0,0.054679159207724926
697.0,0.055122694036304765
696.0,0.05531996611868961
695.0,0.05507339001378431
694.0,0.05448217792216048
693.0,0.05394093961487645
692.0,0.05374429280060267
691.0,0.053842605077627725
690.0,0.05394093961487645
689.0,0.05379344615721715
688.0,0.053596866100945384
687.0,0.05354773498692689
686.0,0.053646002773725554
685.0,0.053596866100945384
684.0,0.05325306496641513
683.0,0.05300765925162776
682.0,0.05295859474477971
681.0,0.05286048235717078
680.0,0.05227227303668425
679.0,0.05134256785867963
678.0,0.05065879322950262
677.0,0.050317309204795935
676.0,0.05012229596312534
675.0,0.04978123335813667
674.0,0.04939177521576932
673.0,0.04909991063361274
672.0,0.04871106272232795
671.0,0.04827402457540786
670.0,0.047934409814949674
669.0,0.0486139051197072
668.0,0.05051241005349638
667.0,0.05134256785867963
666.0,0.050317309204795935
665.0,0.048808242065293994
664.0,0.047643522676209304
663.0,0.04662694927330402
662.0,0.04537162249272897
661.0,0.0439276630048171
660.0,0.04263219156847242
659.0,0.04200982159316968
658.0,0.04200982159316968
657.0,0.04224908912272074
656.0,0.042392712939904875
655.0,0.04224908912272074
654.0,0.04186632432376469
653.0,0.04153168163305643
652.0,0.041197296600497646
651.0,0.04086316882962593
650.0,0.040529297924893015
649.0,0.040243327009005014
648.0,0.04019568349166214
647.0,0.040529297924893015
646.0,0.04105406750606355
645.0,0.04129280891271536
644.0,0.04091088563260792
643.0,0.0400527842915015
642.0,0.03943409718180235
641.0,0.03943409718180235
640.0,0.040243327009005014
639.0,0.04153168163305643
638.0,0.04263219156847242
637.0,0.04320747962950522
636.0,0.04320747962950522
635.0,0.043063586155803746
634.0,0.04320747962950522
633.0,0.04325545471730896
632.0,0.04248848854552012
631.0,0.040672354027829094
630.0,0.03829421599749461
629.0,0.03621217265444465
628.0,0.03512779136222477
627.0,0.03512779136222477
626.0,0.03583468937826462
625.0,0.03668448861388862
624.0,0.03744126420403626
623.0,0.03824678581321739
622.0,0.038911280232103884
621.0,0.03876880295533702
620.0,0.03744126420403626
619.0,0.03531618502395939
618.0,0.03301397488206215
617.0,0.03081714076773867
616.0,0.02890978686288448
615.0,0.027750864037404455
614.0,0.027843464140506313
613.0,0.029002634427514717
612.0,0.030490901403433135
611.0,0.03175060589208267
610.0,0.03235843591698884
609.0,0.03179733185715028
608.0,0.029653123769906697
607.0,0.026733563891471412
606.0,0.02461415101053266
605.0,0.02406295751688936
604.0,0.024660115394541604
603.0,0.025488307262671706
602.0,0.025718641122169483
601.0,0.02498200236711723
600.0,0.023329119375188556
