cm-1,A
4000.0,0.09761631556752848
3999.0,0.09750757884139638
3998.0,0.09739886933346864
3997.0,0.09729018703012282
3996.0,0.09718153191774648
3995.0,0.09701860020249709
3994.0,0.09701860020249709
3993.0,0.09685572959046151
3992.0,0.09696430321150284
3991.0,0.09718153191774648
3990.0,0.09739886933346864
3989.0,0.09745322068600859
3988.0,0.09739886933346864
3987.0,0.0972358560759139
3986.0,0.09696430321150284
3985.0,0.09674718310604158
3984.0,0.09663866374468144
3983.0,0.09669292003582619
3982.0,0.09674718310604158
3981.0,0.09680145295702158
3980.0,0.09685572959046151
3979.0,0.09696430321150284
3978.0,0.09712721455392082
3977.0,0.0972358560759139
3976.0,0.0972358560759139
3975.0,0.09712721455392082
3974.0,0.09691001300805646
3973.0,0.09680145295702158
3972.0,0.09669292003582619
3971.0,0.09663866374468144
3970.0,0.09658441423091357
3969.0,0.09663866374468144
3968.0,0.09674718310604158
3967.0,0.09685572959046151
3966.0,0.09696430321150284
3965.0,0.09701860020249709
3964.0,0.09701860020249709
3963.0,0.09696430321150284
3962.0,0.09685572959046151
3961.0,0.09674718310604158
3960.0,0.09658441423091357
3959.0,0.09658441423091357
3958.0,0.09658441423091357
3957.0,0.09674718310604158
3956.0,0.09685572959046151
3955.0,0.09701860020249709
3954.0,0.09712721455392082
3953.0,0.09718153191774648
3952.0,0.09707290398273716
3951.0,0.09685572959046151
3950.0,0.09669292003582619
3949.0,0.09658441423091357
3948.0,0.0964759355287379
3947.0,0.09636748391576244
3946.0,0.09625905937846135
3945.0,0.09625905937846135
3944.0,0.09642170633694569
3943.0,0.09669292003582619
3942.0,0.09680145295702158
3941.0,0.09674718310604158
3940.0,0.09685572959046151
3939.0,0.09718153191774648
3938.0,0.09750757884139638
3937.0,0.09745322068600859
3936.0,0.09712721455392082
3935.0,0.09674718310604158
3934.0,0.09642170633694569
3933.0,0.09620485725896466
3932.0,0.096150661903319
3931.0,0.09625905937846135
3930.0,0.09663866374468144
3929.0,0.09685572959046151
3928.0,0.09685572959046151
3927.0,0.09674718310604158
3926.0,0.09658441423091357
3925.0,0.09642170633694569
3924.0,0.09604229147682952
3923.0,0.09571734235437201
3922.0,0.09560907998763835
3921.0,0.09593394808549704
3920.0,0.09636748391576244
3919.0,0.09669292003582619
3918.0,0.09707290398273716
3917.0,0.09750757884139638
3916.0,0.09772507952549825
3915.0,0.09772507952549825
3914.0,0.09783387072894878
3913.0,0.09816040794877057
3912.0,0.09859617317474823
3911.0,0.09886874864462802
3910.0,0.09886874864462802
3909.0,0.09865067458435761
3908.0,0.09832376867362447
3907.0,0.09777947172068524
3906.0,0.09729018703012282
3905.0,0.09680145295702158
3904.0,0.09631326826349751
3903.0,0.09571734235437201
3902.0,0.09544673702322726
3901.0,0.09587978652380036
3900.0,0.09691001300805646
3899.0,0.09777947172068524
3898.0,0.09783387072894878
3897.0,0.09734452478207412
3896.0,0.09691001300805646
3895.0,0.09669292003582619
3894.0,0.0964759355287379
3893.0,0.09653017149282994
3892.0,0.09707290398273716
3891.0,0.09783387072894878
3890.0,0.09783387072894878
3889.0,0.09712721455392082
3888.0,0.09696430321150284
3887.0,0.09772507952549825
3886.0,0.09848719087006019
3885.0,0.09837823590664274
3884.0,0.09750757884139638
3883.0,0.09674718310604158
3882.0,0.09685572959046151
3881.0,0.09745322068600859
3880.0,0.09767069414168117
3879.0,0.09739886933346864
3878.0,0.09674718310604158
3877.0,0.09663866374468144
3876.0,0.09701860020249709
3875.0,0.09729018703012282
3874.0,0.09674718310604158
3873.0,0.0957714836599215
3872.0,0.09528445472131919
3871.0,0.09598811640261173
3870.0,0.09712721455392082
3869.0,0.09718153191774648
3868.0,0.09620485725896466
3867.0,0.0957714836599215
3866.0,0.0964759355287379
3865.0,0.09701860020249709
3864.0,0.09663866374468144
3863.0,0.09636748391576244
3862.0,0.09680145295702158
3861.0,0.09745322068600859
3860.0,0.09777947172068524
3859.0,0.0975619438013351
3858.0,0.09707290398273716
3857.0,0.09653017149282994
3856.0,0.09625905937846135
3855.0,0.09636748391576244
3854.0,0.09718153191774648
3853.0,0.09854167860388774
3852.0,0.09865067458435761
3851.0,0.09707290398273716
3850.0,0.09658441423091357
3849.0,0.0975619438013351
3848.0,0.09826930827078129
3847.0,0.09837823590664274
3846.0,0.09843270997155007
3845.0,0.09854167860388774
3844.0,0.09837823590664274
3843.0,0.09783387072894878
3842.0,0.09674718310604158
3841.0,0.0957714836599215
3840.0,0.09533854208447545
3839.0,0.0955549589230904
3838.0,0.09604229147682952
3837.0,0.09636748391576244
3836.0,0.09620485725896466
3835.0,0.0960964733098364
3834.0,0.09653017149282994
3833.0,0.09750757884139638
3832.0,0.09837823590664274
3831.0,0.09870518283443275
3830.0,0.09848719087006019
3829.0,0.09826930827078129
3828.0,0.09843270997155007
3827.0,0.09870518283443275
3826.0,0.09832376867362447
3825.0,0.0972358560759139
3824.0,0.09620485725896466
3823.0,0.096150661903319
3822.0,0.09691001300805646
3821.0,0.09777947172068524
3820.0,0.09777947172068524
3819.0,0.09685572959046151
3818.0,0.09691001300805646
3817.0,0.09854167860388774
3816.0,0.10012480397898926
3815.0,0.10034361969436434
3814.0,0.09968750301627338
3813.0,0.09952362861074304
3812.0,0.10017949757290379
3811.0,0.10045306890913297
3810.0,0.10007011727213588
3809.0,0.09985143928065598
3808.0,0.10034361969436434
3807.0,0.10089114180660053
3806.0,0.10034361969436434
3805.0,0.09865067458435761
3804.0,0.0975619438013351
3803.0,0.09799710864927058
3802.0,0.09886874864462802
3801.0,0.09881421986284966
3800.0,0.0975619438013351
3799.0,0.096150661903319
3798.0,0.09642170633694569
3797.0,0.09794268919153337
3796.0,0.09914149529800831
3795.0,0.09968750301627338
3794.0,0.09996076451267522
3793.0,0.10039834085387778
3792.0,0.10094593200182911
3791.0,0.10116516193172598
3790.0,0.1012199867101744
3789.0,0.10127481841050656
3788.0,0.1012199867101744
3787.0,0.10105553313349058
3786.0,0.10078158214862709
3785.0,0.1005625457138224
3784.0,0.10034361969436434
3783.0,0.10007011727213588
3782.0,0.10007011727213588
3781.0,0.10045306890913297
3780.0,0.10094593200182911
3779.0,0.1012199867101744
3778.0,0.10111034407341357
3777.0,0.10083635852278117
3776.0,0.10089114180660053
3775.0,0.10116516193172598
3774.0,0.10105553313349058
3773.0,0.1005625457138224
3772.0,0.10028890542885538
3771.0,0.10034361969436434
3770.0,0.10045306890913297
3769.0,0.10017949757290379
3768.0,0.09974214156222239
3767.0,0.09974214156222239
3766.0,0.10028890542885538
3765.0,0.10061729446673495
3764.0,0.10034361969436434
3763.0,0.09990609845660159
3762.0,0.09996076451267522
3761.0,0.10023419805561384
3760.0,0.10007011727213588
3759.0,0.09946901754724413
3758.0,0.0990869322623309
3757.0,0.09881421986284966
3756.0,0.09843270997155007
3755.0,0.09805153492691598
3754.0,0.09777947172068524
3753.0,0.0972358560759139
3752.0,0.09642170633694569
3751.0,0.096150661903319
3750.0,0.09707290398273716
3749.0,0.09777947172068524
3748.0,0.09712721455392082
3747.0,0.09669292003582619
3746.0,0.09777947172068524
3745.0,0.09957824654226233
3744.0,0.10078158214862709
3743.0,0.10017949757290379
3742.0,0.09870518283443275
3741.0,0.09859617317474823
3740.0,0.09914149529800831
3739.0,0.09875969792669093
3738.0,0.09767069414168117
3737.0,0.09674718310604158
3736.0,0.096150661903319
3735.0,0.09571734235437201
3734.0,0.09593394808549704
3733.0,0.09718153191774648
3732.0,0.09875969792669093
3731.0,0.09952362861074304
3730.0,0.09935981601739963
3729.0,0.09919606518963042
3728.0,0.09946901754724413
3727.0,0.09979678698310646
3726.0,0.09985143928065598
3725.0,0.09985143928065598
3724.0,0.10017949757290379
3723.0,0.10061729446673495
3722.0,0.10072681268239614
3721.0,0.1005078038618683
3720.0,0.10039834085387778
3719.0,0.1005625457138224
3718.0,0.10094593200182911
3717.0,0.10105553313349058
3716.0,0.10072681268239614
3715.0,0.10017949757290379
3714.0,0.09974214156222239
3713.0,0.09925064193892053
3712.0,0.09892328427374508
3711.0,0.09914149529800831
3710.0,0.09990609845660159
3709.0,0.1005078038618683
3708.0,0.10094593200182911
3707.0,0.10132965703447017
3706.0,0.10149421446564144
3705.0,0.10149421446564144
3704.0,0.10149421446564144
3703.0,0.10165883427249067
3702.0,0.1017686154869033
3701.0,0.10165883427249067
3700.0,0.1012199867101744
3699.0,0.10083635852278117
3698.0,0.10100072911021085
3697.0,0.10149421446564144
3696.0,0.10165883427249067
3695.0,0.10132965703447017
3694.0,0.10072681268239614
3693.0,0.10001543745060903
3692.0,0.09919606518963042
3691.0,0.09837823590664274
3690.0,0.09837823590664274
3689.0,0.09935981601739963
3688.0,0.10023419805561384
3687.0,0.10017949757290379
3686.0,0.09985143928065598
3685.0,0.10034361969436434
3684.0,0.1012199867101744
3683.0,0.10154908080162528
3682.0,0.10132965703447017
3681.0,0.10100072911021085
3680.0,0.1005625457138224
3679.0,0.09968750301627338
3678.0,0.09865067458435761
3677.0,0.09826930827078129
3676.0,0.09881421986284966
3675.0,0.09946901754724413
3674.0,0.09886874864462802
3673.0,0.09772507952549825
3672.0,0.09810596802617932
3671.0,0.09935981601739963
3670.0,0.09985143928065598
3669.0,0.09979678698310646
3668.0,0.09974214156222239
3667.0,0.10023419805561384
3666.0,0.10127481841050656
3665.0,0.1022080180607754
3664.0,0.10264786565568684
3663.0,0.10275789719463457
3662.0,0.10281292341984649
3661.0,0.10281292341984649
3660.0,0.10259286033841963
3659.0,0.10231793820358015
3658.0,0.10237290870955862
3657.0,0.10270287794050348
3656.0,0.1028679566179056
3655.0,0.10237290870955862
3654.0,0.10149421446564144
3653.0,0.10100072911021085
3652.0,0.10089114180660053
3651.0,0.10034361969436434
3650.0,0.09941441335003853
3649.0,0.09930522554760213
3648.0,0.10012480397898926
3647.0,0.10083635852278117
3646.0,0.10132965703447017
3645.0,0.10215306842042837
3644.0,0.10325338439259446
3643.0,0.10419084983086901
3642.0,0.10468797552421272
3641.0,0.10479852522110678
3640.0,0.10479852522110678
3639.0,0.10496440254767725
3638.0,0.1052410056281079
3637.0,0.10546241500425357
3636.0,0.10568393731556158
3635.0,0.10585015323207791
3634.0,0.10568393731556158
3633.0,0.10485381062400778
3632.0,0.10385974855798041
3631.0,0.10341867249426717
3630.0,0.10374943753836186
3629.0,0.10468797552421272
3628.0,0.10562854614376227
3627.0,0.10585015323207791
3626.0,0.10579474085791629
3625.0,0.10640466618011679
3624.0,0.10690433390377163
3623.0,0.10673771411200872
3622.0,0.1062937069352865
3621.0,0.10590557267730127
3620.0,0.10557316203581202
3619.0,0.10507502264045665
3618.0,0.10446696051592963
3617.0,0.10385974855798041
3616.0,0.1038045895457893
3615.0,0.10435649517592083
3614.0,0.10507502264045665
3613.0,0.10551778498990938
3612.0,0.10573933555301185
3611.0,0.10601643278815298
3610.0,0.10657115822045493
3609.0,0.1071265931112344
3608.0,0.10740457717110186
3607.0,0.10746019534136453
3606.0,0.10746019534136453
3605.0,0.10762709260156367
3604.0,0.10784972209863586
3603.0,0.10779405402422748
3602.0,0.10757145305477
3601.0,0.10734896612269962
3600.0,0.10718217569042365
3599.0,0.1071265931112344
3598.0,0.10718217569042365
3597.0,0.10723776538418317
3596.0,0.10734896612269962
3595.0,0.1075158206353124
3594.0,0.10773839308446487
3593.0,0.10784972209863586
3592.0,0.10779405402422748
3591.0,0.10773839308446487
3590.0,0.10762709260156367
3589.0,0.10746019534136453
3588.0,0.10740457717110186
3587.0,0.10762709260156367
3586.0,0.1081838804751396
3585.0,0.10879717273970457
3584.0,0.10941133229451272
3583.0,0.10997041383658313
3582.0,0.11030620855581463
3581.0,0.11047420332880886
3580.0,0.11058623595729111
3579.0,0.11069829749368965
3578.0,0.11069829749368965
3577.0,0.1106422631110684
3576.0,0.11053021603049262
3575.0,0.11047420332880886
3574.0,0.1106422631110684
3573.0,0.11069829749368965
3572.0,0.1106422631110684
3571.0,0.11036219959333216
3570.0,0.1098585399354226
3569.0,0.10924374808178183
3568.0,0.10862982530385179
3567.0,0.10807246577932506
3566.0,0.10784972209863586
3565.0,0.10779405402422748
3564.0,0.10812816955441629
3563.0,0.10896458468468917
3562.0,0.11002636159600376
3561.0,0.11097857790477517
3560.0,0.11165198982195101
3559.0,0.11210151190312767
3558.0,0.11238269966426384
3557.0,0.11266406960083297
3556.0,0.1128329791052256
3555.0,0.1128329791052256
3554.0,0.11272036546997688
3553.0,0.11260778102815316
3552.0,0.11243895906999102
3551.0,0.11221396516162851
3550.0,0.11198908775497118
3549.0,0.11182050608167504
3548.0,0.1117081546434846
3547.0,0.11176432672943282
3546.0,0.11198908775497118
3545.0,0.11243895906999102
3544.0,0.1130019543289007
3543.0,0.1136220932414278
3542.0,0.1141301390960936
3541.0,0.1145256971708426
3540.0,0.11458223488906394
3539.0,0.11446916681190777
3538.0,0.11435612816423602
3537.0,0.11435612816423602
3536.0,0.11446916681190777
3535.0,0.1145256971708426
3534.0,0.1145256971708426
3533.0,0.11441264381034388
3532.0,0.11424311893073247
3531.0,0.11396072443355765
3530.0,0.1136220932414278
3529.0,0.11339648571328764
3528.0,0.11328372588352176
3527.0,0.11317099532301778
3526.0,0.11322735694556196
3525.0,0.11356568037106163
3524.0,0.1141301390960936
3523.0,0.11463877996848804
3522.0,0.1149782051377024
3521.0,0.11514801725400226
3520.0,0.11526126223036814
3519.0,0.11537453674376552
3518.0,0.11543118508166672
3517.0,0.11526126223036814
3516.0,0.11509140583739286
3515.0,0.1149782051377024
3514.0,0.11503480179926728
3513.0,0.11509140583739286
3512.0,0.11509140583739286
3511.0,0.1149782051377024
3510.0,0.11475189221861393
3509.0,0.1145256971708426
3508.0,0.11441264381034388
3507.0,0.11446916681190777
3506.0,0.11463877996848804
3505.0,0.1148084593931522
3504.0,0.1149782051377024
3503.0,0.11514801725400226
3502.0,0.11531789579397489
3501.0,0.11548784080960606
3500.0,0.11577123036739612
3499.0,0.11611154211151953
3498.0,0.1165089098110701
3497.0,0.11667932161702477
3496.0,0.11662251025166115
3495.0,0.11645212073195621
3494.0,0.11633856484638239
3493.0,0.1163953390777075
3492.0,0.1165089098110701
3491.0,0.1165089098110701
3490.0,0.1163953390777075
3489.0,0.11628179803604044
3488.0,0.1163953390777075
3487.0,0.11662251025166115
3486.0,0.11690664142431006
3485.0,0.1170772093974013
3484.0,0.1170772093974013
3483.0,0.1169634899723202
3482.0,0.116736140415026
3481.0,0.11667932161702477
3480.0,0.11690664142431006
3479.0,0.11736163830396129
3478.0,0.11776015198117662
3477.0,0.11787408022996826
3476.0,0.11787408022996826
3475.0,0.11787408022996826
3474.0,0.11804502866039956
3473.0,0.11827306462358211
3472.0,0.11844417020668851
3471.0,0.1183871275216517
3470.0,0.11815903167507247
3469.0,0.11798803837334138
3468.0,0.11798803837334138
3467.0,0.11833009232793867
3466.0,0.11890078161098283
3465.0,0.11935787359571504
3464.0,0.11958660012208333
3463.0,0.11958660012208333
3462.0,0.11952940719622163
3461.0,0.11975822410451964
3460.0,0.1202162199095842
3459.0,0.12084675381575383
3458.0,0.12142076193778073
3457.0,0.12176553132495593
3456.0,0.12188051530283239
3455.0,0.12188051530283239
3454.0,0.1219955297319748
3453.0,0.12216810850710624
3452.0,0.12239832027072817
3451.0,0.12245589228405596
3450.0,0.12234075588839133
3449.0,0.12205304837081177
3448.0,0.12170805075020397
3447.0,0.12142076193778073
3446.0,0.12136332697348307
3445.0,0.12159311241900439
3444.0,0.12216810850710624
3443.0,0.12285911021517903
3442.0,0.12349349573411894
3441.0,0.12395544975390482
3440.0,0.12424442074194553
3439.0,0.1244757360506914
3438.0,0.12470717462899183
3437.0,0.1248808345374317
3436.0,0.1249387366082999
3435.0,0.1249387366082999
3434.0,0.125054563914468
3433.0,0.12534426740189897
3432.0,0.12563416426995122
3431.0,0.12592425477696523
3430.0,0.12598229613781387
3429.0,0.12598229613781387
3428.0,0.12598229613781387
3427.0,0.12604034525664676
3426.0,0.12621453918179926
3425.0,0.12627261935332057
3424.0,0.12621453918179926
3423.0,0.12604034525664676
3422.0,0.12598229613781387
3421.0,0.12592425477696523
3420.0,0.12604034525664676
3419.0,0.126156466776564
3418.0,0.1263307072932056
3417.0,0.12644690648638135
3416.0,0.12638880300353272
3415.0,0.126156466776564
3414.0,0.12575017722159698
3413.0,0.12534426740189897
3412.0,0.1249387366082999
3411.0,0.12459143992293642
3410.0,0.12430223801979201
3409.0,0.12401322857151209
3408.0,0.12378215940835768
3407.0,0.12372441132212098
3406.0,0.12389767862220635
3405.0,0.12418661116024232
3404.0,0.12430223801979201
3403.0,0.12424442074194553
3402.0,0.12412880927263426
3401.0,0.12407101507707297
3400.0,0.12418661116024232
3399.0,0.12430223801979201
3398.0,0.12436006299583169
3397.0,0.12430223801979201
3396.0,0.12412880927263426
3395.0,0.12389767862220635
3394.0,0.12383991517437187
3393.0,0.12395544975390482
3392.0,0.12418661116024232
3391.0,0.12436006299583169
3390.0,0.12436006299583169
3389.0,0.12418661116024232
3388.0,0.12395544975390482
3387.0,0.12378215940835768
3386.0,0.12378215940835768
3385.0,0.12395544975390482
3384.0,0.12418661116024232
3383.0,0.12436006299583169
3382.0,0.1244757360506914
3381.0,0.1244757360506914
3380.0,0.12441789567211425
3379.0,0.12430223801979201
3378.0,0.12424442074194553
3377.0,0.12412880927263426
3376.0,0.12401322857151209
3375.0,0.12383991517437187
3374.0,0.12378215940835768
3373.0,0.12378215940835768
3372.0,0.12383991517437187
3371.0,0.12383991517437187
3370.0,0.12383991517437187
3369.0,0.12389767862220635
3368.0,0.12401322857151209
3367.0,0.12418661116024232
3366.0,0.12430223801979201
3365.0,0.12430223801979201
3364.0,0.12412880927263426
3363.0,0.12383991517437187
3362.0,0.1236666709136196
3361.0,0.1236666709136196
3360.0,0.12378215940835768
3359.0,0.12395544975390482
3358.0,0.12407101507707297
3357.0,0.12407101507707297
3356.0,0.12407101507707297
3355.0,0.12407101507707297
3354.0,0.12407101507707297
3353.0,0.12424442074194553
3352.0,0.12453358413361437
3351.0,0.1248808345374317
3350.0,0.125054563914468
3349.0,0.125054563914468
3348.0,0.12482294018529605
3347.0,0.12459143992293642
3346.0,0.1244757360506914
3345.0,0.12453358413361437
3344.0,0.12464930342071079
3343.0,0.12476505354983503
3342.0,0.1248808345374317
3341.0,0.124996646399959
3340.0,0.1251124891538875
3339.0,0.12517042212027807
3338.0,0.1251124891538875
3337.0,0.124996646399959
3336.0,0.12482294018529605
3335.0,0.12476505354983503
3334.0,0.12482294018529605
3333.0,0.1248808345374317
3332.0,0.1248808345374317
3331.0,0.12482294018529605
3330.0,0.12476505354983503
3329.0,0.12482294018529605
3328.0,0.124996646399959
3327.0,0.1252863112422209
3326.0,0.12551818230053358
3325.0,0.12563416426995122
3324.0,0.12557616941349803
3323.0,0.12546020292898974
3322.0,0.12540223129680017
3321.0,0.12540223129680017
3320.0,0.1252863112422209
3319.0,0.1249387366082999
3318.0,0.12453358413361437
3317.0,0.12418661116024232
3316.0,0.12407101507707297
3315.0,0.12418661116024232
3314.0,0.12436006299583169
3313.0,0.12453358413361437
3312.0,0.12470717462899183
3311.0,0.1248808345374317
3310.0,0.1251124891538875
3309.0,0.12534426740189897
3308.0,0.12540223129680017
3307.0,0.12540223129680017
3306.0,0.1252863112422209
3305.0,0.1251124891538875
3304.0,0.124996646399959
3303.0,0.1249387366082999
3302.0,0.125054563914468
3301.0,0.12517042212027807
3300.0,0.1252863112422209
3299.0,0.12540223129680017
3298.0,0.12540223129680017
3297.0,0.12551818230053358
3296.0,0.12563416426995122
3295.0,0.12569216687196105
3294.0,0.12551818230053358
3293.0,0.12534426740189897
3292.0,0.12517042212027807
3291.0,0.12522836281570182
3290.0,0.12540223129680017
3289.0,0.12546020292898974
3288.0,0.12540223129680017
3287.0,0.12522836281570182
3286.0,0.125054563914468
3285.0,0.124996646399959
3284.0,0.124996646399959
3283.0,0.124996646399959
3282.0,0.1249387366082999
3281.0,0.1248808345374317
3280.0,0.12476505354983503
3279.0,0.12464930342071079
3278.0,0.1244757360506914
3277.0,0.12436006299583169
3276.0,0.12436006299583169
3275.0,0.12453358413361437
3274.0,0.12482294018529605
3273.0,0.1249387366082999
3272.0,0.1249387366082999
3271.0,0.12476505354983503
3270.0,0.12470717462899183
3269.0,0.12476505354983503
3268.0,0.1248808345374317
3267.0,0.1248808345374317
3266.0,0.12476505354983503
3265.0,0.12459143992293642
3264.0,0.1244757360506914
3263.0,0.12441789567211425
3262.0,0.12453358413361437
3261.0,0.12464930342071079
3260.0,0.12476505354983503
3259.0,0.12482294018529605
3258.0,0.12470717462899183
3257.0,0.12459143992293642
3256.0,0.1244757360506914
3255.0,0.12459143992293642
3254.0,0.12464930342071079
3253.0,0.12459143992293642
3252.0,0.12436006299583169
3251.0,0.12412880927263426
3250.0,0.12407101507707297
3249.0,0.12407101507707297
3248.0,0.12401322857151209
3247.0,0.12389767862220635
3246.0,0.12378215940835768
3245.0,0.12378215940835768
3244.0,0.12389767862220635
3243.0,0.12401322857151209
3242.0,0.12401322857151209
3241.0,0.12395544975390482
3240.0,0.12383991517437187
3239.0,0.12389767862220635
3238.0,0.12401322857151209
3237.0,0.12412880927263426
3236.0,0.12412880927263426
3235.0,0.12407101507707297
3234.0,0.12412880927263426
3233.0,0.12424442074194553
3232.0,0.12430223801979201
3231.0,0.12407101507707297
3230.0,0.12360893818081231
3229.0,0.12326270285933538
3228.0,0.12314735239865637
3227.0,0.1233203895807995
3226.0,0.12360893818081231
3225.0,0.12383991517437187
3224.0,0.12389767862220635
3223.0,0.12378215940835768
3222.0,0.12360893818081231
3221.0,0.12343578601615435
3220.0,0.12337808396572703
3219.0,0.12355121312165873
3218.0,0.12383991517437187
3217.0,0.12407101507707297
3216.0,0.12412880927263426
3215.0,0.12401322857151209
3214.0,0.12383991517437187
3213.0,0.12355121312165873
3212.0,0.12337808396572703
3211.0,0.1233203895807995
3210.0,0.12337808396572703
3209.0,0.12343578601615435
3208.0,0.12337808396572703
3207.0,0.12326270285933538
3206.0,0.12326270285933538
3205.0,0.12337808396572703
3204.0,0.12355121312165873
3203.0,0.12372441132212098
3202.0,0.12372441132212098
3201.0,0.12360893818081231
3200.0,0.12337808396572703
3199.0,0.12308968865537295
3198.0,0.12297438413275108
3197.0,0.12291674334934943
3196.0,0.12303203256741524
3195.0,0.12308968865537295
3194.0,0.12314735239865637
3193.0,0.12314735239865637
3192.0,0.12314735239865637
3191.0,0.12308968865537295
3190.0,0.12303203256741524
3189.0,0.12291674334934943
3188.0,0.12285911021517903
3187.0,0.12285911021517903
3186.0,0.12291674334934943
3185.0,0.12303203256741524
3184.0,0.12314735239865637
3183.0,0.12320502379929943
3182.0,0.12320502379929943
3181.0,0.12314735239865637
3180.0,0.12303203256741524
3179.0,0.12285911021517903
3178.0,0.12257105921178035
3177.0,0.12234075588839133
3176.0,0.12216810850710624
3175.0,0.12228319913502328
3174.0,0.12251347193039863
3173.0,0.12268625668776156
3172.0,0.12268625668776156
3171.0,0.12251347193039863
3170.0,0.12239832027072817
3169.0,0.12239832027072817
3168.0,0.12245589228405596
3167.0,0.12245589228405596
3166.0,0.12245589228405596
3165.0,0.12257105921178035
3164.0,0.12274386688641381
3163.0,0.12291674334934943
3162.0,0.12297438413275108
3161.0,0.12297438413275108
3160.0,0.12280148472821018
3159.0,0.12262865413022594
3158.0,0.12239832027072817
3157.0,0.12211057462851604
3156.0,0.12182301950849372
3155.0,0.12170805075020397
3154.0,0.12182301950849372
3153.0,0.1219955297319748
3152.0,0.12211057462851604
3151.0,0.12193801870998744
3150.0,0.12176553132495593
3149.0,0.12165057778222454
3148.0,0.12182301950849372
3147.0,0.12205304837081177
3146.0,0.12222565000860186
3145.0,0.12228319913502328
3144.0,0.12234075588839133
3143.0,0.12239832027072817
3142.0,0.12245589228405596
3141.0,0.12251347193039863
3140.0,0.12251347193039863
3139.0,0.12245589228405596
3138.0,0.12239832027072817
3137.0,0.12228319913502328
3136.0,0.12216810850710624
3135.0,0.12211057462851604
3134.0,0.12211057462851604
3133.0,0.12211057462851604
3132.0,0.12211057462851604
3131.0,0.12216810850710624
3130.0,0.12234075588839133
3129.0,0.12262865413022594
3128.0,0.12274386688641381
3127.0,0.12262865413022594
3126.0,0.12245589228405596
3125.0,0.12234075588839133
3124.0,0.12234075588839133
3123.0,0.12245589228405596
3122.0,0.12245589228405596
3121.0,0.12251347193039863
3120.0,0.12251347193039863
3119.0,0.12245589228405596
3118.0,0.12239832027072817
3117.0,0.12234075588839133
3116.0,0.12228319913502328
3115.0,0.12239832027072817
3114.0,0.12251347193039863
3113.0,0.12262865413022594
3112.0,0.12268625668776156
3111.0,0.12274386688641381
3110.0,0.12280148472821018
3109.0,0.12291674334934943
3108.0,0.12303203256741524
3107.0,0.12320502379929943
3106.0,0.12337808396572703
3105.0,0.12337808396572703
3104.0,0.12337808396572703
3103.0,0.12337808396572703
3102.0,0.12349349573411894
3101.0,0.1236666709136196
3100.0,0.12389767862220635
3099.0,0.12395544975390482
3098.0,0.12378215940835768
3097.0,0.12349349573411894
3096.0,0.12320502379929943
3095.0,0.12303203256741524
3094.0,0.12297438413275108
3093.0,0.12291674334934943
3092.0,0.12297438413275108
3091.0,0.12308968865537295
3090.0,0.12337808396572703
3089.0,0.1236666709136196
3088.0,0.12383991517437187
3087.0,0.12389767862220635
3086.0,0.12383991517437187
3085.0,0.12383991517437187
3084.0,0.12395544975390482
3083.0,0.12418661116024232
3082.0,0.12441789567211425
3081.0,0.1244757360506914
3080.0,0.12453358413361437
3079.0,0.12453358413361437
3078.0,0.12464930342071079
3077.0,0.12470717462899183
3076.0,0.12464930342071079
3075.0,0.12459143992293642
3074.0,0.1244757360506914
3073.0,0.12453358413361437
3072.0,0.12459143992293642
3071.0,0.12464930342071079
3070.0,0.12476505354983503
3069.0,0.1249387366082999
3068.0,0.12517042212027807
3067.0,0.1252863112422209
3066.0,0.1252863112422209
3065.0,0.12517042212027807
3064.0,0.124996646399959
3063.0,0.1249387366082999
3062.0,0.1248808345374317
3061.0,0.12482294018529605
3060.0,0.12470717462899183
3059.0,0.12464930342071079
3058.0,0.12459143992293642
3057.0,0.12470717462899183
3056.0,0.1249387366082999
3055.0,0.12522836281570182
3054.0,0.12546020292898974
3053.0,0.12551818230053358
3052.0,0.12546020292898974
3051.0,0.1252863112422209
3050.0,0.124996646399959
3049.0,0.12470717462899183
3048.0,0.12453358413361437
3047.0,0.12436006299583169
3046.0,0.12418661116024232
3045.0,0.12401322857151209
3044.0,0.1236666709136196
3043.0,0.1233203895807995
3042.0,0.12297438413275108
3041.0,0.12262865413022594
3040.0,0.12228319913502328
3039.0,0.1219955297319748
3038.0,0.12165057778222454
3037.0,0.12147820449879343
3036.0,0.12136332697348307
3035.0,0.1213058996038916
3034.0,0.12124847982699793
3033.0,0.12119106764079435
3032.0,0.12107626603243293
3031.0,0.12090412049992727
3030.0,0.12067469921519258
3029.0,0.1203880929341492
3028.0,0.1201016756699902
3027.0,0.11987267778337518
3026.0,0.11970100857424737
3025.0,0.11958660012208333
3024.0,0.11958660012208333
3023.0,0.11958660012208333
3022.0,0.11964380058076385
3021.0,0.11958660012208333
3020.0,0.11947222180119477
3019.0,0.11930071078129845
3018.0,0.11924355548978971
3017.0,0.11930071078129845
3016.0,0.11930071078129845
3015.0,0.11924355548978971
3014.0,0.11924355548978971
3013.0,0.11918640771920863
3012.0,0.11918640771920863
3011.0,0.11930071078129845
3010.0,0.11947222180119477
3009.0,0.11970100857424737
3008.0,0.11975822410451964
3007.0,0.11964380058076385
3006.0,0.11947222180119477
3005.0,0.11930071078129845
3004.0,0.11924355548978971
3003.0,0.11935787359571504
3002.0,0.11964380058076385
3001.0,0.11987267778337518
3000.0,0.11992991593593283
2999.0,0.11987267778337518
2998.0,0.11981544717356662
2997.0,0.11987267778337518
2996.0,0.1199871616332282
2995.0,0.12015894401343741
2994.0,0.1202162199095842
2993.0,0.12015894401343741
2992.0,0.12004441487725082
2991.0,0.11981544717356662
2990.0,0.11958660012208333
2989.0,0.11947222180119477
2988.0,0.11952940719622163
2987.0,0.11992991593593283
2986.0,0.12056003400478299
2985.0,0.12119106764079435
2984.0,0.12182301950849372
2983.0,0.12251347193039863
2982.0,0.12320502379929943
2981.0,0.12395544975390482
2980.0,0.12476505354983503
2979.0,0.12557616941349803
2978.0,0.12621453918179926
2977.0,0.12667939818460128
2976.0,0.1270865583796048
2975.0,0.1275523522109867
2974.0,0.1280769681176266
2973.0,0.1286022185125162
2972.0,0.12912810493225724
2971.0,0.12965462891904034
2970.0,0.13018179202067182
2969.0,0.1308269726783169
2968.0,0.1314731132317961
2967.0,0.13212021654162043
2966.0,0.13276828548110586
2965.0,0.13335827943396006
2964.0,0.1337717526203528
2963.0,0.13406733180681396
2962.0,0.13430394008392943
2961.0,0.13448148092522594
2960.0,0.13454067733803532
2959.0,0.13454067733803532
2958.0,0.13442229258007088
2957.0,0.13424477592854833
2956.0,0.13406733180681396
2955.0,0.13394907599072514
2954.0,0.13383085236622927
2953.0,0.13365357725039817
2952.0,0.13341732293645103
2951.0,0.13318119707395182
2950.0,0.13294519952329842
2949.0,0.13259144347720886
2948.0,0.1322379753497993
2947.0,0.13176713157753506
2946.0,0.13135556160517425
2945.0,0.1308856730206247
2944.0,0.13035765534840538
2943.0,0.12977172098820566
2942.0,0.12912810493225724
2941.0,0.12836869546244634
2940.0,0.1276688787697493
2939.0,0.12720296001040166
2938.0,0.12691201440971422
2937.0,0.12667939818460128
2936.0,0.12644690648638135
2935.0,0.1260984021355387
2934.0,0.12569216687196105
2933.0,0.1252863112422209
2932.0,0.1249387366082999
2931.0,0.12482294018529605
2930.0,0.12470717462899183
2929.0,0.12464930342071079
2928.0,0.12453358413361437
2927.0,0.12436006299583169
2926.0,0.12430223801979201
2925.0,0.12418661116024232
2924.0,0.12407101507707297
2923.0,0.12383991517437187
2922.0,0.12360893818081231
2921.0,0.12337808396572703
2920.0,0.12326270285933538
2919.0,0.12326270285933538
2918.0,0.12337808396572703
2917.0,0.12360893818081231
2916.0,0.12389767862220635
2915.0,0.12418661116024232
2914.0,0.12441789567211425
2913.0,0.12464930342071079
2912.0,0.1249387366082999
2911.0,0.12534426740189897
2910.0,0.12586622117202761
2909.0,0.12644690648638135
2908.0,0.12691201440971422
2907.0,0.12720296001040166
2906.0,0.12731939284807026
2905.0,0.12726117252733116
2904.0,0.1270865583796048
2903.0,0.1267375405612734
2902.0,0.12638880300353272
2901.0,0.12598229613781387
2900.0,0.1258081953209289
2899.0,0.1258081953209289
2898.0,0.12586622117202761
2897.0,0.12598229613781387
2896.0,0.12598229613781387
2895.0,0.12586622117202761
2894.0,0.12575017722159698
2893.0,0.12569216687196105
2892.0,0.12575017722159698
2891.0,0.12586622117202761
2890.0,0.12586622117202761
2889.0,0.12586622117202761
2888.0,0.12575017722159698
2887.0,0.12569216687196105
2886.0,0.12569216687196105
2885.0,0.12575017722159698
2884.0,0.1258081953209289
2883.0,0.12586622117202761
2882.0,0.12586622117202761
2881.0,0.12586622117202761
2880.0,0.12598229613781387
2879.0,0.12621453918179926
2878.0,0.12644690648638135
2877.0,0.12656313677796316
2876.0,0.12656313677796316
2875.0,0.12638880300353272
2874.0,0.12621453918179926
2873.0,0.1260984021355387
2872.0,0.12598229613781387
2871.0,0.12598229613781387
2870.0,0.1260984021355387
2869.0,0.126156466776564
2868.0,0.126156466776564
2867.0,0.12598229613781387
2866.0,0.12592425477696523
2865.0,0.12598229613781387
2864.0,0.1260984021355387
2863.0,0.12621453918179926
2862.0,0.12644690648638135
2861.0,0.12667939818460128
2860.0,0.12697018793895576
2859.0,0.12720296001040166
2858.0,0.12731939284807026
2857.0,0.12749410065407507
2856.0,0.12778543660241448
2855.0,0.1280186461566306
2854.0,0.1280769681176266
2853.0,0.1280186461566306
2852.0,0.12784372725170723
2851.0,0.12761061158217912
2850.0,0.12743585690934855
2849.0,0.12726117252733116
2848.0,0.1270865583796048
2847.0,0.12697018793895576
2846.0,0.12691201440971422
2845.0,0.12697018793895576
2844.0,0.1270865583796048
2843.0,0.1270865583796048
2842.0,0.1270865583796048
2841.0,0.1270865583796048
2840.0,0.1270865583796048
2839.0,0.1270865583796048
2838.0,0.12714475529518965
2837.0,0.12726117252733116
2836.0,0.12731939284807026
2835.0,0.12726117252733116
2834.0,0.1270865583796048
2833.0,0.12691201440971422
2832.0,0.12691201440971422
2831.0,0.1270865583796048
2830.0,0.12731939284807026
2829.0,0.12749410065407507
2828.0,0.12761061158217912
2827.0,0.12761061158217912
2826.0,0.12743585690934855
2825.0,0.12720296001040166
2824.0,0.12697018793895576
2823.0,0.12685384867174432
2822.0,0.12685384867174432
2821.0,0.12697018793895576
2820.0,0.12702836926155658
2819.0,0.12702836926155658
2818.0,0.1270865583796048
2817.0,0.12720296001040166
2816.0,0.12737762097471172
2815.0,0.12731939284807026
2814.0,0.12720296001040166
2813.0,0.12702836926155658
2812.0,0.12702836926155658
2811.0,0.12714475529518965
2810.0,0.12726117252733116
2809.0,0.12737762097471172
2808.0,0.12737762097471172
2807.0,0.12726117252733116
2806.0,0.12720296001040166
2805.0,0.12731939284807026
2804.0,0.12743585690934855
2803.0,0.1275523522109867
2802.0,0.12749410065407507
2801.0,0.12737762097471172
2800.0,0.12726117252733116
2799.0,0.12720296001040166
2798.0,0.12714475529518965
2797.0,0.12714475529518965
2796.0,0.12720296001040166
2795.0,0.12731939284807026
2794.0,0.12743585690934855
2793.0,0.12743585690934855
2792.0,0.12726117252733116
2791.0,0.12702836926155658
2790.0,0.12691201440971422
2789.0,0.12702836926155658
2788.0,0.12720296001040166
2787.0,0.12731939284807026
2786.0,0.12737762097471172
2785.0,0.12731939284807026
2784.0,0.12720296001040166
2783.0,0.12697018793895576
2782.0,0.12685384867174432
2781.0,0.12685384867174432
2780.0,0.12697018793895576
2779.0,0.1270865583796048
2778.0,0.12714475529518965
2777.0,0.12714475529518965
2776.0,0.1270865583796048
2775.0,0.12697018793895576
2774.0,0.1267375405612734
2773.0,0.12650501774383094
2772.0,0.1263307072932056
2771.0,0.1263307072932056
2770.0,0.12644690648638135
2769.0,0.12656313677796316
2768.0,0.126621263590859
2767.0,0.126621263590859
2766.0,0.126621263590859
2765.0,0.12656313677796316
2764.0,0.12656313677796316
2763.0,0.12667939818460128
2762.0,0.12679569072295926
2761.0,0.12685384867174432
2760.0,0.1267375405612734
2759.0,0.12656313677796316
2758.0,0.1263307072932056
2757.0,0.1263307072932056
2756.0,0.12650501774383094
2755.0,0.1267375405612734
2754.0,0.12691201440971422
2753.0,0.12691201440971422
2752.0,0.12685384867174432
2751.0,0.12679569072295926
2750.0,0.12679569072295926
2749.0,0.12691201440971422
2748.0,0.12697018793895576
2747.0,0.12697018793895576
2746.0,0.12702836926155658
2745.0,0.12714475529518965
2744.0,0.12720296001040166
2743.0,0.12726117252733116
2742.0,0.12731939284807026
2741.0,0.12714475529518965
2740.0,0.12691201440971422
2739.0,0.126621263590859
2738.0,0.12650501774383094
2737.0,0.126621263590859
2736.0,0.12667939818460128
2735.0,0.12667939818460128
2734.0,0.12656313677796316
2733.0,0.12650501774383094
2732.0,0.126621263590859
2731.0,0.12679569072295926
2730.0,0.12685384867174432
2729.0,0.12679569072295926
2728.0,0.1267375405612734
2727.0,0.126621263590859
2726.0,0.12650501774383094
2725.0,0.1263307072932056
2724.0,0.12621453918179926
2723.0,0.126156466776564
2722.0,0.126156466776564
2721.0,0.12627261935332057
2720.0,0.12638880300353272
2719.0,0.12656313677796316
2718.0,0.1267375405612734
2717.0,0.12685384867174432
2716.0,0.12679569072295926
2715.0,0.12667939818460128
2714.0,0.12656313677796316
2713.0,0.12644690648638135
2712.0,0.12644690648638135
2711.0,0.12644690648638135
2710.0,0.12644690648638135
2709.0,0.12650501774383094
2708.0,0.12650501774383094
2707.0,0.126621263590859
2706.0,0.1267375405612734
2705.0,0.1267375405612734
2704.0,0.1267375405612734
2703.0,0.126621263590859
2702.0,0.12656313677796316
2701.0,0.12644690648638135
2700.0,0.1263307072932056
2699.0,0.12627261935332057
2698.0,0.12644690648638135
2697.0,0.12667939818460128
2696.0,0.12691201440971422
2695.0,0.12702836926155658
2694.0,0.12691201440971422
2693.0,0.12685384867174432
2692.0,0.1267375405612734
2691.0,0.126621263590859
2690.0,0.12650501774383094
2689.0,0.12638880300353272
2688.0,0.12638880300353272
2687.0,0.12650501774383094
2686.0,0.126621263590859
2685.0,0.1267375405612734
2684.0,0.12679569072295926
2683.0,0.12679569072295926
2682.0,0.12685384867174432
2681.0,0.12685384867174432
2680.0,0.12702836926155658
2679.0,0.12720296001040166
2678.0,0.12731939284807026
2677.0,0.12737762097471172
2676.0,0.12726117252733116
2675.0,0.12714475529518965
2674.0,0.12702836926155658
2673.0,0.12691201440971422
2672.0,0.12679569072295926
2671.0,0.12679569072295926
2670.0,0.12679569072295926
2669.0,0.12685384867174432
2668.0,0.12691201440971422
2667.0,0.12697018793895576
2666.0,0.12691201440971422
2665.0,0.12691201440971422
2664.0,0.12697018793895576
2663.0,0.12702836926155658
2662.0,0.12702836926155658
2661.0,0.12697018793895576
2660.0,0.12679569072295926
2659.0,0.1267375405612734
2658.0,0.1267375405612734
2657.0,0.12679569072295926
2656.0,0.12685384867174432
2655.0,0.12679569072295926
2654.0,0.1267375405612734
2653.0,0.126621263590859
2652.0,0.12656313677796316
2651.0,0.12650501774383094
2650.0,0.12650501774383094
2649.0,0.12650501774383094
2648.0,0.12644690648638135
2647.0,0.1263307072932056
2646.0,0.126156466776564
2645.0,0.1260984021355387
2644.0,0.126156466776564
2643.0,0.12621453918179926
2642.0,0.12627261935332057
2641.0,0.12621453918179926
2640.0,0.126156466776564
2639.0,0.126156466776564
2638.0,0.12627261935332057
2637.0,0.12644690648638135
2636.0,0.126621263590859
2635.0,0.12679569072295926
2634.0,0.12691201440971422
2633.0,0.12691201440971422
2632.0,0.12679569072295926
2631.0,0.126621263590859
2630.0,0.12656313677796316
2629.0,0.12667939818460128
2628.0,0.12685384867174432
2627.0,0.12702836926155658
2626.0,0.1270865583796048
2625.0,0.1270865583796048
2624.0,0.1270865583796048
2623.0,0.12702836926155658
2622.0,0.12697018793895576
2621.0,0.12691201440971422
2620.0,0.12691201440971422
2619.0,0.12691201440971422
2618.0,0.12691201440971422
2617.0,0.12685384867174432
2616.0,0.12679569072295926
2615.0,0.1267375405612734
2614.0,0.12679569072295926
2613.0,0.12697018793895576
2612.0,0.12714475529518965
2611.0,0.12726117252733116
2610.0,0.12737762097471172
2609.0,0.12743585690934855
2608.0,0.12749410065407507
2607.0,0.12743585690934855
2606.0,0.12731939284807026
2605.0,0.12731939284807026
2604.0,0.12737762097471172
2603.0,0.12743585690934855
2602.0,0.12743585690934855
2601.0,0.12726117252733116
2600.0,0.12702836926155658
2599.0,0.12697018793895576
2598.0,0.1270865583796048
2597.0,0.12737762097471172
2596.0,0.1276688787697493
2595.0,0.1277271537757949
2594.0,0.1277271537757949
2593.0,0.1276688787697493
2592.0,0.1276688787697493
2591.0,0.1277271537757949
2590.0,0.12778543660241448
2589.0,0.1277271537757949
2588.0,0.1277271537757949
2587.0,0.1277271537757949
2586.0,0.12778543660241448
2585.0,0.12790202572577325
2584.0,0.12796033202671375
2583.0,0.12796033202671375
2582.0,0.12796033202671375
2581.0,0.1280769681176266
2580.0,0.1283103343144847
2579.0,0.12854382597704617
2578.0,0.1287190271420271
2577.0,0.1287190271420271
2576.0,0.1284854412916181
2575.0,0.12819363554127072
2574.0,0.1280769681176266
2573.0,0.1281352979118051
2572.0,0.12819363554127072
2571.0,0.1282519810081284
2570.0,0.1282519810081284
2569.0,0.1283103343144847
2568.0,0.12842706445412122
2567.0,0.1286022185125162
2566.0,0.12877744324029283
2565.0,0.12883586719705065
2564.0,0.12877744324029283
2563.0,0.1287190271420271
2562.0,0.12866061890013913
2561.0,0.12866061890013913
2560.0,0.1287190271420271
2559.0,0.12866061890013913
2558.0,0.1286022185125162
2557.0,0.12854382597704617
2556.0,0.12854382597704617
2555.0,0.12854382597704617
2554.0,0.1286022185125162
2553.0,0.12866061890013913
2552.0,0.1287190271420271
2551.0,0.12877744324029283
2550.0,0.1287190271420271
2549.0,0.1286022185125162
2548.0,0.12842706445412122
2547.0,0.1284854412916181
2546.0,0.1287190271420271
2545.0,0.1290696416513042
2544.0,0.12924505510985984
2543.0,0.12930354201075
2542.0,0.12930354201075
2541.0,0.12936203678919433
2540.0,0.12953756841108
2539.0,0.12965462891904034
2538.0,0.12971317100740865
2537.0,0.1295960947209729
2536.0,0.12930354201075
2535.0,0.1290696416513042
2534.0,0.12895273869450063
2533.0,0.12895273869450063
2532.0,0.12901118623942476
2531.0,0.12901118623942476
2530.0,0.1290696416513042
2529.0,0.1290696416513042
2528.0,0.12912810493225724
2527.0,0.12918657608440243
2526.0,0.12930354201075
2525.0,0.1294790499872358
2524.0,0.12965462891904034
2523.0,0.12971317100740865
2522.0,0.12971317100740865
2521.0,0.12965462891904034
2520.0,0.12965462891904034
2519.0,0.12953756841108
2518.0,0.12942053944731513
2517.0,0.12936203678919433
2516.0,0.12936203678919433
2515.0,0.1294790499872358
2514.0,0.12965462891904034
2513.0,0.12971317100740865
2512.0,0.12971317100740865
2511.0,0.12953756841108
2510.0,0.12936203678919433
2509.0,0.12930354201075
2508.0,0.12936203678919433
2507.0,0.1294790499872358
2506.0,0.12953756841108
2505.0,0.1295960947209729
2504.0,0.1295960947209729
2503.0,0.1295960947209729
2502.0,0.1295960947209729
2501.0,0.1295960947209729
2500.0,0.1294790499872358
2499.0,0.12930354201075
2498.0,0.12918657608440243
2497.0,0.12912810493225724
2496.0,0.1290696416513042
2495.0,0.12912810493225724
2494.0,0.12918657608440243
2493.0,0.12924505510985984
2492.0,0.12924505510985984
2491.0,0.12918657608440243
2490.0,0.12918657608440243
2489.0,0.12918657608440243
2488.0,0.12918657608440243
2487.0,0.12924505510985984
2486.0,0.12936203678919433
2485.0,0.1294790499872358
2484.0,0.12965462891904034
2483.0,0.12965462891904034
2482.0,0.12953756841108
2481.0,0.12930354201075
2480.0,0.12912810493225724
2479.0,0.1290696416513042
2478.0,0.12912810493225724
2477.0,0.12918657608440243
2476.0,0.12924505510985984
2475.0,0.12924505510985984
2474.0,0.12924505510985984
2473.0,0.12918657608440243
2472.0,0.12918657608440243
2471.0,0.12924505510985984
2470.0,0.12930354201075
2469.0,0.12930354201075
2468.0,0.12924505510985984
2467.0,0.1290696416513042
2466.0,0.12895273869450063
2465.0,0.12889429901441463
2464.0,0.12889429901441463
2463.0,0.12895273869450063
2462.0,0.1290696416513042
2461.0,0.12918657608440243
2460.0,0.12930354201075
2459.0,0.12936203678919433
2458.0,0.12924505510985984
2457.0,0.1290696416513042
2456.0,0.12889429901441463
2455.0,0.12883586719705065
2454.0,0.12877744324029283
2453.0,0.12883586719705065
2452.0,0.12895273869450063
2451.0,0.12912810493225724
2450.0,0.12924505510985984
2449.0,0.12942053944731513
2448.0,0.1294790499872358
2447.0,0.1294790499872358
2446.0,0.12942053944731513
2445.0,0.12918657608440243
2444.0,0.12895273869450063
2443.0,0.1287190271420271
2442.0,0.1286022185125162
2441.0,0.1284854412916181
2440.0,0.12842706445412122
2439.0,0.12842706445412122
2438.0,0.12854382597704617
2437.0,0.12883586719705065
2436.0,0.1290696416513042
2435.0,0.12924505510985984
2434.0,0.12924505510985984
2433.0,0.12901118623942476
2432.0,0.12877744324029283
2431.0,0.12866061890013913
2430.0,0.1286022185125162
2429.0,0.12866061890013913
2428.0,0.12866061890013913
2427.0,0.12866061890013913
2426.0,0.1286022185125162
2425.0,0.1286022185125162
2424.0,0.12866061890013913
2423.0,0.12877744324029283
2422.0,0.12889429901441463
2421.0,0.12895273869450063
2420.0,0.12895273869450063
2419.0,0.12901118623942476
2418.0,0.1290696416513042
2417.0,0.12918657608440243
2416.0,0.12924505510985984
2415.0,0.12918657608440243
2414.0,0.12912810493225724
2413.0,0.12912810493225724
2412.0,0.12924505510985984
2411.0,0.12936203678919433
2410.0,0.12936203678919433
2409.0,0.12936203678919433
2408.0,0.12942053944731513
2407.0,0.12953756841108
2406.0,0.12971317100740865
2405.0,0.12977172098820566
2404.0,0.12971317100740865
2403.0,0.12965462891904034
2402.0,0.1294790499872358
2401.0,0.12942053944731513
2400.0,0.1294790499872358
2399.0,0.1295960947209729
2398.0,0.12983027886355947
2397.0,0.13000599987825812
2396.0,0.13006458935314003
2395.0,0.13000599987825812
2394.0,0.12988884463559924
2393.0,0.12983027886355947
2392.0,0.12977172098820566
2391.0,0.12977172098820566
2390.0,0.12971317100740865
2389.0,0.1295960947209729
2388.0,0.12953756841108
2387.0,0.1294790499872358
2386.0,0.12942053944731513
2385.0,0.12942053944731513
2384.0,0.12936203678919433
2383.0,0.12924505510985984
2382.0,0.1290696416513042
2381.0,0.1287190271420271
2380.0,0.1283103343144847
2379.0,0.12784372725170723
2378.0,0.12743585690934855
2377.0,0.12691201440971422
2376.0,0.12638880300353272
2375.0,0.12592425477696523
2374.0,0.12563416426995122
2373.0,0.12551818230053358
2372.0,0.12563416426995122
2371.0,0.12598229613781387
2370.0,0.126621263590859
2369.0,0.12720296001040166
2368.0,0.12714475529518965
2367.0,0.12621453918179926
2366.0,0.12476505354983503
2365.0,0.12383991517437187
2364.0,0.12441789567211425
2363.0,0.1263307072932056
2362.0,0.12790202572577325
2361.0,0.12731939284807026
2360.0,0.124996646399959
2359.0,0.12314735239865637
2358.0,0.12320502379929943
2357.0,0.12430223801979201
2356.0,0.124996646399959
2355.0,0.1249387366082999
2354.0,0.12464930342071079
2353.0,0.12476505354983503
2352.0,0.1251124891538875
2351.0,0.12522836281570182
2350.0,0.12482294018529605
2349.0,0.12441789567211425
2348.0,0.12453358413361437
2347.0,0.12470717462899183
2346.0,0.12436006299583169
2345.0,0.12337808396572703
2344.0,0.12188051530283239
2343.0,0.12044539906102569
2342.0,0.12027350336042275
2341.0,0.12193801870998744
2340.0,0.12372441132212098
2339.0,0.12464930342071079
2338.0,0.12476505354983503
2337.0,0.1248808345374317
2336.0,0.125054563914468
2335.0,0.125054563914468
2334.0,0.12476505354983503
2333.0,0.12436006299583169
2332.0,0.12401322857151209
2331.0,0.12378215940835768
2330.0,0.12343578601615435
2329.0,0.12308968865537295
2328.0,0.12314735239865637
2327.0,0.12378215940835768
2326.0,0.125054563914468
2325.0,0.12627261935332057
2324.0,0.12726117252733116
2323.0,0.1277271537757949
2322.0,0.12784372725170723
2321.0,0.12784372725170723
2320.0,0.1280186461566306
2319.0,0.12854382597704617
2318.0,0.12901118623942476
2317.0,0.1290696416513042
2316.0,0.1286022185125162
2315.0,0.12796033202671375
2314.0,0.12749410065407507
2313.0,0.12737762097471172
2312.0,0.1276688787697493
2311.0,0.1280186461566306
2310.0,0.12836869546244634
2309.0,0.1284854412916181
2308.0,0.12854382597704617
2307.0,0.1286022185125162
2306.0,0.1287190271420271
2305.0,0.12877744324029283
2304.0,0.12877744324029283
2303.0,0.12877744324029283
2302.0,0.12889429901441463
2301.0,0.12895273869450063
2300.0,0.1290696416513042
2299.0,0.12901118623942476
2298.0,0.1290696416513042
2297.0,0.12918657608440243
2296.0,0.12936203678919433
2295.0,0.1294790499872358
2294.0,0.12953756841108
2293.0,0.12953756841108
2292.0,0.1295960947209729
2291.0,0.12971317100740865
2290.0,0.12977172098820566
2289.0,0.12988884463559924
2288.0,0.12994741830645506
2287.0,0.13000599987825812
2286.0,0.13012318673323353
2285.0,0.13024040521758962
2284.0,0.13018179202067182
2283.0,0.13012318673323353
2282.0,0.13000599987825812
2281.0,0.13000599987825812
2280.0,0.13012318673323353
2279.0,0.13018179202067182
2278.0,0.13018179202067182
2277.0,0.13018179202067182
2276.0,0.13024040521758962
2275.0,0.13018179202067182
2274.0,0.13012318673323353
2273.0,0.13000599987825812
2272.0,0.12983027886355947
2271.0,0.12971317100740865
2270.0,0.12971317100740865
2269.0,0.12977172098820566
2268.0,0.12988884463559924
2267.0,0.12994741830645506
2266.0,0.12994741830645506
2265.0,0.13000599987825812
2264.0,0.13000599987825812
2263.0,0.12994741830645506
2262.0,0.12988884463559924
2261.0,0.12983027886355947
2260.0,0.12988884463559924
2259.0,0.13006458935314003
2258.0,0.1302990263261221
2257.0,0.13041629228657614
2256.0,0.13041629228657614
2255.0,0.13035765534840538
2254.0,0.13018179202067182
2253.0,0.13018179202067182
2252.0,0.13012318673323353
2251.0,0.13012318673323353
2250.0,0.13012318673323353
2249.0,0.13006458935314003
2248.0,0.13000599987825812
2247.0,0.12994741830645506
2246.0,0.12977172098820566
2245.0,0.12965462891904034
2244.0,0.1295960947209729
2243.0,0.1295960947209729
2242.0,0.1295960947209729
2241.0,0.1295960947209729
2240.0,0.1295960947209729
2239.0,0.1295960947209729
2238.0,0.12965462891904034
2237.0,0.12965462891904034
2236.0,0.12971317100740865
2235.0,0.12977172098820566
2234.0,0.12977172098820566
2233.0,0.12983027886355947
2232.0,0.12983027886355947
2231.0,0.12971317100740865
2230.0,0.12965462891904034
2229.0,0.1295960947209729
2228.0,0.1295960947209729
2227.0,0.1295960947209729
2226.0,0.12965462891904034
2225.0,0.12971317100740865
2224.0,0.12977172098820566
2223.0,0.12983027886355947
2222.0,0.12988884463559924
2221.0,0.12983027886355947
2220.0,0.12971317100740865
2219.0,0.1295960947209729
2218.0,0.12953756841108
2217.0,0.12953756841108
2216.0,0.1295960947209729
2215.0,0.1295960947209729
2214.0,0.1294790499872358
2213.0,0.12930354201075
2212.0,0.12901118623942476
2211.0,0.1287190271420271
2210.0,0.12866061890013913
2209.0,0.12877744324029283
2208.0,0.12895273869450063
2207.0,0.12918657608440243
2206.0,0.12930354201075
2205.0,0.12924505510985984
2204.0,0.1290696416513042
2203.0,0.12889429901441463
2202.0,0.1287190271420271
2201.0,0.1286022185125162
2200.0,0.12854382597704617
2199.0,0.12854382597704617
2198.0,0.1286022185125162
2197.0,0.1286022185125162
2196.0,0.1286022185125162
2195.0,0.12866061890013913
2194.0,0.12866061890013913
2193.0,0.1287190271420271
2192.0,0.1287190271420271
2191.0,0.1287190271420271
2190.0,0.12866061890013913
2189.0,0.12866061890013913
2188.0,0.1286022185125162
2187.0,0.1286022185125162
2186.0,0.12866061890013913
2185.0,0.1287190271420271
2184.0,0.12866061890013913
2183.0,0.1284854412916181
2182.0,0.1283103343144847
2181.0,0.1281352979118051
2180.0,0.1280769681176266
2179.0,0.1280769681176266
2178.0,0.1280186461566306
2177.0,0.12790202572577325
2176.0,0.12784372725170723
2175.0,0.12790202572577325
2174.0,0.1280186461566306
2173.0,0.12819363554127072
2172.0,0.1283103343144847
2171.0,0.1283103343144847
2170.0,0.1283103343144847
2169.0,0.1282519810081284
2168.0,0.1281352979118051
2167.0,0.1280186461566306
2166.0,0.12784372725170723
2165.0,0.12784372725170723
2164.0,0.12790202572577325
2163.0,0.1280769681176266
2162.0,0.1283103343144847
2161.0,0.1284854412916181
2160.0,0.12842706445412122
2159.0,0.1282519810081284
2158.0,0.1280769681176266
2157.0,0.12796033202671375
2156.0,0.12790202572577325
2155.0,0.12790202572577325
2154.0,0.12790202572577325
2153.0,0.1280186461566306
2152.0,0.1281352979118051
2151.0,0.1282519810081284
2150.0,0.1283103343144847
2149.0,0.1283103343144847
2148.0,0.1282519810081284
2147.0,0.1281352979118051
2146.0,0.1280186461566306
2145.0,0.12796033202671375
2144.0,0.12796033202671375
2143.0,0.1280186461566306
2142.0,0.1281352979118051
2141.0,0.12819363554127072
2140.0,0.1283103343144847
2139.0,0.12836869546244634
2138.0,0.12842706445412122
2137.0,0.12842706445412122
2136.0,0.12836869546244634
2135.0,0.1282519810081284
2134.0,0.1281352979118051
2133.0,0.1280186461566306
2132.0,0.12796033202671375
2131.0,0.1280186461566306
2130.0,0.1281352979118051
2129.0,0.1282519810081284
2128.0,0.12836869546244634
2127.0,0.12836869546244634
2126.0,0.1283103343144847
2125.0,0.1282519810081284
2124.0,0.12819363554127072
2123.0,0.1281352979118051
2122.0,0.1280769681176266
2121.0,0.1280769681176266
2120.0,0.1281352979118051
2119.0,0.12819363554127072
2118.0,0.1282519810081284
2117.0,0.1282519810081284
2116.0,0.1283103343144847
2115.0,0.12842706445412122
2114.0,0.1284854412916181
2113.0,0.12836869546244634
2112.0,0.12819363554127072
2111.0,0.1280769681176266
2110.0,0.1281352979118051
2109.0,0.1282519810081284
2108.0,0.12842706445412122
2107.0,0.1284854412916181
2106.0,0.12842706445412122
2105.0,0.1283103343144847
2104.0,0.12819363554127072
2103.0,0.1281352979118051
2102.0,0.12819363554127072
2101.0,0.1282519810081284
2100.0,0.1283103343144847
2099.0,0.12842706445412122
2098.0,0.1284854412916181
2097.0,0.1284854412916181
2096.0,0.12842706445412122
2095.0,0.1283103343144847
2094.0,0.12819363554127072
2093.0,0.1281352979118051
2092.0,0.1281352979118051
2091.0,0.12819363554127072
2090.0,0.1283103343144847
2089.0,0.12836869546244634
2088.0,0.12836869546244634
2087.0,0.1283103343144847
2086.0,0.12819363554127072
2085.0,0.1280769681176266
2084.0,0.12796033202671375
2083.0,0.12790202572577325
2082.0,0.12796033202671375
2081.0,0.12796033202671375
2080.0,0.1280186461566306
2079.0,0.1280186461566306
2078.0,0.12790202572577325
2077.0,0.1277271537757949
2076.0,0.12761061158217912
2075.0,0.1275523522109867
2074.0,0.1275523522109867
2073.0,0.12749410065407507
2072.0,0.12743585690934855
2071.0,0.12737762097471172
2070.0,0.12726117252733116
2069.0,0.12720296001040166
2068.0,0.12720296001040166
2067.0,0.12714475529518965
2066.0,0.12714475529518965
2065.0,0.12697018793895576
2064.0,0.12667939818460128
2063.0,0.12644690648638135
2062.0,0.12627261935332057
2061.0,0.12627261935332057
2060.0,0.12621453918179926
2059.0,0.126156466776564
2058.0,0.1260984021355387
2057.0,0.12598229613781387
2056.0,0.12598229613781387
2055.0,0.1260984021355387
2054.0,0.126156466776564
2053.0,0.1260984021355387
2052.0,0.12586622117202761
2051.0,0.12563416426995122
2050.0,0.12546020292898974
2049.0,0.12534426740189897
2048.0,0.12522836281570182
2047.0,0.124996646399959
2046.0,0.12482294018529605
2045.0,0.12464930342071079
2044.0,0.12459143992293642
2043.0,0.12459143992293642
2042.0,0.12464930342071079
2041.0,0.12459143992293642
2040.0,0.1244757360506914
2039.0,0.12430223801979201
2038.0,0.12412880927263426
2037.0,0.12395544975390482
2036.0,0.12383991517437187
2035.0,0.12378215940835768
2034.0,0.12383991517437187
2033.0,0.12383991517437187
2032.0,0.12383991517437187
2031.0,0.1236666709136196
2030.0,0.12349349573411894
2029.0,0.1233203895807995
2028.0,0.12314735239865637
2027.0,0.12297438413275108
2026.0,0.12280148472821018
2025.0,0.12262865413022594
2024.0,0.12251347193039863
2023.0,0.12251347193039863
2022.0,0.12257105921178035
2021.0,0.12262865413022594
2020.0,0.12268625668776156
2019.0,0.12262865413022594
2018.0,0.12257105921178035
2017.0,0.12239832027072817
2016.0,0.12228319913502328
2015.0,0.12216810850710624
2014.0,0.12211057462851604
2013.0,0.12205304837081177
2012.0,0.12205304837081177
2011.0,0.12205304837081177
2010.0,0.12193801870998744
2009.0,0.12176553132495593
2008.0,0.12159311241900439
2007.0,0.12153565465853111
2006.0,0.12159311241900439
2005.0,0.12165057778222454
2004.0,0.12170805075020397
2003.0,0.12165057778222454
2002.0,0.12153565465853111
2001.0,0.12147820449879343
2000.0,0.12136332697348307
1999.0,0.12136332697348307
1998.0,0.12136332697348307
1997.0,0.12142076193778073
1996.0,0.1213058996038916
1995.0,0.12113366304327466
1994.0,0.12101887660626365
1993.0,0.12096149476276286
1992.0,0.12101887660626365
1991.0,0.12107626603243293
1990.0,0.12107626603243293
1989.0,0.12101887660626365
1988.0,0.12096149476276286
1987.0,0.12096149476276286
1986.0,0.12090412049992727
1985.0,0.12084675381575383
1984.0,0.1207893947082408
1983.0,0.12067469921519258
1982.0,0.12061736282565727
1981.0,0.12067469921519258
1980.0,0.12084675381575383
1979.0,0.12096149476276286
1978.0,0.12107626603243293
1977.0,0.12101887660626365
1976.0,0.12084675381575383
1975.0,0.12084675381575383
1974.0,0.12096149476276286
1973.0,0.12113366304327466
1972.0,0.12124847982699793
1971.0,0.12136332697348307
1970.0,0.12142076193778073
1969.0,0.12136332697348307
1968.0,0.1213058996038916
1967.0,0.12136332697348307
1966.0,0.12142076193778073
1965.0,0.12153565465853111
1964.0,0.12165057778222454
1963.0,0.12182301950849372
1962.0,0.1219955297319748
1961.0,0.12216810850710624
1960.0,0.12228319913502328
1959.0,0.12245589228405596
1958.0,0.12257105921178035
1957.0,0.12268625668776156
1956.0,0.12268625668776156
1955.0,0.12268625668776156
1954.0,0.12274386688641381
1953.0,0.12280148472821018
1952.0,0.12280148472821018
1951.0,0.12280148472821018
1950.0,0.12285911021517903
1949.0,0.12285911021517903
1948.0,0.12280148472821018
1947.0,0.12268625668776156
1946.0,0.12251347193039863
1945.0,0.12234075588839133
1944.0,0.12211057462851604
1943.0,0.1219955297319748
1942.0,0.12188051530283239
1941.0,0.12170805075020397
1940.0,0.12147820449879343
1939.0,0.12113366304327466
1938.0,0.1207893947082408
1937.0,0.1203880929341492
1936.0,0.1199871616332282
1935.0,0.11964380058076385
1934.0,0.11941504393502012
1933.0,0.11924355548978971
1932.0,0.11895789180659433
1931.0,0.11850122038501709
1930.0,0.11804502866039956
1929.0,0.11764625361128611
1928.0,0.11736163830396129
1927.0,0.11719095860756013
1926.0,0.1170772093974013
1925.0,0.11702034596270106
1924.0,0.11684980031672243
1923.0,0.11662251025166115
1922.0,0.11628179803604044
1921.0,0.11594135290606156
1920.0,0.1157145376603248
1919.0,0.11560117444331386
1918.0,0.11560117444331386
1917.0,0.11554450392951199
1916.0,0.11526126223036814
1915.0,0.1149782051377024
1914.0,0.11458223488906394
1913.0,0.1141301390960936
1912.0,0.11367851344052027
1911.0,0.11328372588352176
1910.0,0.11305829401658474
1909.0,0.11305829401658474
1908.0,0.11305829401658474
1907.0,0.112945621949043
1906.0,0.11272036546997688
1905.0,0.11249522576462212
1904.0,0.11232644754555254
1903.0,0.11215773489264302
1902.0,0.11193288659256306
1901.0,0.1117081546434846
1900.0,0.11137127461477392
1899.0,0.11109074073646874
1898.0,0.11081038795292675
1897.0,0.1106422631110684
1896.0,0.11041819785037621
1895.0,0.11013827874181148
1894.0,0.10991447328367476
1893.0,0.10969078310005154
1892.0,0.10946720807225518
1891.0,0.10918790104487552
1890.0,0.10896458468468917
1889.0,0.10879717273970457
1888.0,0.10862982530385179
1887.0,0.10835105612944096
1886.0,0.10812816955441629
1885.0,0.10796107965870849
1884.0,0.10773839308446487
1883.0,0.10734896612269962
1882.0,0.10695988804288215
1881.0,0.10657115822045493
1880.0,0.10623823794205656
1879.0,0.1060718734573931
1878.0,0.10596099919539115
1877.0,0.10573933555301185
1876.0,0.10540705207704448
1875.0,0.10490910306560064
1874.0,0.10452220372428545
1873.0,0.10419084983086901
1872.0,0.10397008760377302
1871.0,0.10374943753836186
1870.0,0.10341867249426717
1869.0,0.10308815917397474
1868.0,0.10281292341984649
1867.0,0.10264786565568684
1866.0,0.10253786198693682
1865.0,0.10242788617426934
1864.0,0.10215306842042837
1863.0,0.1017686154869033
1862.0,0.10132965703447017
1861.0,0.10094593200182911
1860.0,0.10067205012234592
1859.0,0.10045306890913297
1858.0,0.10028890542885538
1857.0,0.10017949757290379
1856.0,0.10007011727213588
1855.0,0.09979678698310646
1854.0,0.09946901754724413
1853.0,0.09914149529800831
1852.0,0.09886874864462802
1851.0,0.09859617317474823
1850.0,0.09837823590664274
1849.0,0.09816040794877057
1848.0,0.09805153492691598
1847.0,0.09799710864927058
1846.0,0.09816040794877057
1845.0,0.09826930827078129
1844.0,0.09810596802617932
1843.0,0.09772507952549825
1842.0,0.0972358560759139
1841.0,0.09707290398273716
1840.0,0.09701860020249709
1839.0,0.09691001300805646
1838.0,0.09669292003582619
1837.0,0.09653017149282994
1836.0,0.09631326826349751
1835.0,0.0960964733098364
1834.0,0.09593394808549704
1833.0,0.09593394808549704
1832.0,0.09593394808549704
1831.0,0.09593394808549704
1830.0,0.09566320779750503
1829.0,0.09517630019905599
1828.0,0.09468993788391455
1827.0,0.09447395156495153
1826.0,0.09452793807529569
1825.0,0.09458193129745807
1824.0,0.09436599867304518
1823.0,0.09398837472858723
1822.0,0.0935033402006471
1821.0,0.09312646527792956
1820.0,0.09280368972839836
1819.0,0.09253489323414388
1818.0,0.0922125568893839
1817.0,0.09183679994445204
1816.0,0.09140776115243066
1815.0,0.09092559859909577
1814.0,0.09039048950983108
1813.0,0.08996287644694911
1812.0,0.08948231448273347
1811.0,0.08894897967187343
1810.0,0.08830984124613894
1809.0,0.08772478950118767
1808.0,0.0872466963286771
1807.0,0.0867691288864394
1806.0,0.086239113587677
1805.0,0.08570974433405087
1804.0,0.08518101955252688
1803.0,0.08460016478773014
1802.0,0.08402008585977572
1801.0,0.0833881548906541
1800.0,0.08259953204474924
1799.0,0.08170748724464438
1798.0,0.08076496207674921
1797.0,0.07998108397108505
1796.0,0.0794071379151915
1795.0,0.07899019850296574
1794.0,0.07867775641617802
1793.0,0.07805354577058976
1792.0,0.07701518429111709
1791.0,0.07577241873988227
1790.0,0.07468790850035045
1789.0,0.07391491307485598
1788.0,0.07334892291111106
1787.0,0.07268097504034388
1786.0,0.07186029312488018
1785.0,0.07088774334533943
1784.0,0.06971335275448043
1783.0,0.0685421293109949
1782.0,0.0675769736232612
1781.0,0.06656333217371957
1780.0,0.0653500770992892
1779.0,0.06408986356949264
1778.0,0.06298389253518577
1777.0,0.06193081377661436
1776.0,0.06083032037482261
1775.0,0.05998184499233683
1774.0,0.059035506507200575
1773.0,0.057396751157843484
1772.0,0.0549747987575373
1771.0,0.052762392129333646
1770.0,0.051684859310652254
1769.0,0.05129369109514803
1768.0,0.05051241005349638
1767.0,0.04900266601119507
1766.0,0.04744970610179822
1765.0,0.04638525830935958
1764.0,0.04575749056067524
1763.0,0.044937930324967956
1762.0,0.04344740808260106
1761.0,0.04138834223512067
1760.0,0.03962436858984186
1759.0,0.038721320914956836
1758.0,0.03829421599749461
1757.0,0.037583306554248797
1756.0,0.03644826642590382
1755.0,0.03588185684851508
1754.0,0.036401037402758574
1753.0,0.03739392707587297
1752.0,0.03824678581321739
1751.0,0.03910132267333921
1750.0,0.040529297924893015
1749.0,0.042967683653061695
1748.0,0.04653025674659861
1747.0,0.05144033789103841
1746.0,0.05744631966579017
1745.0,0.06434161389936577
1744.0,0.07242434530888953
1743.0,0.08202211740709164
1742.0,0.09253489323414388
1741.0,0.10369429253391926
1740.0,0.11611154211151953
1739.0,0.13024040521758962
1738.0,0.14423862766005224
1737.0,0.1565180569600424
1736.0,0.167618839752959
1735.0,0.18025870272698952
1734.0,0.1981848314185628
1733.0,0.2193946941610303
1732.0,0.23754651763645307
1731.0,0.25359935550843904
1730.0,0.27083521030723
1729.0,0.2898826348881838
1728.0,0.3098925605436693
1727.0,0.32993978252686573
1726.0,0.3500812812645808
1725.0,0.37110043557939343
1724.0,0.39426410612325324
1723.0,0.4196453388934085
1722.0,0.4457531918338895
1721.0,0.4701848033553697
1720.0,0.49241396023698925
1719.0,0.5152731957013381
1718.0,0.5431786519784014
1717.0,0.5762627500176707
1716.0,0.6053732357277908
1715.0,0.625251653989896
1714.0,0.6386499756477337
1713.0,0.646083769079637
1712.0,0.6462760624110511
1711.0,0.6399749108106025
1710.0,0.6287473708750606
1709.0,0.6140364293993026
1708.0,0.5970511706555952
1707.0,0.5779028368682897
1706.0,0.5565805382171827
1705.0,0.5343197884017221
1704.0,0.514988785421427
1703.0,0.5005878743277246
1702.0,0.48811663902112556
1701.0,0.47249898901887977
1700.0,0.45247142354021785
1699.0,0.433916215832004
1698.0,0.42170469487917384
1697.0,0.4122890349810886
1696.0,0.4017568083463774
1695.0,0.3905123101467147
1694.0,0.38111551500454954
1693.0,0.37458464784559187
1692.0,0.36906388093580866
1691.0,0.3632113109656252
1690.0,0.3567447749752284
1689.0,0.35076252765039273
1688.0,0.34591976469342933
1687.0,0.34179774661298534
1686.0,0.33714776673520386
1685.0,0.33170728955177897
1684.0,0.3268868957617663
1683.0,0.32358076828164006
1682.0,0.32102662408023486
1681.0,0.3184874133610378
1680.0,0.31533413597413906
1679.0,0.3118472444084337
1678.0,0.3084764778318456
1677.0,0.30521936398793836
1676.0,0.30172542332563235
1675.0,0.2981730696028606
1674.0,0.29473513768259596
1673.0,0.2914941190447631
1672.0,0.2886146209015483
1671.0,0.28583795390114686
1670.0,0.2833290244398645
1669.0,0.28100036212128177
1668.0,0.278684119394101
1667.0,0.27629810600873217
1666.0,0.2739251297846299
1665.0,0.2713216331490862
1664.0,0.26841123481326123
1663.0,0.2654401784205238
1662.0,0.2628073572952627
1661.0,0.2604276555499081
1660.0,0.2581396059347365
1659.0,0.25578527518583405
1658.0,0.25336580106242135
1657.0,0.2509597312965428
1656.0,0.24864390027460637
1655.0,0.24595761321456378
1654.0,0.2429077798810675
1653.0,0.24101245313238073
1652.0,0.23920068836928232
1651.0,0.2366468912517845
1650.0,0.23545028093553277
1649.0,0.2347040703019434
1648.0,0.23328979273774086
1647.0,0.23173198354845193
1646.0,0.23099212905622624
1645.0,0.2301059641878309
1644.0,0.2287800980504664
1643.0,0.2274582673590566
1642.0,0.2261404476233131
1641.0,0.22475374025976347
1640.0,0.2231535913047007
1639.0,0.2216316566441261
1638.0,0.22018713682941948
1637.0,0.21881927906273835
1636.0,0.21788585252092885
1635.0,0.21724080737600282
1634.0,0.21616785661555893
1633.0,0.21481257997063818
1632.0,0.21360353862769577
1631.0,0.21239785381766252
1630.0,0.2111248842245832
1629.0,0.20985563495709947
1628.0,0.2087305190897315
1627.0,0.2076783636484265
1626.0,0.20662875108104428
1625.0,0.20558166912585896
1624.0,0.20446755728984556
1623.0,0.20349504844670374
1622.0,0.20280173016104097
1621.0,0.20190206793751408
1620.0,0.2010042655561186
1619.0,0.20003947259401644
1618.0,0.19914550849643908
1617.0,0.19893947015214453
1616.0,0.19955787866374353
1615.0,0.20031490909089955
1614.0,0.20107326142279858
1613.0,0.20155653964981246
1612.0,0.2014874669686484
1611.0,0.20086630669793704
1610.0,0.20010831534313467
1609.0,0.19928292171761486
1608.0,0.1981848314185628
1607.0,0.1969527895088714
1606.0,0.19579239491795852
1605.0,0.19456711186786002
1604.0,0.19334527600813955
1603.0,0.1921268679966679
1602.0,0.19097927951632743
1601.0,0.189767482004916
1600.0,0.18849202005467336
1599.0,0.1871534630329288
1598.0,0.18588564387087447
1597.0,0.1847544080834369
1596.0,0.1835598320438614
1595.0,0.18243463044021913
1594.0,0.1815101777957866
1593.0,0.18071935302751885
1592.0,0.17992996568767428
1591.0,0.17920761891179637
1590.0,0.17868302940890257
1589.0,0.17829000270162365
1588.0,0.1778973313530796
1587.0,0.17750501472124913
1586.0,0.17724366704860928
1585.0,0.17724366704860928
1584.0,0.1775703762206431
1583.0,0.1784864715952268
1582.0,0.17999569319168218
1581.0,0.18197215814074386
1580.0,0.1840903491132253
1579.0,0.18608557995139652
1578.0,0.18748771571001743
1577.0,0.1879561020697733
1576.0,0.18782222584124608
1575.0,0.18722029299103604
1574.0,0.18628560811885508
1573.0,0.18555262147751228
1572.0,0.18462151503408197
1571.0,0.18302996224270052
1570.0,0.18111458540599013
1569.0,0.17947015147648027
1568.0,0.17809362264767703
1567.0,0.17698247655395072
1566.0,0.17600440884403223
1565.0,0.1748985884019969
1564.0,0.17366599437777985
1563.0,0.1726953589102651
1562.0,0.1718558926962137
1561.0,0.17056756638240134
1560.0,0.16870625562299035
1559.0,0.16819419132560887
1558.0,0.16928305056310244
1557.0,0.16870625562299035
1556.0,0.16800232276410365
1555.0,0.167618839752959
1554.0,0.16704424939540163
1553.0,0.16621562534352097
1552.0,0.16545214231905137
1551.0,0.16488040957545036
1550.0,0.16437283379010226
1549.0,0.16399254087446846
1548.0,0.16354928627984533
1547.0,0.16298005145909156
1546.0,0.16228533171508874
1545.0,0.16133977401105848
1544.0,0.1603334431175667
1543.0,0.159517512786558
1542.0,0.15864052954514496
1541.0,0.15782777061438424
1540.0,0.15720360482441986
1539.0,0.1562068016740874
1538.0,0.15477789357098626
1537.0,0.15415809257824264
1536.0,0.15440590683997568
1535.0,0.15452986701832638
1534.0,0.15440590683997568
1533.0,0.15452986701832638
1532.0,0.15471587365200845
1531.0,0.1545918603782066
1530.0,0.15428198203334142
1529.0,0.15403423845451636
1528.0,0.1537866361206126
1527.0,0.1535391748706676
1526.0,0.15323004646278116
1525.0,0.15279763601907614
1524.0,0.15218065270476067
1523.0,0.15131834597604965
1522.0,0.1502121757623145
1521.0,0.14929251462546267
1520.0,0.14843591773651155
1519.0,0.1477030341730745
1518.0,0.14709324120304634
1517.0,0.14630178822382556
1516.0,0.14532966810466452
1515.0,0.14442027749828212
1514.0,0.14357322752975565
1513.0,0.14290884532648618
1512.0,0.14248658522331015
1511.0,0.14260718907909875
1510.0,0.14339193156306385
1509.0,0.14502632627358292
1508.0,0.14874165128092476
1507.0,0.15857795559764076
1506.0,0.173212761183708
1505.0,0.18197215814074386
1504.0,0.18369240056806024
1503.0,0.18223636771963214
1502.0,0.17887967622317635
1501.0,0.17411970106382046
1500.0,0.1686422145579325
1499.0,0.16310648362356628
1498.0,0.15782777061438424
1497.0,0.15298290206464582
1496.0,0.148864004988426
1495.0,0.14545106418704923
1494.0,0.1430899396992138
1493.0,0.14170347546611461
1492.0,0.14062149557439896
1491.0,0.13948232253825377
1490.0,0.1384058553561347
1489.0,0.13780896894840278
1488.0,0.13768969004572962
1487.0,0.13763006287711765
1486.0,0.1375704438939911
1485.0,0.13774932540207496
1484.0,0.13828641242856565
1483.0,0.1390633792999063
1482.0,0.14026143380285316
1481.0,0.141884067809934
1480.0,0.14375459920994582
1479.0,0.14551177495556966
1478.0,0.14697138528701026
1477.0,0.14837479684669086
1476.0,0.14978275820161047
1475.0,0.15088783381542248
1474.0,0.1515645446685292
1473.0,0.15218065270476067
1472.0,0.15279763601907614
1471.0,0.15285938258659382
1470.0,0.1524890347967518
1469.0,0.15205736115477642
1468.0,0.15168769637271562
1467.0,0.15131834597604965
1466.0,0.15119529894819617
1465.0,0.1514414278762366
1464.0,0.15224231160766877
1463.0,0.1531682471767426
1462.0,0.15391041964201602
1461.0,0.15477789357098626
1460.0,0.15577141869837208
1459.0,0.1567049172634929
1458.0,0.1577028656719348
1457.0,0.15939212099070987
1456.0,0.16089921729284673
1455.0,0.16146572948813143
1454.0,0.16184381524785207
1453.0,0.16222223044626682
1452.0,0.16228533171508874
1451.0,0.1619068615544017
1450.0,0.16133977401105848
1449.0,0.16077342598656452
1448.0,0.1600822243213189
1447.0,0.15914144595812063
1446.0,0.15807768832054925
1445.0,0.15689185800039307
1444.0,0.1558335895497993
1443.0,0.1548399223480541
1442.0,0.15391041964201602
1441.0,0.15310645668337486
1440.0,0.15255073750082726
1439.0,0.15205736115477642
1438.0,0.15131834597604965
1437.0,0.1499667423102311
1436.0,0.1478861391502384
1435.0,0.14526898278605782
1434.0,0.1427278264359586
1433.0,0.14038142122781938
1432.0,0.13786862068696282
1431.0,0.13489602535887202
1430.0,0.13159069668503998
1429.0,0.1283103343144847
1428.0,0.12522836281570182
1427.0,0.12268625668776156
1426.0,0.12050271275057156
1425.0,0.11821604440661537
1424.0,0.11582793047608719
1423.0,0.11396072443355765
1422.0,0.112945621949043
1421.0,0.11238269966426384
1420.0,0.11221396516162851
1419.0,0.1128329791052256
1418.0,0.11492161585077598
1417.0,0.11872949607064243
1416.0,0.12459143992293642
1415.0,0.13294519952329842
1414.0,0.143996546002779
1413.0,0.15807768832054925
1412.0,0.17535358528164813
1411.0,0.1946350925335547
1410.0,0.2133195468033513
1409.0,0.22900079483605928
1408.0,0.24018112262517377
1407.0,0.24595761321456378
1406.0,0.24565166428898122
1405.0,0.24025663240227502
1404.0,0.23180603836692848
1403.0,0.222500680409635
1402.0,0.21367456560992992
1401.0,0.20551195334083028
1400.0,0.1976368256904526
1399.0,0.189767482004916
1398.0,0.18236853280948462
1397.0,0.17613469067548881
1396.0,0.17069622716897515
1395.0,0.16538857927731287
1394.0,0.16020781555467067
1393.0,0.15602015552184012
1392.0,0.15310645668337486
1391.0,0.15101079374883275
1390.0,0.14917004015146906
1389.0,0.1472760892087941
1388.0,0.14539036190420496
1387.0,0.14357322752975565
1386.0,0.14200450443907608
1385.0,0.1407415825326932
1384.0,0.13984173868172167
1383.0,0.13912320359670227
1382.0,0.13864483980673992
1381.0,0.1384058553561347
1380.0,0.1384058553561347
1379.0,0.13858508136400327
1378.0,0.1388839558386048
1377.0,0.13924287691845794
1376.0,0.1397219002477652
1375.0,0.1404414273739465
1374.0,0.14140265500530758
1373.0,0.1423660148499919
1372.0,0.14302956651750764
1371.0,0.14333151638846497
1370.0,0.14315032127482774
1369.0,0.1423660148499919
1368.0,0.1410419452819942
1367.0,0.13918303613546223
1366.0,0.13685565374733244
1365.0,0.13418561983203192
1364.0,0.13094438129809216
1363.0,0.12714475529518965
1362.0,0.12320502379929943
1361.0,0.11964380058076385
1360.0,0.11684980031672243
1359.0,0.11458223488906394
1358.0,0.11272036546997688
1357.0,0.11109074073646874
1356.0,0.10991447328367476
1355.0,0.10913206118855912
1354.0,0.10890877353227624
1353.0,0.10918790104487552
1352.0,0.11013827874181148
1351.0,0.11176432672943282
1350.0,0.11418662533951118
1349.0,0.11776015198117662
1348.0,0.12274386688641381
1347.0,0.12936203678919433
1346.0,0.13786862068696282
1345.0,0.14831368455757254
1344.0,0.16077342598656452
1343.0,0.17470373556903995
1342.0,0.18963304631837485
1341.0,0.20537255533549192
1340.0,0.22134236805264473
1339.0,0.23559967704361195
1338.0,0.2453459307445678
1337.0,0.2491060796178748
1336.0,0.24687675531828734
1335.0,0.2395021247734732
1334.0,0.22767829327708022
1333.0,0.21268124337545258
1332.0,0.19599694527038736
1331.0,0.17920761891179637
1330.0,0.16361258067358908
1329.0,0.14990540561329913
1328.0,0.1384058553561347
1327.0,0.1290696416513042
1326.0,0.12176553132495593
1325.0,0.11611154211151953
1324.0,0.11187669270209155
1323.0,0.10862982530385179
1322.0,0.10623823794205656
1321.0,0.10452220372428545
1320.0,0.10325338439259446
1319.0,0.10248287059947447
1318.0,0.10198826120249849
1317.0,0.10165883427249067
1316.0,0.10149421446564144
1315.0,0.10154908080162528
1314.0,0.10187842445889239
1313.0,0.10259286033841963
1312.0,0.10369429253391926
1311.0,0.10513034325474746
1310.0,0.10684878687013422
1309.0,0.10885296955122903
1308.0,0.11092250734993603
1307.0,0.1130019543289007
1306.0,0.1149782051377024
1305.0,0.116736140415026
1304.0,0.11844417020668851
1303.0,0.12027350336042275
1302.0,0.12245589228405596
1301.0,0.12522836281570182
1300.0,0.12877744324029283
1299.0,0.13318119707395182
1298.0,0.13834612978608907
1297.0,0.1441175699639643
1296.0,0.15027355580367208
1295.0,0.15664262156204445
1294.0,0.16310648362356628
1293.0,0.16947548590274142
1292.0,0.17580905934741686
1291.0,0.18223636771963214
1290.0,0.18849202005467336
1289.0,0.19456711186786002
1288.0,0.20038379551850105
1287.0,0.20600019901552957
1286.0,0.21126614117229248
1285.0,0.21616785661555893
1284.0,0.22083657623550135
1283.0,0.22548303427145044
1282.0,0.2298847052128985
1281.0,0.23418248469008174
1280.0,0.23844801143581806
1279.0,0.24275584897802993
1278.0,0.24726030606467186
1277.0,0.2519671058698565
1276.0,0.2571178285627269
1275.0,0.2628073572952627
1274.0,0.26937920211271726
1273.0,0.2772016031290947
1272.0,0.28667749501297246
1271.0,0.29800052511036323
1270.0,0.3107799627361645
1269.0,0.324863495532006
1268.0,0.3402739047622083
1267.0,0.356942316248547
1266.0,0.3743789185750923
1265.0,0.3924377568164117
1264.0,0.4107207787640328
1263.0,0.42875714943977616
1262.0,0.44551083999618113
1261.0,0.460672936460625
1260.0,0.4743074754949892
1259.0,0.48598381959935066
1258.0,0.4953932293580463
1257.0,0.5032086842999575
1256.0,0.5106040782728707
1255.0,0.5182708030399841
1254.0,0.5266590358140646
1253.0,0.5361070110140926
1252.0,0.5477534254795628
1251.0,0.5619325495465062
1250.0,0.5780671867214915
1249.0,0.5961933894525775
1248.0,0.6161846340195687
1247.0,0.6377060620357689
1246.0,0.6593576224392947
1245.0,0.6802695056697754
1244.0,0.7002748460243631
1243.0,0.7176044952574745
1242.0,0.7309542903423771
1241.0,0.7401673009365164
1240.0,0.7456936676687145
1239.0,0.747389659432627
1238.0,0.7442452133569559
1237.0,0.7370745306681685
1236.0,0.7267671659569543
1235.0,0.7146677723561154
1234.0,0.7007106659123201
1233.0,0.6855007720268484
1232.0,0.6703987516434813
1231.0,0.6556077263148892
1230.0,0.6409237739407372
1229.0,0.6267201067225039
1228.0,0.6136794261059537
1227.0,0.6013656754616079
1226.0,0.5892227666227903
1225.0,0.5772460586986519
1224.0,0.5659103615821093
1223.0,0.5556428743439723
1222.0,0.5457651042517344
1221.0,0.5365549682295723
1220.0,0.5281218006927095
1219.0,0.5198492747267196
1218.0,0.5114492834995557
1217.0,0.5027938192960455
1216.0,0.49430749258779993
1215.0,0.48598381959935066
1214.0,0.4778166823813137
1213.0,0.46967221022191374
1212.0,0.4618034216505458
1211.0,0.45419824284072385
1210.0,0.44672395386290065
1209.0,0.4393761254500701
1208.0,0.4323855572691555
1207.0,0.4257371702929731
1206.0,0.41930306028756337
1205.0,0.4128505017456563
1204.0,0.40660315769979327
1203.0,0.40066286700751097
1202.0,0.39480273261162213
1201.0,0.389020620077003
1200.0,0.3835244861114344
1199.0,0.3779933269931952
1198.0,0.37232696823338407
1197.0,0.36653154442041336
1196.0,0.36081244006424606
1195.0,0.3552660725528074
1194.0,0.3496924768680636
1193.0,0.3441895055047477
1192.0,0.33875539104066643
1191.0,0.3332948638801012
1190.0,0.3278097488117475
1189.0,0.32230181852548934
1188.0,0.317223353685566
1187.0,0.31247103878536575
1186.0,0.30803489723263966
1185.0,0.3039058400047767
1184.0,0.3000755972575233
1183.0,0.2967086218813386
1182.0,0.29362364416030995
1181.0,0.29106946419338375
1180.0,0.2891213823148271
1179.0,0.28785558578511417
1178.0,0.28692967414436055
1177.0,0.28625752159091755
1176.0,0.28567024025476706
1175.0,0.2850837520064151
1174.0,0.28408018256642054
1173.0,0.28249592523579814
1172.0,0.28025450747042324
1171.0,0.2771193893130608
1170.0,0.2730284163171235
1169.0,0.26808905788312765
1168.0,0.26256879948541756
1167.0,0.2569608451950669
1166.0,0.25142438306900816
1165.0,0.24618721643529784
1164.0,0.2414665777627134
1163.0,0.23732143627256375
1162.0,0.23358715288760057
1161.0,0.2301797422364078
1160.0,0.2267256516625462
1159.0,0.22337144657984997
1158.0,0.22004294875309416
1157.0,0.21695442788530706
1156.0,0.21417208000413446
1155.0,0.21161948468043668
1154.0,0.2093630380682967
1153.0,0.20732821085843267
1152.0,0.20565139610391725
1151.0,0.2043980201058202
1150.0,0.20349504844670374
1149.0,0.20294030530002893
1148.0,0.2028710122034474
1147.0,0.2032175882986922
1146.0,0.20398103065285067
1145.0,0.20523320205917894
1144.0,0.2069083998234198
1143.0,0.2089412564081745
1142.0,0.21147811277752715
1141.0,0.2145989750076125
1140.0,0.2183882175068499
1139.0,0.22271820832898515
1138.0,0.2274582673590566
1137.0,0.23254728190222673
1136.0,0.23829763245858726
1135.0,0.24488773360492888
1134.0,0.2523551806717519
1133.0,0.2607441967314894
1132.0,0.2700257143004443
1131.0,0.28008893580166117
1130.0,0.2911543619518211
1129.0,0.30303235925597694
1128.0,0.3158730743869247
1127.0,0.32938311359967454
1126.0,0.3435184842095014
1125.0,0.3581294545236873
1124.0,0.37335173152598977
1123.0,0.389020620077003
1122.0,0.40439356513439706
1121.0,0.4191890273390537
1120.0,0.43320908761840826
1119.0,0.445995678988097
1118.0,0.45655281991829977
1117.0,0.46432619657425
1116.0,0.4690323184280849
1115.0,0.4703130462270835
1114.0,0.4683933680672778
1113.0,0.4644527208233322
1112.0,0.46054750845053904
1111.0,0.45829597671571154
1110.0,0.4589202322233712
1109.0,0.46331532737907
1108.0,0.4719836588107986
1107.0,0.4846561069116191
1106.0,0.5000381344038098
1105.0,0.5171264163912463
1104.0,0.5350635708782674
1103.0,0.5536181877775579
1102.0,0.5717031860171204
1101.0,0.5890541413122254
1100.0,0.6055483191737836
1099.0,0.6203319659663462
1098.0,0.6324577264794233
1097.0,0.6420651529995463
1096.0,0.6493643917410457
1095.0,0.6542343068855119
1094.0,0.6563944918958282
1093.0,0.6563944918958282
1092.0,0.655018586072742
1091.0,0.6520848134983086
1090.0,0.6478174818886375
1089.0,0.6426369693848573
1088.0,0.637329070274333
1087.0,0.6318991482906486
1086.0,0.6259852597080884
1085.0,0.6196078399429727
1084.0,0.6131444708152758
1083.0,0.6066003047068982
1082.0,0.5989442742281561
1081.0,0.5905741313285566
1080.0,0.582196277360119
1079.0,0.5738141747554886
1078.0,0.5654310959658013
1077.0,0.5567370125413049
1076.0,0.5479067509822686
1075.0,0.5385014732169813
1074.0,0.5287082889410615
1073.0,0.5191310763128321
1072.0,0.5101820916985493
1071.0,0.5019652763129732
1070.0,0.49390104007155955
1069.0,0.4858508655245626
1068.0,0.4778166823813137
1067.0,0.47005659834133073
1066.0,0.46293685721838296
1065.0,0.456677099353088
1064.0,0.4513649401852484
1063.0,0.4463596637686458
1062.0,0.44141141689180063
1061.0,0.4361630813354551
1060.0,0.4308602745275405
1059.0,0.4256214355869177
1058.0,0.42044503959900137
1057.0,0.41578188788259496
1056.0,0.4120646513636439
1055.0,0.4090467648120142
1054.0,0.4061603389187287
1053.0,0.4032929703185537
1052.0,0.40088143494463724
1051.0,0.39913596369016036
1050.0,0.3979400086720375
1049.0,0.3970722871408108
1048.0,0.39653084026616114
1047.0,0.39609816826832867
1046.0,0.3957739469155299
1045.0,0.3953420279521289
1044.0,0.39458720184694873
1043.0,0.393511149557352
1042.0,0.39211625564301
1041.0,0.3907258275954124
1040.0,0.389233405226729
1039.0,0.3876400520322256
1038.0,0.3855246339096048
1037.0,0.38310457359924
1036.0,0.38048927916150155
1035.0,0.3773715738706751
1034.0,0.3735569746687053
1033.0,0.36926710718280353
1032.0,0.3648179513437324
1031.0,0.3600157519584115
1030.0,0.35457773065090814
1029.0,0.3484312611342082
1028.0,0.34265726318537393
1027.0,0.33856594960608
1026.0,0.33790355458207655
1025.0,0.341606973720876
1024.0,0.35056777675838346
1023.0,0.3648179513437324
1022.0,0.384365531122584
1021.0,0.40882404968820873
1020.0,0.43735032778808325
1019.0,0.4676278664321225
1018.0,0.49566508819753574
1017.0,0.5171264163912463
1016.0,0.5287082889410615
1015.0,0.5294425147827257
1014.0,0.5207126835238298
1013.0,0.5062631977231602
1012.0,0.4902599844296176
1011.0,0.4750848524601332
1010.0,0.461929212956828
1009.0,0.450874073241889
1008.0,0.44153143747620516
1007.0,0.4336803784751886
1006.0,0.42689621683600887
1005.0,0.4206737962447449
1004.0,0.41510365586255005
1003.0,0.4102737437457631
1002.0,0.40593909872958167
1001.0,0.40208552879747184
1000.0,0.3988094673846665
999.0,0.3957739469155299
998.0,0.3928667956084333
997.0,0.3899789753358547
996.0,0.38732208168349813
995.0,0.3849973854754116
994.0,0.3825802532628235
993.0,0.38028073438827303
992.0,0.37820077599733226
991.0,0.37644060999456297
990.0,0.37458464784559187
989.0,0.37283904762522413
988.0,0.3712025144332898
987.0,0.3696738451960533
986.0,0.368556230986828
985.0,0.36764395376092684
984.0,0.3672391115205613
983.0,0.36703683183273883
982.0,0.36703683183273883
981.0,0.3673402867060864
980.0,0.3679478332941901
979.0,0.36906388093580866
978.0,0.3703865546218168
977.0,0.37212230542002844
976.0,0.37427609047424415
975.0,0.37664731846200805
974.0,0.3785121354193697
973.0,0.3799681048737027
972.0,0.3810110796350663
971.0,0.3819519032879073
970.0,0.3825802532628235
969.0,0.3827899054425661
968.0,0.3826850667017063
967.0,0.38226596463598206
966.0,0.38153350780091966
965.0,0.38028073438827303
964.0,0.3787198324495853
963.0,0.3768541253620603
962.0,0.3748934245965323
961.0,0.3729415359990105
960.0,0.37130461728597663
959.0,0.36957212497497616
958.0,0.36744148546732824
957.0,0.3650191999487715
956.0,0.3625102704874894
955.0,0.36031433875731866
954.0,0.3583276267753135
953.0,0.35644863143705496
952.0,0.3546759984377066
951.0,0.35300846252287754
950.0,0.35124978730198064
949.0,0.3496924768680636
948.0,0.3483343960770644
947.0,0.3471736974389954
946.0,0.3458234581220394
945.0,0.34438141645877796
944.0,0.34303981725715094
943.0,0.3419886033428876
942.0,0.3411304077980377
941.0,0.3404640928457836
940.0,0.339608901597533
939.0,0.33856594960608
938.0,0.3372421683184259
937.0,0.3360165453917334
936.0,0.33498217458752744
935.0,0.3340439705460432
934.0,0.33292079453578327
933.0,0.33170728955177897
932.0,0.3304042189756866
931.0,0.329197715739056
930.0,0.3279945549770482
929.0,0.32679471822095474
928.0,0.3257820544233001
927.0,0.324863495532006
926.0,0.3238553196437939
925.0,0.32275815405334596
924.0,0.32166375326781993
923.0,0.3205721033878812
922.0,0.31948319061874497
921.0,0.3182162335321186
920.0,0.3166827380781174
919.0,0.31506491735911046
918.0,0.31345310093699386
917.0,0.31211447515129453
916.0,0.3111354319452082
915.0,0.3103360349842297
914.0,0.3093609882840327
913.0,0.3083881257855836
912.0,0.30750559249691567
911.0,0.30680085484628283
910.0,0.30609725893393946
909.0,0.30539480106643135
908.0,0.3046934775681973
907.0,0.30434324006380975
906.0,0.30434324006380975
905.0,0.30451832350980257
904.0,0.3048687022959742
903.0,0.3051316720175439
902.0,0.30530707366851595
901.0,0.30539480106643135
900.0,0.30548254618884374
899.0,0.30530707366851595
898.0,0.3048687022959742
897.0,0.3044307729638145
896.0,0.3039058400047767
895.0,0.30303235925597694
894.0,0.3015514619846711
893.0,0.29955589897224844
892.0,0.2975694635544748
891.0,0.2956778591777647
890.0,0.2939653392856494
889.0,0.2923446764688131
888.0,0.2905604258675891
887.0,0.2886990400838343
886.0,0.2868455981627016
885.0,0.28550259135019407
884.0,0.2850000325879576
883.0,0.2860057323393561
882.0,0.2886146209015483
881.0,0.2929410593724038
880.0,0.2989503692708604
879.0,0.3064489144040865
878.0,0.3154239126115448
877.0,0.32596599956874517
876.0,0.33790355458207655
875.0,0.35115229162710637
874.0,0.3651198592334737
873.0,0.37882371822496475
872.0,0.39029889762060055
871.0,0.39750593119271893
870.0,0.3992448503603818
869.0,0.39653084026616114
868.0,0.39104630072413715
867.0,0.384576047114056
866.0,0.3779933269931952
865.0,0.37212230542002844
864.0,0.36693572730850077
863.0,0.362610349870788
862.0,0.3589226866746258
861.0,0.3561526897002858
860.0,0.35398859040876096
859.0,0.35232368675912906
858.0,0.35076252765039273
857.0,0.3495953301319683
856.0,0.34901290561655496
855.0,0.348721986001856
854.0,0.3486250560869568
853.0,0.348721986001856
852.0,0.3492069603480692
851.0,0.3500812812645808
850.0,0.35105481783432757
849.0,0.35222594973116994
848.0,0.3537923877933149
847.0,0.35536449623184696
846.0,0.35644863143705496
845.0,0.3566460380231371
844.0,0.35634996178267087
843.0,0.35585694949008095
842.0,0.3549709352788575
841.0,0.35389047802115203
840.0,0.3525192268263242
839.0,0.35105481783432757
838.0,0.3494982051216331
837.0,0.34794715175189506
836.0,0.3464016181567102
835.0,0.344861565188618
834.0,0.3432312207339834
833.0,0.341511618690983
832.0,0.33989377827675593
831.0,0.3382819423053407
830.0,0.3364875295848444
829.0,0.334606649720288
828.0,0.33292079453578327
827.0,0.331334584545508
826.0,0.3298469548078198
825.0,0.3283644033978703
824.0,0.3270713095572775
823.0,0.32596599956874517
822.0,0.324863495532006
821.0,0.3236722661186797
820.0,0.3225755622987525
819.0,0.32166375326781993
818.0,0.32066296947920603
817.0,0.31975516295739226
816.0,0.31921138849331765
815.0,0.3186682940308343
814.0,0.31794522292619276
813.0,0.31686286851699297
812.0,0.3156035215809796
811.0,0.3145269802772408
810.0,0.3133637307377066
809.0,0.31220358861870556
808.0,0.3109576609718283
807.0,0.3099812192113047
806.0,0.30891850787703157
805.0,0.3078583906332164
804.0,0.3066248489748147
803.0,0.30521936398793836
802.0,0.30355623686100075
801.0,0.3015514619846711
800.0,0.2993828043179432
799.0,0.2974833025618495
798.0,0.2962788400729801
797.0,0.2963647624161041
796.0,0.2982593675627876
795.0,0.3016384339448903
794.0,0.30521936398793836
793.0,0.30794663496591923
792.0,0.30909544594503346
791.0,0.30856484785593796
790.0,0.3066248489748147
789.0,0.3040807471686
788.0,0.30120374820956886
787.0,0.2983456826742519
786.0,0.29542055030370085
785.0,0.2925149880325264
784.0,0.2897979853446153
783.0,0.28718199979214987
782.0,0.28458167740494367
781.0,0.2818305946086932
780.0,0.2791794182296561
779.0,0.2766264329810155
778.0,0.2740883677049517
777.0,0.2715650490257453
776.0,0.26913700795350604
775.0,0.26672246606741834
774.0,0.26408188346870287
773.0,0.2612194415156308
772.0,0.258060922270801
771.0,0.2546909400591719
770.0,0.2509597312965428
769.0,0.24687675531828734
768.0,0.24267990345332757
767.0,0.23837281543841726
766.0,0.23381030668984004
765.0,0.22885365118501477
764.0,0.2240256688706308
763.0,0.2192507688964478
762.0,0.2145989750076125
761.0,0.20957408260888943
760.0,0.20432849405397824
759.0,0.19893947015214453
758.0,0.19361649817583237
757.0,0.18842499412940672
756.0,0.18309616062433975
755.0,0.17770112873763355
754.0,0.1721785723171978
753.0,0.1666616110606025
752.0,0.16115090926274478
751.0,0.15552282425431851
750.0,0.14978275820161047
749.0,0.14405705376768396
748.0,0.13846558914096208
747.0,0.13318119707395182
746.0,0.1282519810081284
745.0,0.12407101507707297
744.0,0.12084675381575383
743.0,0.11878658374498086
742.0,0.11833009232793867
741.0,0.1202162199095842
740.0,0.12540223129680017
739.0,0.13436311230037123
738.0,0.14733705565543076
737.0,0.16405589990615188
736.0,0.18375870000821704
735.0,0.20537255533549192
734.0,0.22819212100089437
733.0,0.25219990913563106
732.0,0.27785987454258443
731.0,0.30557030904291693
730.0,0.3352640314812949
729.0,0.3672391115205613
728.0,0.4018663541867622
727.0,0.43830246734600653
726.0,0.47353148753052254
725.0,0.5027938192960455
724.0,0.5228787452803376
723.0,0.5331323796458904
722.0,0.535212480354063
721.0,0.5319482085457623
720.0,0.5262211653532751
719.0,0.520280764560429
718.0,0.5145625189236986
717.0,0.5097605147537128
716.0,0.5059846252428564
715.0,0.5030703519267852
714.0,0.5001755041604203
713.0,0.4970269409343686
712.0,0.49376564038787407
711.0,0.4903942953884439
710.0,0.4871822414351268
709.0,0.48425858333063476
708.0,0.4818810528568469
707.0,0.4796474959166821
706.0,0.47716468633947007
705.0,0.4743074754949892
704.0,0.4719836588107986
703.0,0.47056964563301396
702.0,0.468904453129972
701.0,0.4664821379830326
700.0,0.4634415574284698
699.0,0.4600461583436033
698.0,0.4561801948573423
697.0,0.45210228243690276
696.0,0.44867201199615403
695.0,0.445995678988097
694.0,0.44357687862871464
693.0,0.4409316659654632
692.0,0.43806423668621863
691.0,0.4348608480302105
690.0,0.4310945850171213
689.0,0.4266641599339325
688.0,0.4227380464141852
687.0,0.4198736745884175
686.0,0.41759570198097196
685.0,0.4153296155356512
684.0,0.41307529185517966
683.0,0.41116827440579273
682.0,0.4096040528159872
681.0,0.40871273494150073
680.0,0.4084901910053458
679.0,0.4084901910053458
678.0,0.4076011538844362
677.0,0.4050552633049167
676.0,0.4017568083463774
675.0,0.3987006898056624
674.0,0.3964226318485333
673.0,0.39480273261162213
672.0,0.39394125058968577
671.0,0.3932962586663258
670.0,0.3917949922956738
669.0,0.38742804593482383
668.0,0.38028073438827303
667.0,0.3756147585797349
666.0,0.37540854087315223
665.0,0.37540854087315223
664.0,0.3738650213646113
663.0,0.3717132689104856
662.0,0.3700809644964582
661.0,0.36926710718280353
660.0,0.36845477216569056
659.0,0.3672391115205613
658.0,0.3658251282373999
657.0,0.3652205418540484
656.0,0.3656235059116322
655.0,0.3660268442103265
654.0,0.36491856398912703
653.0,0.3623101808815987
652.0,0.35941919351034746
651.0,0.3572387967346795
650.0,0.3557584141562713
649.0,0.3551676711743639
648.0,0.3551676711743639
647.0,0.35487260074160876
646.0,0.3533022687006655
645.0,0.35076252765039273
644.0,0.34852814780095764
643.0,0.3471736974389954
642.0,0.3468840068344332
641.0,0.34804393046692583
640.0,0.3515424057174774
639.0,0.356942316248547
638.0,0.3623101808815987
637.0,0.36612773734166737
636.0,0.36865771351606735
635.0,0.36997914888659
634.0,0.3687592197644909
633.0,0.36421476446634826
632.0,0.3585258894959005
631.0,0.3549709352788575
630.0,0.35428306063039616
629.0,0.35487260074160876
628.0,0.3551676711743639
627.0,0.35389047802115203
626.0,0.3506651412878581
625.0,0.3463052046849182
624.0,0.34265726318537393
623.0,0.3409399277590617
622.0,0.341035157335565
621.0,0.3418931644936072
620.0,0.34217954398430295
619.0,0.341035157335565
618.0,0.3378090091409929
617.0,0.33395026151948404
616.0,0.33198702835816785
615.0,0.3330142816703394
614.0,0.3355460714188425
613.0,0.3373365904259624
612.0,0.3373365904259624
611.0,0.33611070137733856
610.0,0.3341376997968448
609.0,0.332547047110046
608.0,0.33245366048848357
607.0,0.3334820194451191
606.0,0.3336692556980314
605.0,0.3318937620672686
604.0,0.33003263009149597
603.0,0.33031129194379183
602.0,0.3318005158013382
601.0,0.3307761260691944
600.0,0.32596599956874517
