cm-1,A
4000.0,0.004145520125434121
3999.0,0.004145520125434121
3998.0,0.004145520125434121
3997.0,0.004101676353562844
3996.0,0.004101676353562844
3995.0,0.0040578370074493275
3994.0,0.004101676353562844
3993.0,0.004145520125434121
3992.0,0.004189368323957332
3991.0,0.004189368323957332
3990.0,0.004189368323957332
3989.0,0.004189368323957332
3988.0,0.004233220950025984
3987.0,0.004277078004534696
3986.0,0.004277078004534696
3985.0,0.004233220950025984
3984.0,0.004189368323957332
3983.0,0.004189368323957332
3982.0,0.004233220950025984
3981.0,0.004277078004534696
3980.0,0.004320939488377862
3979.0,0.0043648054024501
3978.0,0.004320939488377862
3977.0,0.004277078004534696
3976.0,0.004189368323957332
3975.0,0.004145520125434121
3974.0,0.004145520125434121
3973.0,0.004189368323957332
3972.0,0.004277078004534696
3971.0,0.004320939488377862
3970.0,0.004320939488377862
3969.0,0.0043648054024501
3968.0,0.0043648054024501
3967.0,0.0043648054024501
3966.0,0.004277078004534696
3965.0,0.004145520125434121
3964.0,0.00401400208620073
3963.0,0.003926345514724705
3962.0,0.003926345514724705
3961.0,0.00401400208620073
3960.0,0.004145520125434121
3959.0,0.004277078004534696
3958.0,0.0043648054024501
3957.0,0.0043648054024501
3956.0,0.0043648054024501
3955.0,0.004277078004534696
3954.0,0.004233220950025984
3953.0,0.004145520125434121
3952.0,0.0040578370074493275
3951.0,0.00401400208620073
3950.0,0.00401400208620073
3949.0,0.0040578370074493275
3948.0,0.004101676353562844
3947.0,0.004101676353562844
3946.0,0.004101676353562844
3945.0,0.004101676353562844
3944.0,0.0040578370074493275
3943.0,0.0040578370074493275
3942.0,0.0040578370074493275
3941.0,0.0040578370074493275
3940.0,0.004101676353562844
3939.0,0.004101676353562844
3938.0,0.004145520125434121
3937.0,0.004145520125434121
3936.0,0.004189368323957332
3935.0,0.004145520125434121
3934.0,0.0040578370074493275
3933.0,0.0038825238627120395
3932.0,0.003794893821675638
3931.0,0.0037510854308679953
3930.0,0.0037510854308679953
3929.0,0.0038825238627120395
3928.0,0.0040578370074493275
3927.0,0.004233220950025984
3926.0,0.004320939488377862
3925.0,0.0043648054024501
3924.0,0.0043648054024501
3923.0,0.004408675747646695
3922.0,0.004408675747646695
3921.0,0.004277078004534696
3920.0,0.0040578370074493275
3919.0,0.0038825238627120395
3918.0,0.003794893821675638
3917.0,0.0038387066319929275
3916.0,0.003926345514724705
3915.0,0.0040578370074493275
3914.0,0.004101676353562844
3913.0,0.004101676353562844
3912.0,0.0040578370074493275
3911.0,0.003970171588923321
3910.0,0.0038825238627120395
3909.0,0.0038387066319929275
3908.0,0.0037510854308679953
3907.0,0.003707281458678491
3906.0,0.0036634819042162814
3905.0,0.003619686766589858
3904.0,0.0035758960449088217
3903.0,0.0035758960449088217
3902.0,0.003707281458678491
3901.0,0.003794893821675638
3900.0,0.0038825238627120395
3899.0,0.003926345514724705
3898.0,0.003970171588923321
3897.0,0.0040578370074493275
3896.0,0.004101676353562844
3895.0,0.004101676353562844
3894.0,0.004101676353562844
3893.0,0.004189368323957332
3892.0,0.004189368323957332
3891.0,0.0040578370074493275
3890.0,0.003970171588923321
3889.0,0.00401400208620073
3888.0,0.00401400208620073
3887.0,0.003926345514724705
3886.0,0.0037510854308679953
3885.0,0.0036634819042162814
3884.0,0.003707281458678491
3883.0,0.003794893821675638
3882.0,0.003794893821675638
3881.0,0.0037510854308679953
3880.0,0.0036634819042162814
3879.0,0.003707281458678491
3878.0,0.0038387066319929275
3877.0,0.003970171588923321
3876.0,0.003926345514724705
3875.0,0.003794893821675638
3874.0,0.0037510854308679953
3873.0,0.0038825238627120395
3872.0,0.004101676353562844
3871.0,0.004101676353562844
3870.0,0.0038825238627120395
3869.0,0.003707281458678491
3868.0,0.003794893821675638
3867.0,0.0040578370074493275
3866.0,0.004189368323957332
3865.0,0.004233220950025984
3864.0,0.004277078004534696
3863.0,0.004233220950025984
3862.0,0.004189368323957332
3861.0,0.004101676353562844
3860.0,0.0040578370074493275
3859.0,0.0040578370074493275
3858.0,0.004101676353562844
3857.0,0.004145520125434121
3856.0,0.004189368323957332
3855.0,0.004320939488377862
3854.0,0.0044964297349936455
3853.0,0.004452550524862486
3852.0,0.004408675747646695
3851.0,0.0044964297349936455
3850.0,0.00458420145758498
3849.0,0.004452550524862486
3848.0,0.004277078004534696
3847.0,0.0040578370074493275
3846.0,0.0038825238627120395
3845.0,0.003707281458678491
3844.0,0.003619686766589858
3843.0,0.003619686766589858
3842.0,0.0037510854308679953
3841.0,0.003970171588923321
3840.0,0.004189368323957332
3839.0,0.004320939488377862
3838.0,0.004320939488377862
3837.0,0.004233220950025984
3836.0,0.004145520125434121
3835.0,0.0040578370074493275
3834.0,0.003970171588923321
3833.0,0.0038825238627120395
3832.0,0.003794893821675638
3831.0,0.003707281458678491
3830.0,0.0037510854308679953
3829.0,0.003794893821675638
3828.0,0.003794893821675638
3827.0,0.003619686766589858
3826.0,0.003488327845821315
3825.0,0.0035321097382827737
3824.0,0.0036634819042162814
3823.0,0.0038387066319929275
3822.0,0.0038825238627120395
3821.0,0.003794893821675638
3820.0,0.0037510854308679953
3819.0,0.003926345514724705
3818.0,0.004189368323957332
3817.0,0.004277078004534696
3816.0,0.004233220950025984
3815.0,0.004233220950025984
3814.0,0.0043648054024501
3813.0,0.0044964297349936455
3812.0,0.004408675747646695
3811.0,0.004277078004534696
3810.0,0.004189368323957332
3809.0,0.004145520125434121
3808.0,0.004101676353562844
3807.0,0.00401400208620073
3806.0,0.00401400208620073
3805.0,0.004189368323957332
3804.0,0.004408675747646695
3803.0,0.004452550524862486
3802.0,0.004233220950025984
3801.0,0.003970171588923321
3800.0,0.0038825238627120395
3799.0,0.003970171588923321
3798.0,0.00401400208620073
3797.0,0.003970171588923321
3796.0,0.0038825238627120395
3795.0,0.003926345514724705
3794.0,0.0040578370074493275
3793.0,0.004145520125434121
3792.0,0.004189368323957332
3791.0,0.004189368323957332
3790.0,0.004233220950025984
3789.0,0.004233220950025984
3788.0,0.004233220950025984
3787.0,0.004189368323957332
3786.0,0.004189368323957332
3785.0,0.004189368323957332
3784.0,0.004189368323957332
3783.0,0.004277078004534696
3782.0,0.004320939488377862
3781.0,0.004320939488377862
3780.0,0.004233220950025984
3779.0,0.004189368323957332
3778.0,0.004145520125434121
3777.0,0.004189368323957332
3776.0,0.004145520125434121
3775.0,0.0040578370074493275
3774.0,0.003970171588923321
3773.0,0.00401400208620073
3772.0,0.0040578370074493275
3771.0,0.004101676353562844
3770.0,0.004145520125434121
3769.0,0.004189368323957332
3768.0,0.004233220950025984
3767.0,0.004277078004534696
3766.0,0.004189368323957332
3765.0,0.0040578370074493275
3764.0,0.00401400208620073
3763.0,0.0040578370074493275
3762.0,0.004101676353562844
3761.0,0.0040578370074493275
3760.0,0.00401400208620073
3759.0,0.00401400208620073
3758.0,0.0040578370074493275
3757.0,0.0040578370074493275
3756.0,0.0040578370074493275
3755.0,0.0040578370074493275
3754.0,0.0040578370074493275
3753.0,0.004101676353562844
3752.0,0.004189368323957332
3751.0,0.004277078004534696
3750.0,0.004101676353562844
3749.0,0.0038825238627120395
3748.0,0.0038825238627120395
3747.0,0.00401400208620073
3746.0,0.004101676353562844
3745.0,0.00401400208620073
3744.0,0.0037510854308679953
3743.0,0.0036634819042162814
3742.0,0.0038387066319929275
3741.0,0.0038825238627120395
3740.0,0.0038387066319929275
3739.0,0.0037510854308679953
3738.0,0.003794893821675638
3737.0,0.0038387066319929275
3736.0,0.003794893821675638
3735.0,0.003619686766589858
3734.0,0.0034007772998332353
3733.0,0.0033132443998284966
3732.0,0.0032694845648473247
3731.0,0.0033570086445275926
3730.0,0.003619686766589858
3729.0,0.0038387066319929275
3728.0,0.003970171588923321
3727.0,0.003926345514724705
3726.0,0.003794893821675638
3725.0,0.0037510854308679953
3724.0,0.003794893821675638
3723.0,0.003926345514724705
3722.0,0.0040578370074493275
3721.0,0.004145520125434121
3720.0,0.004233220950025984
3719.0,0.004233220950025984
3718.0,0.004233220950025984
3717.0,0.004189368323957332
3716.0,0.004145520125434121
3715.0,0.0040578370074493275
3714.0,0.0038825238627120395
3713.0,0.003794893821675638
3712.0,0.003794893821675638
3711.0,0.0038387066319929275
3710.0,0.0038825238627120395
3709.0,0.003926345514724705
3708.0,0.003970171588923321
3707.0,0.00401400208620073
3706.0,0.004101676353562844
3705.0,0.004189368323957332
3704.0,0.004233220950025984
3703.0,0.004277078004534696
3702.0,0.004277078004534696
3701.0,0.004277078004534696
3700.0,0.004277078004534696
3699.0,0.004277078004534696
3698.0,0.004277078004534696
3697.0,0.004145520125434121
3696.0,0.00401400208620073
3695.0,0.003970171588923321
3694.0,0.003926345514724705
3693.0,0.0038387066319929275
3692.0,0.003794893821675638
3691.0,0.0038387066319929275
3690.0,0.00401400208620073
3689.0,0.004145520125434121
3688.0,0.004233220950025984
3687.0,0.004320939488377862
3686.0,0.004452550524862486
3685.0,0.0044964297349936455
3684.0,0.004452550524862486
3683.0,0.004408675747646695
3682.0,0.004320939488377862
3681.0,0.004277078004534696
3680.0,0.004145520125434121
3679.0,0.0040578370074493275
3678.0,0.0040578370074493275
3677.0,0.004101676353562844
3676.0,0.004101676353562844
3675.0,0.0040578370074493275
3674.0,0.004189368323957332
3673.0,0.0044964297349936455
3672.0,0.004671990922590297
3671.0,0.00458420145758498
3670.0,0.0044964297349936455
3669.0,0.004452550524862486
3668.0,0.00458420145758498
3667.0,0.00484762310854614
3666.0,0.005023326350308999
3665.0,0.005111204635089406
3664.0,0.005155150446602086
3663.0,0.005199100705396198
3662.0,0.005199100705396198
3661.0,0.005155150446602086
3660.0,0.005155150446602086
3659.0,0.005199100705396198
3658.0,0.005199100705396198
3657.0,0.005111204635089406
3656.0,0.005023326350308999
3655.0,0.004979393875242044
3654.0,0.005023326350308999
3653.0,0.005067263269958211
3652.0,0.004935465843858511
3651.0,0.00489154225525934
3650.0,0.005067263269958211
3649.0,0.005330978174470591
3648.0,0.005462895701502157
3647.0,0.005550862985963967
3646.0,0.005638848091999105
3645.0,0.005726851026829571
3644.0,0.005814871797682919
3643.0,0.005814871797682919
3642.0,0.00590291041179003
3641.0,0.006079041198713275
3640.0,0.00625524344553785
3639.0,0.006387442061109638
3638.0,0.006431517210272464
3637.0,0.006431517210272464
3636.0,0.006431517210272464
3635.0,0.006343371384537999
3634.0,0.00625524344553785
3633.0,0.00625524344553785
3632.0,0.006343371384537999
3631.0,0.006387442061109638
3630.0,0.006475596832934416
3629.0,0.00656376950238835
3628.0,0.006607862550997545
3627.0,0.006784279525863024
3626.0,0.007004901568658406
3625.0,0.007093181776687496
3624.0,0.007049039429553483
3623.0,0.007049039429553483
3622.0,0.007093181776687496
3621.0,0.007137328610972382
3620.0,0.007181479933320523
3619.0,0.007181479933320523
3618.0,0.007225635744644521
3617.0,0.007402303897961815
3616.0,0.00762324020119709
3615.0,0.007800070204414977
3614.0,0.007976972236149349
3613.0,0.008065450281052211
3612.0,0.008153946355103248
3611.0,0.008286724286910463
3610.0,0.008419542825660153
3609.0,0.008596697419959609
3608.0,0.008862564879688284
3607.0,0.009039900317800775
3606.0,0.009172949432521227
3605.0,0.009217308196862062
3604.0,0.009217308196862062
3603.0,0.009172949432521227
3602.0,0.009128595198514056
3601.0,0.009128595198514056
3600.0,0.009172949432521227
3599.0,0.009261671492462709
3598.0,0.009350411681145587
3597.0,0.009483555971770974
3596.0,0.009483555971770974
3595.0,0.009483555971770974
3594.0,0.009439170005980158
3593.0,0.009483555971770974
3592.0,0.009572341514736404
3591.0,0.00966114521239847
3590.0,0.009705553871561357
3589.0,0.00974996707218323
3588.0,0.009883233932095559
3587.0,0.01001654169860089
3586.0,0.010149890396819572
3585.0,0.010283280051895272
3584.0,0.010416710688994968
3583.0,0.010550182333308289
3582.0,0.010683695010048622
3581.0,0.010817248744452446
3580.0,0.010950843561779777
3579.0,0.011084479487313281
3578.0,0.01117359295472431
3577.0,0.011218156546359825
3576.0,0.011262724711199823
3575.0,0.011307297450183107
3574.0,0.011485634166333858
3573.0,0.011664044143949504
3572.0,0.011797899741219142
3571.0,0.011753276624621556
3570.0,0.011619434777991433
3569.0,0.011396456654336085
3568.0,0.011351874764248926
3567.0,0.011485634166333858
3566.0,0.011664044143949504
3565.0,0.011842527443247208
3564.0,0.0119764380713403
3563.0,0.012110390002254778
3562.0,0.012333735073725371
3561.0,0.01260190086298274
3560.0,0.012914970375878188
3559.0,0.013093968619278806
3558.0,0.013138729709955221
3557.0,0.013093968619278806
3556.0,0.012959713020733288
3555.0,0.012914970375878188
3554.0,0.013004460275618523
3553.0,0.01318349541446362
3552.0,0.013362604389846044
3551.0,0.013496984613259544
3550.0,0.013631406429727155
3549.0,0.01372104409400876
3548.0,0.01381070026317599
3547.0,0.01381070026317599
3546.0,0.01385553528947936
3545.0,0.013900374944870508
3544.0,0.014079779876432497
3543.0,0.014304140310157809
3542.0,0.01452861671041239
3541.0,0.014618439768003144
3540.0,0.014663358264387139
3539.0,0.014663358264387139
3538.0,0.014663358264387139
3537.0,0.014708281407112
3536.0,0.014798141635428141
3535.0,0.014932966849499074
3534.0,0.015112798935672522
3533.0,0.015292705517326866
3532.0,0.01538268676325183
3531.0,0.015427684378367834
3530.0,0.015427684378367834
3529.0,0.01547268665620738
3528.0,0.015517693597737248
3527.0,0.015562705203923999
3526.0,0.015607721475734415
3525.0,0.015697768020096703
3524.0,0.015832872853011715
3523.0,0.016013078034810446
3522.0,0.016193358021584725
3521.0,0.01632861713980338
3520.0,0.016373712875465518
3519.0,0.016373712875465518
3518.0,0.016373712875465518
3517.0,0.016418813294209356
3516.0,0.016509028184833463
3515.0,0.016644385668211692
3514.0,0.01677978535189717
3513.0,0.016870075265299933
3512.0,0.016915227262211507
3511.0,0.016960383953898095
3510.0,0.017050711425501408
3509.0,0.017186237868137555
3508.0,0.017321806616515723
3507.0,0.017367005605150476
3506.0,0.017412209298337533
3505.0,0.017457417697056554
3504.0,0.017547848615010242
3503.0,0.017638298366853045
3502.0,0.01768353030793479
3501.0,0.017774008325325275
3500.0,0.017864505196230507
3499.0,0.01800028587012159
3498.0,0.018226681372252695
3497.0,0.01840788278591865
3496.0,0.018498511851753108
3495.0,0.018498511851753108
3494.0,0.018498511851753108
3493.0,0.018543833477873584
3492.0,0.018634490921455527
3491.0,0.018815862601645694
3490.0,0.018951941086827073
3489.0,0.019042683770379876
3488.0,0.0190880622231564
3487.0,0.0190880622231564
3486.0,0.019133445417920836
3485.0,0.019133445417920836
3484.0,0.019133445417920836
3483.0,0.019133445417920836
3482.0,0.019269623464054586
3481.0,0.01940584422377989
3480.0,0.019632973815224997
3479.0,0.019814763052665052
3478.0,0.019996628416253603
3477.0,0.020178569969774962
3476.0,0.020315076172974234
3475.0,0.020497151212598652
3474.0,0.02058821736556471
3473.0,0.020724852408976924
3472.0,0.02081596632558158
3471.0,0.020861530453190058
3470.0,0.020861530453190058
3469.0,0.020861530453190058
3468.0,0.020861530453190058
3467.0,0.020861530453190058
3466.0,0.020907099361673565
3465.0,0.021043834782408455
3464.0,0.021135015652343103
3463.0,0.02122621566987748
3462.0,0.02122621566987748
3461.0,0.0211806132671577
3460.0,0.021135015652343103
3459.0,0.02122621566987748
3458.0,0.021317434843055594
3457.0,0.021499930688540836
3456.0,0.02159120737696063
3455.0,0.02168250325324883
3454.0,0.021773818325474092
3453.0,0.021819483062586187
3452.0,0.021865152601710403
3451.0,0.021910826943857264
3450.0,0.021956506090037076
3449.0,0.02204787879853809
3448.0,0.022139270735302752
3447.0,0.02227639471115217
3446.0,0.022413561996148967
3445.0,0.022505030926963654
3444.0,0.022505030926963654
3443.0,0.02245929405346514
3442.0,0.02245929405346514
3441.0,0.022505030926963654
3440.0,0.02259651912656535
3439.0,0.022642270454698687
3438.0,0.022733787572707387
3437.0,0.02277955336461468
3436.0,0.02282532397981263
3435.0,0.02282532397981263
3434.0,0.02282532397981263
3433.0,0.02291687968414724
3432.0,0.023054249440757957
3431.0,0.023237476732539397
3430.0,0.023374947949272418
3429.0,0.02342078135989012
3428.0,0.02342078135989012
3427.0,0.02342078135989012
3426.0,0.02342078135989012
3425.0,0.02342078135989012
3424.0,0.02342078135989012
3423.0,0.023374947949272418
3422.0,0.023374947949272418
3421.0,0.023466619608062178
3420.0,0.023604163388120325
3419.0,0.023695883447997224
3418.0,0.023741750742954926
3417.0,0.023833499868024743
3416.0,0.023879381700184332
3415.0,0.023971159908874107
3414.0,0.02406295751688936
3413.0,0.024108863598207186
3412.0,0.024200690320592466
3411.0,0.024292536462819925
3410.0,0.02438440203310499
3409.0,0.024522236834125355
3408.0,0.024568191490736968
3407.0,0.02461415101053266
3406.0,0.02461415101053266
3405.0,0.02461415101053266
3404.0,0.024660115394541604
3403.0,0.024706084643793647
3402.0,0.02475205875931885
3401.0,0.02475205875931885
3400.0,0.024706084643793647
3399.0,0.024706084643793647
3398.0,0.02475205875931885
3397.0,0.024798037742147727
3396.0,0.024936003904763915
3395.0,0.025028005701930978
3394.0,0.02512002699306959
3393.0,0.02512002699306959
3392.0,0.02512002699306959
3391.0,0.025074013910237447
3390.0,0.025028005701930978
3389.0,0.02498200236711723
3388.0,0.024936003904763915
3387.0,0.024890010313838973
3386.0,0.024890010313838973
3385.0,0.02498200236711723
3384.0,0.02512002699306959
3383.0,0.02521206778644225
3382.0,0.025258095499050004
3381.0,0.025304128090317013
3380.0,0.025258095499050004
3379.0,0.025258095499050004
3378.0,0.025258095499050004
3377.0,0.02521206778644225
3376.0,0.02516604495145991
3375.0,0.02516604495145991
3374.0,0.02521206778644225
3373.0,0.025304128090317013
3372.0,0.02539620791296726
3371.0,0.025488307262671706
3370.0,0.02553436426275746
3369.0,0.02553436426275746
3368.0,0.025488307262671706
3367.0,0.02539620791296726
3366.0,0.025304128090317013
3365.0,0.02521206778644225
3364.0,0.02521206778644225
3363.0,0.025258095499050004
3362.0,0.025350165561278004
3361.0,0.02539620791296726
3360.0,0.02539620791296726
3359.0,0.025350165561278004
3358.0,0.025304128090317013
3357.0,0.025350165561278004
3356.0,0.025350165561278004
3355.0,0.025350165561278004
3354.0,0.025350165561278004
3353.0,0.025350165561278004
3352.0,0.02539620791296726
3351.0,0.025488307262671706
3350.0,0.02553436426275746
3349.0,0.02558042614771394
3348.0,0.02558042614771394
3347.0,0.02558042614771394
3346.0,0.02553436426275746
3345.0,0.025488307262671706
3344.0,0.02544225514642018
3343.0,0.02544225514642018
3342.0,0.02544225514642018
3341.0,0.02544225514642018
3340.0,0.02539620791296726
3339.0,0.025258095499050004
3338.0,0.025074013910237447
3337.0,0.024890010313838973
3336.0,0.024798037742147727
3335.0,0.024798037742147727
3334.0,0.024890010313838973
3333.0,0.02498200236711723
3332.0,0.025028005701930978
3331.0,0.025074013910237447
3330.0,0.02512002699306959
3329.0,0.02516604495145991
3328.0,0.02521206778644225
3327.0,0.025304128090317013
3326.0,0.025304128090317013
3325.0,0.025304128090317013
3324.0,0.02521206778644225
3323.0,0.02512002699306959
3322.0,0.025074013910237447
3321.0,0.025074013910237447
3320.0,0.02512002699306959
3319.0,0.02512002699306959
3318.0,0.025074013910237447
3317.0,0.02498200236711723
3316.0,0.02484402159331056
3315.0,0.02475205875931885
3314.0,0.024706084643793647
3313.0,0.02475205875931885
3312.0,0.024798037742147727
3311.0,0.024890010313838973
3310.0,0.02498200236711723
3309.0,0.025028005701930978
3308.0,0.025074013910237447
3307.0,0.02498200236711723
3306.0,0.02484402159331056
3305.0,0.02475205875931885
3304.0,0.024660115394541604
3303.0,0.024660115394541604
3302.0,0.024660115394541604
3301.0,0.024568191490736968
3300.0,0.024522236834125355
3299.0,0.024430342106337877
3298.0,0.024338466818941473
3297.0,0.024292536462819925
3296.0,0.024200690320592466
3295.0,0.024108863598207186
3294.0,0.02406295751688936
3293.0,0.02406295751688936
3292.0,0.024108863598207186
3291.0,0.024154774532432866
3290.0,0.024200690320592466
3289.0,0.024292536462819925
3288.0,0.024430342106337877
3287.0,0.024522236834125355
3286.0,0.02461415101053266
3285.0,0.024522236834125355
3284.0,0.024430342106337877
3283.0,0.024246610963712723
3282.0,0.024154774532432866
3281.0,0.024108863598207186
3280.0,0.02406295751688936
3279.0,0.024108863598207186
3278.0,0.02406295751688936
3277.0,0.024017056287453542
3276.0,0.023925268380126097
3275.0,0.023879381700184332
3274.0,0.023833499868024743
3273.0,0.023833499868024743
3272.0,0.023833499868024743
3271.0,0.023879381700184332
3270.0,0.023925268380126097
3269.0,0.024017056287453542
3268.0,0.024017056287453542
3267.0,0.024017056287453542
3266.0,0.023925268380126097
3265.0,0.023833499868024743
3264.0,0.023787622882622816
3263.0,0.023741750742954926
3262.0,0.02365002099672653
3261.0,0.02351246269481
3260.0,0.02342078135989012
3259.0,0.023374947949272418
3258.0,0.023329119375188556
3257.0,0.023237476732539397
3256.0,0.023237476732539397
3255.0,0.023283295636617574
3254.0,0.023374947949272418
3253.0,0.02342078135989012
3252.0,0.02342078135989012
3251.0,0.02342078135989012
3250.0,0.023329119375188556
3249.0,0.023237476732539397
3248.0,0.023191662661933732
3247.0,0.02314585342378117
3246.0,0.023100049017062307
3245.0,0.02300845469384938
3244.0,0.02291687968414724
3243.0,0.02291687968414724
3242.0,0.02291687968414724
3241.0,0.02300845469384938
3240.0,0.023054249440757957
3239.0,0.02314585342378117
3238.0,0.023283295636617574
3237.0,0.023329119375188556
3236.0,0.023374947949272418
3235.0,0.023329119375188556
3234.0,0.023237476732539397
3233.0,0.023054249440757957
3232.0,0.022871099419317753
3231.0,0.022733787572707387
3230.0,0.022642270454698687
3229.0,0.022642270454698687
3228.0,0.022642270454698687
3227.0,0.022688026603074007
3226.0,0.022688026603074007
3225.0,0.022642270454698687
3224.0,0.02259651912656535
3223.0,0.02255077261765881
3222.0,0.02245929405346514
3221.0,0.022367834754000393
3220.0,0.022230681908425698
3219.0,0.0221849739168134
3218.0,0.0221849739168134
3217.0,0.022139270735302752
3216.0,0.022093572362881675
3215.0,0.02200219004126036
3214.0,0.02200219004126036
3213.0,0.02200219004126036
3212.0,0.02200219004126036
3211.0,0.021956506090037076
3210.0,0.021865152601710403
3209.0,0.021819483062586187
3208.0,0.021819483062586187
3207.0,0.021865152601710403
3206.0,0.021819483062586187
3205.0,0.021773818325474092
3204.0,0.02168250325324883
3203.0,0.02159120737696063
3202.0,0.02159120737696063
3201.0,0.021636852916117055
3200.0,0.02168250325324883
3199.0,0.02168250325324883
3198.0,0.02159120737696063
3197.0,0.021499930688540836
3196.0,0.021363051615525652
3195.0,0.0211806132671577
3194.0,0.021043834782408455
3193.0,0.020907099361673565
3192.0,0.020861530453190058
3191.0,0.020861530453190058
3190.0,0.020907099361673565
3189.0,0.020861530453190058
3188.0,0.020770406977844713
3187.0,0.020633757603838898
3186.0,0.020497151212598652
3185.0,0.02045162529590483
3184.0,0.020406104151069693
3183.0,0.02045162529590483
3182.0,0.020406104151069693
3181.0,0.020406104151069693
3180.0,0.02045162529590483
3179.0,0.02045162529590483
3178.0,0.02036058777709271
3177.0,0.02026956933771462
3176.0,0.020178569969774962
3175.0,0.02004210665933459
3174.0,0.01995115493504329
3173.0,0.019860222254245663
3172.0,0.019678413991243593
3171.0,0.01949668180660491
3170.0,0.019360432556262852
3169.0,0.019315025636685412
3168.0,0.019360432556262852
3167.0,0.01940584422377989
3166.0,0.019451260640229506
3165.0,0.019451260640229506
3164.0,0.019360432556262852
3163.0,0.0192242260373785
3162.0,0.019042683770379876
3161.0,0.018951941086827073
3160.0,0.018861217359339655
3159.0,0.018815862601645694
3158.0,0.018770512579999288
3157.0,0.018725167293411005
3156.0,0.018679826740892747
3155.0,0.018679826740892747
3154.0,0.018634490921455527
3153.0,0.01858915983411169
3152.0,0.018498511851753108
3151.0,0.018362575344230914
3150.0,0.018181392829336396
3149.0,0.018045555530026514
3148.0,0.017909760704207134
3147.0,0.01781925440359733
3146.0,0.017728766960431575
3145.0,0.017728766960431575
3144.0,0.017774008325325275
3143.0,0.017864505196230507
3142.0,0.017864505196230507
3141.0,0.017864505196230507
3140.0,0.017728766960431575
3139.0,0.01759307113620534
3138.0,0.017412209298337533
3137.0,0.017231422748988034
3136.0,0.017095882207371904
3135.0,0.016960383953898095
3134.0,0.016870075265299933
3133.0,0.016824927962187042
3132.0,0.01677978535189717
3131.0,0.016734647433454652
3130.0,0.016734647433454652
3129.0,0.016734647433454652
3128.0,0.016689514205884493
3127.0,0.016599261819461697
3126.0,0.016418813294209356
3125.0,0.01632861713980338
3124.0,0.016238439713835096
3123.0,0.016238439713835096
3122.0,0.01628352608625061
3121.0,0.01628352608625061
3120.0,0.016238439713835096
3119.0,0.016193358021584725
3118.0,0.016148281008528276
3117.0,0.016103208673694303
3116.0,0.016013078034810446
3115.0,0.015922966097169144
3114.0,0.015877917138889863
3113.0,0.015832872853011715
3112.0,0.015877917138889863
3111.0,0.015832872853011715
3110.0,0.015742798294583915
3109.0,0.015607721475734415
3108.0,0.015517693597737248
3107.0,0.015427684378367834
3106.0,0.015427684378367834
3105.0,0.01538268676325183
3104.0,0.015427684378367834
3103.0,0.015427684378367834
3102.0,0.015427684378367834
3101.0,0.01538268676325183
3100.0,0.01538268676325183
3099.0,0.015337693809893471
3098.0,0.015292705517326866
3097.0,0.015247721884586563
3096.0,0.015112798935672522
3095.0,0.014932966849499074
3094.0,0.014798141635428141
3093.0,0.014663358264387139
3092.0,0.014618439768003144
3091.0,0.014573525916998342
3090.0,0.01452861671041239
3089.0,0.01452861671041239
3088.0,0.014618439768003144
3087.0,0.014708281407112
3086.0,0.014798141635428141
3085.0,0.014843078722943437
3084.0,0.014753209197138295
3083.0,0.014663358264387139
3082.0,0.01452861671041239
3081.0,0.014393916947563534
3080.0,0.014349026309051105
3079.0,0.014393916947563534
3078.0,0.014393916947563534
3077.0,0.014349026309051105
3076.0,0.014214382227394795
3075.0,0.014079779876432497
3074.0,0.013990068146738865
3073.0,0.013990068146738865
3072.0,0.01403492169512921
3071.0,0.01403492169512921
3070.0,0.013990068146738865
3069.0,0.013900374944870508
3068.0,0.01381070026317599
3067.0,0.013676222949234651
3066.0,0.013586594534531482
3065.0,0.013452186585275916
3064.0,0.013362604389846044
3063.0,0.013273040668781544
3062.0,0.01318349541446362
3061.0,0.013093968619278806
3060.0,0.013004460275618523
3059.0,0.012959713020733288
3058.0,0.012959713020733288
3057.0,0.012959713020733288
3056.0,0.012914970375878188
3055.0,0.012825498912458322
3054.0,0.012780770091995297
3053.0,0.012736045877764557
3052.0,0.012691326268817527
3051.0,0.012691326268817527
3050.0,0.01264661126420652
3049.0,0.01260190086298274
3048.0,0.012557195064198723
3047.0,0.012467797270160563
3046.0,0.012423105273012602
3045.0,0.012333735073725371
3044.0,0.012333735073725371
3043.0,0.012333735073725371
3042.0,0.012333735073725371
3041.0,0.012333735073725371
3040.0,0.012289056869694281
3039.0,0.012244383261476699
3038.0,0.01215504982870197
3037.0,0.012110390002254778
3036.0,0.012065734767841452
3035.0,0.0119764380713403
3034.0,0.011931796607364653
3033.0,0.011931796607364653
3032.0,0.011887159731648111
3031.0,0.011842527443247208
3030.0,0.011797899741219142
3029.0,0.011664044143949504
3028.0,0.011530229790124524
3027.0,0.011396456654336085
3026.0,0.011262724711199823
3025.0,0.01117359295472431
3024.0,0.01117359295472431
3023.0,0.01117359295472431
3022.0,0.011129033935354915
3021.0,0.011084479487313281
3020.0,0.010995384301463185
3019.0,0.010906307389674463
3018.0,0.010817248744452446
3017.0,0.01077272626946324
3016.0,0.010683695010048622
3015.0,0.010594681998483901
3014.0,0.010550182333308289
3013.0,0.010550182333308289
3012.0,0.010550182333308289
3011.0,0.010505687227290839
3010.0,0.01046119667949763
3009.0,0.010416710688994968
3008.0,0.010327752376126709
3007.0,0.01023881228122181
3006.0,0.010149890396819572
3005.0,0.010105436281226954
3004.0,0.01001654169860089
3003.0,0.009972101229705377
3002.0,0.009927665307847056
3001.0,0.009927665307847056
3000.0,0.009883233932095559
2999.0,0.009838807101520963
2998.0,0.009794384815193347
2997.0,0.009794384815193347
2996.0,0.009705553871561357
2995.0,0.00966114521239847
2994.0,0.009572341514736404
2993.0,0.009527946474380489
2992.0,0.009527946474380489
2991.0,0.009572341514736404
2990.0,0.00966114521239847
2989.0,0.00974996707218323
2988.0,0.009838807101520963
2987.0,0.009927665307847056
2986.0,0.01001654169860089
2985.0,0.010149890396819572
2984.0,0.01023881228122181
2983.0,0.01037222925484893
2982.0,0.010505687227290839
2981.0,0.010683695010048622
2980.0,0.010950843561779777
2979.0,0.01117359295472431
2978.0,0.011441043121384498
2977.0,0.011708658092512314
2976.0,0.012065734767841452
2975.0,0.012512493866907004
2974.0,0.013004460275618523
2973.0,0.013541787262693505
2972.0,0.014124642691606404
2971.0,0.014753209197138295
2970.0,0.015427684378367834
2969.0,0.016148281008528276
2968.0,0.016870075265299933
2967.0,0.017638298366853045
2966.0,0.01845319495476394
2965.0,0.019269623464054586
2964.0,0.019996628416253603
2963.0,0.020724852408976924
2962.0,0.021363051615525652
2961.0,0.02200219004126036
2960.0,0.022642270454698687
2959.0,0.023283295636617574
2958.0,0.023741750742954926
2957.0,0.024154774532432866
2956.0,0.024430342106337877
2955.0,0.024706084643793647
2954.0,0.02498200236711723
2953.0,0.025258095499050004
2952.0,0.025488307262671706
2951.0,0.025810808881832736
2950.0,0.026225806029419818
2949.0,0.02677975314776626
2948.0,0.027612000892527133
2947.0,0.02872415126189476
2946.0,0.030071810571884017
2945.0,0.03170388495374454
2944.0,0.03362357691107709
2943.0,0.03578752703018084
2942.0,0.03824678581321739
2941.0,0.041006334969674096
2940.0,0.04402377775167454
2939.0,0.04730440041308315
2938.0,0.050902874887084115
2937.0,0.054876229877880656
2936.0,0.05918479134919874
2935.0,0.06378795567975115
2934.0,0.06864384953207203
2933.0,0.07376047895413773
2932.0,0.07914650387874067
2931.0,0.08496970974083906
2930.0,0.09130056764777605
2929.0,0.09805153492691598
2928.0,0.10529634739076998
2927.0,0.11311464101399138
2926.0,0.12153565465853111
2925.0,0.1305922506177981
2924.0,0.1404414273739465
2923.0,0.15113378850522063
2922.0,0.16253782851400533
2921.0,0.1742494186519723
2920.0,0.18575240426807982
2919.0,0.19620159201032594
2918.0,0.20446755728984556
2917.0,0.20915209603456808
2916.0,0.20957408260888943
2915.0,0.20579088365350362
2914.0,0.198596289982645
2913.0,0.18943147078358713
2912.0,0.17966715510059017
2911.0,0.17024608107502504
2910.0,0.16152872092807113
2909.0,0.1537866361206126
2908.0,0.14697138528701026
2907.0,0.14110204276799654
2906.0,0.13584504399797437
2905.0,0.13123804178794973
2904.0,0.12714475529518965
2903.0,0.12355121312165873
2902.0,0.1203880929341492
2901.0,0.1175323851046286
2900.0,0.114865033936566
2899.0,0.11243895906999102
2898.0,0.11008231656379408
2897.0,0.10773839308446487
2896.0,0.10540705207704448
2895.0,0.10308815917397474
2894.0,0.10061729446673495
2893.0,0.09816040794877057
2892.0,0.09571734235437201
2891.0,0.09328794305703592
2890.0,0.09087205801073917
2889.0,0.08841629901892434
2888.0,0.08586848736910624
2887.0,0.08328292240118751
2886.0,0.08066036321258663
2885.0,0.07805354577058976
2884.0,0.07556563645676939
2883.0,0.07314329105030759
2882.0,0.07073438174693436
2881.0,0.068389593637038
2880.0,0.06610796423578891
2879.0,0.06388856832514578
2878.0,0.061880730805688344
2877.0,0.060081579630943294
2876.0,0.058538260652670315
2875.0,0.057198533682059516
2874.0,0.05606053552778367
2873.0,0.05502409158795207
2872.0,0.054088483180726676
2871.0,0.05325306496641513
2870.0,0.05266432405126009
2869.0,0.05222329153526162
2868.0,0.05197846685889629
2867.0,0.05207638016827354
2866.0,0.05256627811294923
2865.0,0.053596866100945384
2864.0,0.055270639696704205
2863.0,0.0575950591438934
2862.0,0.06068046892176193
2861.0,0.06449273417528723
2860.0,0.06925467168888666
2859.0,0.07499749231902242
2858.0,0.08186477383364066
2857.0,0.08990945440593179
2856.0,0.09941441335003853
2855.0,0.11053021603049262
2854.0,0.12349349573411894
2853.0,0.13822670328130693
2852.0,0.15397232463562127
2851.0,0.16921892439363884
2850.0,0.1812464095022832
2849.0,0.18762148884580565
2848.0,0.18688624599210146
2847.0,0.17992996568767428
2846.0,0.16877030613293664
2845.0,0.15577141869837208
2844.0,0.1427881576831076
2843.0,0.1306509192409071
2842.0,0.11975822410451964
2841.0,0.11013827874181148
2840.0,0.10182351650232357
2839.0,0.09474395125154866
2838.0,0.08862929288386212
2837.0,0.08344078069888616
2836.0,0.07893810920972144
2835.0,0.07499749231902242
2834.0,0.07160414774328627
2833.0,0.06859298644342648
2832.0,0.0659562809644747
2831.0,0.06358680028852026
2830.0,0.06148027482350815
2829.0,0.0595831353183347
2828.0,0.05779345772290467
2827.0,0.05610995175152733
2826.0,0.05458065739693696
2825.0,0.0531548860393769
2824.0,0.05188057561946402
2823.0,0.05065879322950262
2822.0,0.04953778109440221
2821.0,0.048468209457651845
2820.0,0.04744970610179822
2819.0,0.046481918555007384
2818.0,0.045612749855485024
2817.0,0.04488976902944808
2816.0,0.044167989767578186
2815.0,0.043495409683302455
2814.0,0.042775942156833
2813.0,0.04200982159316968
2812.0,0.04129280891271536
2811.0,0.040672354027829094
2810.0,0.040005161671583744
2809.0,0.039338992729018196
2808.0,0.038673844065289176
2807.0,0.038057116858612794
2806.0,0.03753595394209874
2805.0,0.037062711569998186
2804.0,0.03663723389626394
2803.0,0.03625938114211591
2802.0,0.03592902944204468
2801.0,0.035646070707806565
2800.0,0.03526907894637077
2799.0,0.03489241415094413
2798.0,0.03442204208947208
2797.0,0.033952178923546183
2796.0,0.033482823553208085
2795.0,0.033060836978886954
2794.0,0.03263926003405038
2793.0,0.032218091924200776
2792.0,0.03184406285002961
2791.0,0.03151705144606498
2790.0,0.031236951802751545
2789.0,0.030957032694186815
2788.0,0.03063068826647264
2787.0,0.03025802323714588
2786.0,0.029885677714903025
2785.0,0.029513651152349718
2784.0,0.029141943003497595
2783.0,0.028816959143838528
2782.0,0.028538594975413334
2781.0,0.028353117935693284
2780.0,0.028167720075074953
2779.0,0.02798240132598462
2778.0,0.027750864037404455
2777.0,0.02751945012352408
2776.0,0.027288159452933503
2775.0,0.02710321556345563
2774.0,0.02691835039863255
2773.0,0.026733563891471412
2772.0,0.026502691267936695
2771.0,0.026271941311972746
2770.0,0.026041313893296225
2769.0,0.025902996205869
2768.0,0.025764722556973707
2767.0,0.02562649291857677
2766.0,0.02544225514642018
2765.0,0.02516604495145991
2764.0,0.024936003904763915
2763.0,0.024660115394541604
2762.0,0.024430342106337877
2761.0,0.024200690320592466
2760.0,0.02406295751688936
2759.0,0.023925268380126097
2758.0,0.023787622882622816
2757.0,0.02365002099672653
2756.0,0.02355831062115543
2755.0,0.02351246269481
2754.0,0.02355831062115543
2753.0,0.02351246269481
2752.0,0.02342078135989012
2751.0,0.023283295636617574
2750.0,0.023100049017062307
2749.0,0.02296266477531872
2748.0,0.02282532397981263
2747.0,0.022733787572707387
2746.0,0.022688026603074007
2745.0,0.02259651912656535
2744.0,0.022505030926963654
2743.0,0.022413561996148967
2742.0,0.022322112326006227
2741.0,0.0221849739168134
2740.0,0.022139270735302752
2739.0,0.022093572362881675
2738.0,0.02204787879853809
2737.0,0.02204787879853809
2736.0,0.021956506090037076
2735.0,0.021819483062586187
2734.0,0.02168250325324883
2733.0,0.02159120737696063
2732.0,0.021545566634771474
2731.0,0.021545566634771474
2730.0,0.021499930688540836
2729.0,0.02140867317992523
2728.0,0.021271822861508305
2727.0,0.021089422824428272
2726.0,0.0209982515252789
2725.0,0.020907099361673565
2724.0,0.02081596632558158
2723.0,0.020770406977844713
2722.0,0.020633757603838898
2721.0,0.020542681902151694
2720.0,0.02045162529590483
2719.0,0.02036058777709271
2718.0,0.02026956933771462
2717.0,0.02022406727031445
2716.0,0.02013307743509718
2715.0,0.020087589665283012
2714.0,0.019996628416253603
2713.0,0.01995115493504329
2712.0,0.01990568621470623
2711.0,0.019860222254245663
2710.0,0.019814763052665052
2709.0,0.019723858922159776
2708.0,0.01958753839310856
2707.0,0.01949668180660491
2706.0,0.019360432556262852
2705.0,0.0192242260373785
2704.0,0.0190880622231564
2703.0,0.01899731005860028
2702.0,0.018951941086827073
2701.0,0.018951941086827073
2700.0,0.018951941086827073
2699.0,0.018951941086827073
2698.0,0.01899731005860028
2697.0,0.01899731005860028
2696.0,0.018951941086827073
2695.0,0.018861217359339655
2694.0,0.018679826740892747
2693.0,0.018543833477873584
2692.0,0.01845319495476394
2691.0,0.01840788278591865
2690.0,0.01845319495476394
2689.0,0.01845319495476394
2688.0,0.01840788278591865
2687.0,0.018362575344230914
2686.0,0.018271974638383703
2685.0,0.018226681372252695
2684.0,0.018181392829336396
2683.0,0.018181392829336396
2682.0,0.018181392829336396
2681.0,0.018226681372252695
2680.0,0.018181392829336396
2679.0,0.018136109008649592
2678.0,0.01809082990920774
2677.0,0.01809082990920774
2676.0,0.018136109008649592
2675.0,0.018136109008649592
2674.0,0.018136109008649592
2673.0,0.01809082990920774
2672.0,0.01800028587012159
2671.0,0.017955020928509757
2670.0,0.017909760704207134
2669.0,0.017909760704207134
2668.0,0.017909760704207134
2667.0,0.017864505196230507
2666.0,0.01781925440359733
2665.0,0.01781925440359733
2664.0,0.01781925440359733
2663.0,0.01781925440359733
2662.0,0.01781925440359733
2661.0,0.017774008325325275
2660.0,0.017774008325325275
2659.0,0.017728766960431575
2658.0,0.017638298366853045
2657.0,0.01759307113620534
2656.0,0.017547848615010242
2655.0,0.017502630802287644
2654.0,0.017412209298337533
2653.0,0.017367005605150476
2652.0,0.01727661233145472
2651.0,0.017231422748988034
2650.0,0.017186237868137555
2649.0,0.017095882207371904
2648.0,0.017095882207371904
2647.0,0.017095882207371904
2646.0,0.017141057687924732
2645.0,0.017186237868137555
2644.0,0.017186237868137555
2643.0,0.017186237868137555
2642.0,0.017141057687924732
2641.0,0.017095882207371904
2640.0,0.017050711425501408
2639.0,0.017005545341335804
2638.0,0.016960383953898095
2637.0,0.016915227262211507
2636.0,0.016824927962187042
2635.0,0.01677978535189717
2634.0,0.016734647433454652
2633.0,0.016734647433454652
2632.0,0.016689514205884493
2631.0,0.016644385668211692
2630.0,0.016599261819461697
2629.0,0.016509028184833463
2628.0,0.01646391839700767
2627.0,0.016509028184833463
2626.0,0.016554142658660398
2625.0,0.016554142658660398
2624.0,0.016509028184833463
2623.0,0.016373712875465518
2622.0,0.016238439713835096
2621.0,0.016103208673694303
2620.0,0.016013078034810446
2619.0,0.016013078034810446
2618.0,0.01596801972881945
2617.0,0.015877917138889863
2616.0,0.01578783323856614
2615.0,0.015652742414136167
2614.0,0.015562705203923999
2613.0,0.015517693597737248
2612.0,0.01547268665620738
2611.0,0.01547268665620738
2610.0,0.015427684378367834
2609.0,0.01538268676325183
2608.0,0.015292705517326866
2607.0,0.015247721884586563
2606.0,0.015157768594724175
2605.0,0.015157768594724175
2604.0,0.015157768594724175
2603.0,0.015157768594724175
2602.0,0.015112798935672522
2601.0,0.015022873584506602
2600.0,0.014932966849499074
2599.0,0.014843078722943437
2598.0,0.014708281407112
2597.0,0.014618439768003144
2596.0,0.01452861671041239
2595.0,0.0144837121472845
2594.0,0.0144837121472845
2593.0,0.0144837121472845
2592.0,0.014573525916998342
2591.0,0.014573525916998342
2590.0,0.01452861671041239
2589.0,0.0144837121472845
2588.0,0.014393916947563534
2587.0,0.014304140310157809
2586.0,0.014259258949925524
2585.0,0.014214382227394795
2584.0,0.014124642691606404
2583.0,0.014079779876432497
2582.0,0.013990068146738865
2581.0,0.013945219230304673
2580.0,0.013900374944870508
2579.0,0.013900374944870508
2578.0,0.01385553528947936
2577.0,0.013765869865004277
2576.0,0.01372104409400876
2575.0,0.01372104409400876
2574.0,0.01372104409400876
2573.0,0.013676222949234651
2572.0,0.013631406429727155
2571.0,0.013541787262693505
2570.0,0.013496984613259544
2569.0,0.013452186585275916
2568.0,0.013452186585275916
2567.0,0.013407393177789162
2566.0,0.013407393177789162
2565.0,0.013407393177789162
2564.0,0.013452186585275916
2563.0,0.013407393177789162
2562.0,0.013362604389846044
2561.0,0.013317820220494436
2560.0,0.013273040668781544
2559.0,0.013273040668781544
2558.0,0.013317820220494436
2557.0,0.013273040668781544
2556.0,0.01318349541446362
2555.0,0.013049212141483357
2554.0,0.012959713020733288
2553.0,0.012959713020733288
2552.0,0.013004460275618523
2551.0,0.013004460275618523
2550.0,0.012959713020733288
2549.0,0.012914970375878188
2548.0,0.012870232340102872
2547.0,0.012914970375878188
2546.0,0.012914970375878188
2545.0,0.012914970375878188
2544.0,0.012825498912458322
2543.0,0.012691326268817527
2542.0,0.01264661126420652
2541.0,0.01260190086298274
2540.0,0.01264661126420652
2539.0,0.01264661126420652
2538.0,0.01264661126420652
2537.0,0.012557195064198723
2536.0,0.012557195064198723
2535.0,0.012512493866907004
2534.0,0.012512493866907004
2533.0,0.012467797270160563
2532.0,0.012423105273012602
2531.0,0.012423105273012602
2530.0,0.012423105273012602
2529.0,0.012467797270160563
2528.0,0.012512493866907004
2527.0,0.012467797270160563
2526.0,0.012378417874516323
2525.0,0.012333735073725371
2524.0,0.012289056869694281
2523.0,0.012244383261476699
2522.0,0.012244383261476699
2521.0,0.012199714248127602
2520.0,0.012199714248127602
2519.0,0.01215504982870197
2518.0,0.01215504982870197
2517.0,0.01215504982870197
2516.0,0.012065734767841452
2515.0,0.012021084124518078
2514.0,0.011931796607364653
2513.0,0.011931796607364653
2512.0,0.011931796607364653
2511.0,0.011931796607364653
2510.0,0.011931796607364653
2509.0,0.011887159731648111
2508.0,0.011887159731648111
2507.0,0.011842527443247208
2506.0,0.011797899741219142
2505.0,0.011753276624621556
2504.0,0.011708658092512314
2503.0,0.011664044143949504
2502.0,0.011619434777991433
2501.0,0.011619434777991433
2500.0,0.011619434777991433
2499.0,0.011664044143949504
2498.0,0.011664044143949504
2497.0,0.011619434777991433
2496.0,0.011574829993696856
2495.0,0.011530229790124524
2494.0,0.011530229790124524
2493.0,0.011574829993696856
2492.0,0.011574829993696856
2491.0,0.011574829993696856
2490.0,0.011619434777991433
2489.0,0.011619434777991433
2488.0,0.011619434777991433
2487.0,0.011574829993696856
2486.0,0.011530229790124524
2485.0,0.011485634166333858
2484.0,0.011441043121384498
2483.0,0.011441043121384498
2482.0,0.011396456654336085
2481.0,0.011351874764248926
2480.0,0.011307297450183107
2479.0,0.011218156546359825
2478.0,0.01117359295472431
2477.0,0.01117359295472431
2476.0,0.011218156546359825
2475.0,0.011262724711199823
2474.0,0.011262724711199823
2473.0,0.011262724711199823
2472.0,0.011262724711199823
2471.0,0.011218156546359825
2470.0,0.011218156546359825
2469.0,0.011218156546359825
2468.0,0.011262724711199823
2467.0,0.011262724711199823
2466.0,0.011262724711199823
2465.0,0.011218156546359825
2464.0,0.011218156546359825
2463.0,0.01117359295472431
2462.0,0.011129033935354915
2461.0,0.011039929609661936
2460.0,0.010995384301463185
2459.0,0.010906307389674463
2458.0,0.01086177578421088
2457.0,0.010817248744452446
2456.0,0.010817248744452446
2455.0,0.01086177578421088
2454.0,0.01086177578421088
2453.0,0.010906307389674463
2452.0,0.010950843561779777
2451.0,0.010950843561779777
2450.0,0.010995384301463185
2449.0,0.011039929609661936
2448.0,0.011084479487313281
2447.0,0.011084479487313281
2446.0,0.011039929609661936
2445.0,0.010995384301463185
2444.0,0.010950843561779777
2443.0,0.010950843561779777
2442.0,0.010950843561779777
2441.0,0.010906307389674463
2440.0,0.01086177578421088
2439.0,0.010817248744452446
2438.0,0.010728208358306901
2437.0,0.010683695010048622
2436.0,0.010683695010048622
2435.0,0.010728208358306901
2434.0,0.010728208358306901
2433.0,0.010728208358306901
2432.0,0.010683695010048622
2431.0,0.010683695010048622
2430.0,0.010728208358306901
2429.0,0.01077272626946324
2428.0,0.01077272626946324
2427.0,0.010817248744452446
2426.0,0.01077272626946324
2425.0,0.010728208358306901
2424.0,0.010683695010048622
2423.0,0.010683695010048622
2422.0,0.010728208358306901
2421.0,0.01077272626946324
2420.0,0.010817248744452446
2419.0,0.010906307389674463
2418.0,0.010950843561779777
2417.0,0.010950843561779777
2416.0,0.01086177578421088
2415.0,0.01077272626946324
2414.0,0.010728208358306901
2413.0,0.010728208358306901
2412.0,0.010683695010048622
2411.0,0.010683695010048622
2410.0,0.010639186223752484
2409.0,0.010639186223752484
2408.0,0.010639186223752484
2407.0,0.010639186223752484
2406.0,0.010683695010048622
2405.0,0.010683695010048622
2404.0,0.010728208358306901
2403.0,0.010728208358306901
2402.0,0.010683695010048622
2401.0,0.010639186223752484
2400.0,0.010594681998483901
2399.0,0.010639186223752484
2398.0,0.010683695010048622
2397.0,0.010683695010048622
2396.0,0.010639186223752484
2395.0,0.010550182333308289
2394.0,0.01046119667949763
2393.0,0.010416710688994968
2392.0,0.010416710688994968
2391.0,0.01046119667949763
2390.0,0.01046119667949763
2389.0,0.01046119667949763
2388.0,0.01046119667949763
2387.0,0.010416710688994968
2386.0,0.010327752376126709
2385.0,0.01023881228122181
2384.0,0.010105436281226954
2383.0,0.009883233932095559
2382.0,0.009616741093766423
2381.0,0.009306039320248427
2380.0,0.008995559669244813
2379.0,0.008685301823389224
2378.0,0.008419542825660153
2377.0,0.008198201155356077
2376.0,0.007976972236149349
2375.0,0.007800070204414977
2374.0,0.007711646202907652
2373.0,0.007800070204414977
2372.0,0.008109696063975047
2371.0,0.008552401996197112
2370.0,0.008951223547323472
2369.0,0.009172949432521227
2368.0,0.009128595198514056
2367.0,0.008818242332126802
2366.0,0.008419542825660153
2365.0,0.008286724286910463
2364.0,0.008463824699968647
2363.0,0.008640997362049818
2362.0,0.00850811108984062
2361.0,0.008242460465651913
2360.0,0.008153946355103248
2359.0,0.008375265465994541
2358.0,0.008818242332126802
2357.0,0.009306039320248427
2356.0,0.009483555971770974
2355.0,0.009217308196862062
2354.0,0.0087296108049002
2353.0,0.008419542825660153
2352.0,0.008375265465994541
2351.0,0.008242460465651913
2350.0,0.008065450281052211
2349.0,0.008109696063975047
2348.0,0.008330992620051436
2347.0,0.008640997362049818
2346.0,0.008862564879688284
2345.0,0.008995559669244813
2344.0,0.009039900317800775
2343.0,0.00908424549391551
2342.0,0.00908424549391551
2341.0,0.008862564879688284
2340.0,0.008375265465994541
2339.0,0.008021209005416363
2338.0,0.007800070204414977
2337.0,0.007711646202907652
2336.0,0.00762324020119709
2335.0,0.0075790439479759275
2334.0,0.007667440952535687
2333.0,0.007844288957383316
2332.0,0.007844288957383316
2331.0,0.007711646202907652
2330.0,0.00762324020119709
2329.0,0.007711646202907652
2328.0,0.007844288957383316
2327.0,0.008021209005416363
2326.0,0.008242460465651913
2325.0,0.00850811108984062
2324.0,0.0087296108049002
2323.0,0.008862564879688284
2322.0,0.008906891951112605
2321.0,0.008862564879688284
2320.0,0.0087296108049002
2319.0,0.008463824699968647
2318.0,0.008198201155356077
2317.0,0.008109696063975047
2316.0,0.008242460465651913
2315.0,0.008596697419959609
2314.0,0.008906891951112605
2313.0,0.009128595198514056
2312.0,0.009172949432521227
2311.0,0.00908424549391551
2310.0,0.008906891951112605
2309.0,0.0087296108049002
2308.0,0.008640997362049818
2307.0,0.008596697419959609
2306.0,0.008685301823389224
2305.0,0.008773924307505121
2304.0,0.008906891951112605
2303.0,0.009039900317800775
2302.0,0.009172949432521227
2301.0,0.009261671492462709
2300.0,0.009306039320248427
2299.0,0.00939478857608056
2298.0,0.009527946474380489
2297.0,0.00966114521239847
2296.0,0.00974996707218323
2295.0,0.00974996707218323
2294.0,0.009705553871561357
2293.0,0.00966114521239847
2292.0,0.009616741093766423
2291.0,0.00966114521239847
2290.0,0.009705553871561357
2289.0,0.00974996707218323
2288.0,0.009838807101520963
2287.0,0.009927665307847056
2286.0,0.010060986715464404
2285.0,0.010194349063173958
2284.0,0.010283280051895272
2283.0,0.010327752376126709
2282.0,0.010327752376126709
2281.0,0.010327752376126709
2280.0,0.010283280051895272
2279.0,0.010283280051895272
2278.0,0.010283280051895272
2277.0,0.010327752376126709
2276.0,0.010327752376126709
2275.0,0.010327752376126709
2274.0,0.010283280051895272
2273.0,0.010194349063173958
2272.0,0.010149890396819572
2271.0,0.010105436281226954
2270.0,0.010060986715464404
2269.0,0.010105436281226954
2268.0,0.010194349063173958
2267.0,0.010283280051895272
2266.0,0.01037222925484893
2265.0,0.01037222925484893
2264.0,0.010327752376126709
2263.0,0.010283280051895272
2262.0,0.010327752376126709
2261.0,0.01037222925484893
2260.0,0.01037222925484893
2259.0,0.010283280051895272
2258.0,0.010149890396819572
2257.0,0.010060986715464404
2256.0,0.01001654169860089
2255.0,0.009972101229705377
2254.0,0.009972101229705377
2253.0,0.01001654169860089
2252.0,0.010060986715464404
2251.0,0.010105436281226954
2250.0,0.010105436281226954
2249.0,0.010105436281226954
2248.0,0.010105436281226954
2247.0,0.010105436281226954
2246.0,0.010060986715464404
2245.0,0.010060986715464404
2244.0,0.010105436281226954
2243.0,0.010194349063173958
2242.0,0.010283280051895272
2241.0,0.010327752376126709
2240.0,0.010327752376126709
2239.0,0.01023881228122181
2238.0,0.010194349063173958
2237.0,0.010105436281226954
2236.0,0.010105436281226954
2235.0,0.010105436281226954
2234.0,0.010105436281226954
2233.0,0.010149890396819572
2232.0,0.010149890396819572
2231.0,0.010194349063173958
2230.0,0.010194349063173958
2229.0,0.010194349063173958
2228.0,0.010105436281226954
2227.0,0.010060986715464404
2226.0,0.010060986715464404
2225.0,0.010060986715464404
2224.0,0.010060986715464404
2223.0,0.010105436281226954
2222.0,0.010149890396819572
2221.0,0.010194349063173958
2220.0,0.010194349063173958
2219.0,0.010194349063173958
2218.0,0.010194349063173958
2217.0,0.010194349063173958
2216.0,0.010283280051895272
2215.0,0.010283280051895272
2214.0,0.010194349063173958
2213.0,0.010105436281226954
2212.0,0.010060986715464404
2211.0,0.01001654169860089
2210.0,0.010105436281226954
2209.0,0.010194349063173958
2208.0,0.010283280051895272
2207.0,0.010283280051895272
2206.0,0.010194349063173958
2205.0,0.010105436281226954
2204.0,0.01001654169860089
2203.0,0.009972101229705377
2202.0,0.01001654169860089
2201.0,0.010105436281226954
2200.0,0.010194349063173958
2199.0,0.01023881228122181
2198.0,0.01023881228122181
2197.0,0.010283280051895272
2196.0,0.010283280051895272
2195.0,0.010283280051895272
2194.0,0.010283280051895272
2193.0,0.01023881228122181
2192.0,0.01023881228122181
2191.0,0.01023881228122181
2190.0,0.010283280051895272
2189.0,0.01023881228122181
2188.0,0.010194349063173958
2187.0,0.010105436281226954
2186.0,0.010060986715464404
2185.0,0.010060986715464404
2184.0,0.010105436281226954
2183.0,0.010149890396819572
2182.0,0.010149890396819572
2181.0,0.010149890396819572
2180.0,0.010149890396819572
2179.0,0.010194349063173958
2178.0,0.010283280051895272
2177.0,0.010283280051895272
2176.0,0.010283280051895272
2175.0,0.01023881228122181
2174.0,0.010149890396819572
2173.0,0.010149890396819572
2172.0,0.010149890396819572
2171.0,0.01023881228122181
2170.0,0.010283280051895272
2169.0,0.010283280051895272
2168.0,0.01023881228122181
2167.0,0.010194349063173958
2166.0,0.010194349063173958
2165.0,0.010194349063173958
2164.0,0.01023881228122181
2163.0,0.010283280051895272
2162.0,0.010327752376126709
2161.0,0.010416710688994968
2160.0,0.01046119667949763
2159.0,0.010416710688994968
2158.0,0.010327752376126709
2157.0,0.010283280051895272
2156.0,0.010283280051895272
2155.0,0.010327752376126709
2154.0,0.01037222925484893
2153.0,0.010416710688994968
2152.0,0.010416710688994968
2151.0,0.010416710688994968
2150.0,0.01037222925484893
2149.0,0.01037222925484893
2148.0,0.010327752376126709
2147.0,0.010283280051895272
2146.0,0.010283280051895272
2145.0,0.010283280051895272
2144.0,0.010283280051895272
2143.0,0.010327752376126709
2142.0,0.01037222925484893
2141.0,0.01037222925484893
2140.0,0.010327752376126709
2139.0,0.010283280051895272
2138.0,0.01023881228122181
2137.0,0.010283280051895272
2136.0,0.010327752376126709
2135.0,0.010327752376126709
2134.0,0.010327752376126709
2133.0,0.010283280051895272
2132.0,0.01023881228122181
2131.0,0.010194349063173958
2130.0,0.010194349063173958
2129.0,0.010194349063173958
2128.0,0.01023881228122181
2127.0,0.010283280051895272
2126.0,0.01023881228122181
2125.0,0.010194349063173958
2124.0,0.010194349063173958
2123.0,0.010149890396819572
2122.0,0.010105436281226954
2121.0,0.010105436281226954
2120.0,0.010149890396819572
2119.0,0.010149890396819572
2118.0,0.010194349063173958
2117.0,0.010149890396819572
2116.0,0.010105436281226954
2115.0,0.010105436281226954
2114.0,0.010105436281226954
2113.0,0.010149890396819572
2112.0,0.010194349063173958
2111.0,0.010194349063173958
2110.0,0.01023881228122181
2109.0,0.01023881228122181
2108.0,0.010283280051895272
2107.0,0.01023881228122181
2106.0,0.010149890396819572
2105.0,0.010105436281226954
2104.0,0.010105436281226954
2103.0,0.010149890396819572
2102.0,0.01023881228122181
2101.0,0.010283280051895272
2100.0,0.010327752376126709
2099.0,0.010283280051895272
2098.0,0.01023881228122181
2097.0,0.010149890396819572
2096.0,0.010149890396819572
2095.0,0.010194349063173958
2094.0,0.01023881228122181
2093.0,0.010283280051895272
2092.0,0.010283280051895272
2091.0,0.010283280051895272
2090.0,0.010327752376126709
2089.0,0.01037222925484893
2088.0,0.010416710688994968
2087.0,0.01037222925484893
2086.0,0.01037222925484893
2085.0,0.01037222925484893
2084.0,0.010416710688994968
2083.0,0.010505687227290839
2082.0,0.010594681998483901
2081.0,0.010639186223752484
2080.0,0.010594681998483901
2079.0,0.010505687227290839
2078.0,0.010416710688994968
2077.0,0.01037222925484893
2076.0,0.010327752376126709
2075.0,0.01023881228122181
2074.0,0.010194349063173958
2073.0,0.010194349063173958
2072.0,0.01023881228122181
2071.0,0.010283280051895272
2070.0,0.010327752376126709
2069.0,0.01037222925484893
2068.0,0.01037222925484893
2067.0,0.01037222925484893
2066.0,0.01037222925484893
2065.0,0.01037222925484893
2064.0,0.010416710688994968
2063.0,0.01046119667949763
2062.0,0.010505687227290839
2061.0,0.010594681998483901
2060.0,0.010639186223752484
2059.0,0.010639186223752484
2058.0,0.010594681998483901
2057.0,0.010505687227290839
2056.0,0.01046119667949763
2055.0,0.010416710688994968
2054.0,0.01046119667949763
2053.0,0.010505687227290839
2052.0,0.010505687227290839
2051.0,0.010550182333308289
2050.0,0.010550182333308289
2049.0,0.010594681998483901
2048.0,0.010639186223752484
2047.0,0.010594681998483901
2046.0,0.010550182333308289
2045.0,0.010550182333308289
2044.0,0.010505687227290839
2043.0,0.01046119667949763
2042.0,0.010505687227290839
2041.0,0.010550182333308289
2040.0,0.010594681998483901
2039.0,0.010594681998483901
2038.0,0.010550182333308289
2037.0,0.010594681998483901
2036.0,0.010639186223752484
2035.0,0.010683695010048622
2034.0,0.010728208358306901
2033.0,0.01077272626946324
2032.0,0.01077272626946324
2031.0,0.01077272626946324
2030.0,0.01077272626946324
2029.0,0.01077272626946324
2028.0,0.01077272626946324
2027.0,0.01077272626946324
2026.0,0.01077272626946324
2025.0,0.010817248744452446
2024.0,0.01086177578421088
2023.0,0.010906307389674463
2022.0,0.010995384301463185
2021.0,0.010995384301463185
2020.0,0.010950843561779777
2019.0,0.010906307389674463
2018.0,0.010817248744452446
2017.0,0.010817248744452446
2016.0,0.010817248744452446
2015.0,0.010817248744452446
2014.0,0.01077272626946324
2013.0,0.01077272626946324
2012.0,0.01077272626946324
2011.0,0.010728208358306901
2010.0,0.010683695010048622
2009.0,0.010639186223752484
2008.0,0.010639186223752484
2007.0,0.010594681998483901
2006.0,0.010505687227290839
2005.0,0.01046119667949763
2004.0,0.010416710688994968
2003.0,0.010416710688994968
2002.0,0.010416710688994968
2001.0,0.010416710688994968
2000.0,0.010416710688994968
1999.0,0.01037222925484893
1998.0,0.010416710688994968
1997.0,0.010505687227290839
1996.0,0.010550182333308289
1995.0,0.010550182333308289
1994.0,0.010505687227290839
1993.0,0.01046119667949763
1992.0,0.01046119667949763
1991.0,0.010505687227290839
1990.0,0.010505687227290839
1989.0,0.010550182333308289
1988.0,0.010550182333308289
1987.0,0.010505687227290839
1986.0,0.01046119667949763
1985.0,0.010416710688994968
1984.0,0.010416710688994968
1983.0,0.01046119667949763
1982.0,0.01046119667949763
1981.0,0.01046119667949763
1980.0,0.010416710688994968
1979.0,0.010327752376126709
1978.0,0.010283280051895272
1977.0,0.01023881228122181
1976.0,0.01023881228122181
1975.0,0.010194349063173958
1974.0,0.01023881228122181
1973.0,0.010283280051895272
1972.0,0.01037222925484893
1971.0,0.010416710688994968
1970.0,0.010416710688994968
1969.0,0.01037222925484893
1968.0,0.010327752376126709
1967.0,0.010327752376126709
1966.0,0.01037222925484893
1965.0,0.01037222925484893
1964.0,0.010416710688994968
1963.0,0.010416710688994968
1962.0,0.010416710688994968
1961.0,0.010416710688994968
1960.0,0.010416710688994968
1959.0,0.01037222925484893
1958.0,0.01037222925484893
1957.0,0.010327752376126709
1956.0,0.010327752376126709
1955.0,0.010327752376126709
1954.0,0.010327752376126709
1953.0,0.010283280051895272
1952.0,0.010283280051895272
1951.0,0.010283280051895272
1950.0,0.010283280051895272
1949.0,0.010283280051895272
1948.0,0.010283280051895272
1947.0,0.010283280051895272
1946.0,0.01023881228122181
1945.0,0.01023881228122181
1944.0,0.010327752376126709
1943.0,0.010416710688994968
1942.0,0.010416710688994968
1941.0,0.01037222925484893
1940.0,0.010327752376126709
1939.0,0.010283280051895272
1938.0,0.010283280051895272
1937.0,0.010283280051895272
1936.0,0.010194349063173958
1935.0,0.010105436281226954
1934.0,0.010060986715464404
1933.0,0.010060986715464404
1932.0,0.010105436281226954
1931.0,0.010149890396819572
1930.0,0.01023881228122181
1929.0,0.010283280051895272
1928.0,0.010283280051895272
1927.0,0.01023881228122181
1926.0,0.010194349063173958
1925.0,0.010194349063173958
1924.0,0.01023881228122181
1923.0,0.010283280051895272
1922.0,0.010283280051895272
1921.0,0.01023881228122181
1920.0,0.010194349063173958
1919.0,0.010149890396819572
1918.0,0.010194349063173958
1917.0,0.010283280051895272
1916.0,0.010283280051895272
1915.0,0.010327752376126709
1914.0,0.010327752376126709
1913.0,0.01037222925484893
1912.0,0.010416710688994968
1911.0,0.010416710688994968
1910.0,0.01037222925484893
1909.0,0.01037222925484893
1908.0,0.010327752376126709
1907.0,0.010327752376126709
1906.0,0.01037222925484893
1905.0,0.01037222925484893
1904.0,0.01037222925484893
1903.0,0.010327752376126709
1902.0,0.010283280051895272
1901.0,0.01023881228122181
1900.0,0.010194349063173958
1899.0,0.010194349063173958
1898.0,0.010194349063173958
1897.0,0.01023881228122181
1896.0,0.010327752376126709
1895.0,0.01037222925484893
1894.0,0.010416710688994968
1893.0,0.010416710688994968
1892.0,0.01037222925484893
1891.0,0.010327752376126709
1890.0,0.010327752376126709
1889.0,0.01037222925484893
1888.0,0.01037222925484893
1887.0,0.010283280051895272
1886.0,0.010194349063173958
1885.0,0.010149890396819572
1884.0,0.010105436281226954
1883.0,0.010060986715464404
1882.0,0.010060986715464404
1881.0,0.010060986715464404
1880.0,0.010060986715464404
1879.0,0.010060986715464404
1878.0,0.01001654169860089
1877.0,0.01001654169860089
1876.0,0.009972101229705377
1875.0,0.009927665307847056
1874.0,0.009883233932095559
1873.0,0.009838807101520963
1872.0,0.009883233932095559
1871.0,0.009883233932095559
1870.0,0.009883233932095559
1869.0,0.009883233932095559
1868.0,0.009883233932095559
1867.0,0.009883233932095559
1866.0,0.009927665307847056
1865.0,0.009972101229705377
1864.0,0.009972101229705377
1863.0,0.009972101229705377
1862.0,0.009927665307847056
1861.0,0.009927665307847056
1860.0,0.009927665307847056
1859.0,0.009927665307847056
1858.0,0.009883233932095559
1857.0,0.009883233932095559
1856.0,0.009838807101520963
1855.0,0.009794384815193347
1854.0,0.009838807101520963
1853.0,0.009838807101520963
1852.0,0.009838807101520963
1851.0,0.009838807101520963
1850.0,0.009838807101520963
1849.0,0.009794384815193347
1848.0,0.009794384815193347
1847.0,0.009794384815193347
1846.0,0.009883233932095559
1845.0,0.009927665307847056
1844.0,0.009972101229705377
1843.0,0.009927665307847056
1842.0,0.009883233932095559
1841.0,0.009838807101520963
1840.0,0.00974996707218323
1839.0,0.009705553871561357
1838.0,0.009705553871561357
1837.0,0.00974996707218323
1836.0,0.009794384815193347
1835.0,0.009794384815193347
1834.0,0.009794384815193347
1833.0,0.009794384815193347
1832.0,0.00974996707218323
1831.0,0.00966114521239847
1830.0,0.009616741093766423
1829.0,0.009616741093766423
1828.0,0.00966114521239847
1827.0,0.009705553871561357
1826.0,0.009705553871561357
1825.0,0.00966114521239847
1824.0,0.009616741093766423
1823.0,0.00966114521239847
1822.0,0.00966114521239847
1821.0,0.009705553871561357
1820.0,0.009705553871561357
1819.0,0.009616741093766423
1818.0,0.009572341514736404
1817.0,0.009527946474380489
1816.0,0.009572341514736404
1815.0,0.009616741093766423
1814.0,0.00966114521239847
1813.0,0.009705553871561357
1812.0,0.009705553871561357
1811.0,0.009705553871561357
1810.0,0.009705553871561357
1809.0,0.009705553871561357
1808.0,0.009705553871561357
1807.0,0.00966114521239847
1806.0,0.009616741093766423
1805.0,0.009572341514736404
1804.0,0.009572341514736404
1803.0,0.009616741093766423
1802.0,0.00966114521239847
1801.0,0.009705553871561357
1800.0,0.00974996707218323
1799.0,0.009705553871561357
1798.0,0.00966114521239847
1797.0,0.009572341514736404
1796.0,0.009572341514736404
1795.0,0.009616741093766423
1794.0,0.009705553871561357
1793.0,0.009838807101520963
1792.0,0.009972101229705377
1791.0,0.009972101229705377
1790.0,0.009972101229705377
1789.0,0.009927665307847056
1788.0,0.009883233932095559
1787.0,0.009838807101520963
1786.0,0.009838807101520963
1785.0,0.009883233932095559
1784.0,0.009883233932095559
1783.0,0.009883233932095559
1782.0,0.009883233932095559
1781.0,0.009927665307847056
1780.0,0.01001654169860089
1779.0,0.01001654169860089
1778.0,0.009972101229705377
1777.0,0.009927665307847056
1776.0,0.009838807101520963
1775.0,0.009794384815193347
1774.0,0.00974996707218323
1773.0,0.009705553871561357
1772.0,0.00974996707218323
1771.0,0.00974996707218323
1770.0,0.009794384815193347
1769.0,0.009883233932095559
1768.0,0.009883233932095559
1767.0,0.009883233932095559
1766.0,0.009838807101520963
1765.0,0.009794384815193347
1764.0,0.009794384815193347
1763.0,0.009794384815193347
1762.0,0.009883233932095559
1761.0,0.009927665307847056
1760.0,0.009972101229705377
1759.0,0.009972101229705377
1758.0,0.009972101229705377
1757.0,0.010060986715464404
1756.0,0.010194349063173958
1755.0,0.010283280051895272
1754.0,0.01037222925484893
1753.0,0.010416710688994968
1752.0,0.010505687227290839
1751.0,0.010550182333308289
1750.0,0.010550182333308289
1749.0,0.010505687227290839
1748.0,0.010550182333308289
1747.0,0.010594681998483901
1746.0,0.010683695010048622
1745.0,0.01077272626946324
1744.0,0.010950843561779777
1743.0,0.011084479487313281
1742.0,0.01117359295472431
1741.0,0.011307297450183107
1740.0,0.011441043121384498
1739.0,0.011530229790124524
1738.0,0.011574829993696856
1737.0,0.011619434777991433
1736.0,0.011530229790124524
1735.0,0.011441043121384498
1734.0,0.011485634166333858
1733.0,0.011664044143949504
1732.0,0.011842527443247208
1731.0,0.012021084124518078
1730.0,0.012199714248127602
1729.0,0.012333735073725371
1728.0,0.012423105273012602
1727.0,0.012557195064198723
1726.0,0.012691326268817527
1725.0,0.012825498912458322
1724.0,0.012959713020733288
1723.0,0.013004460275618523
1722.0,0.013004460275618523
1721.0,0.013049212141483357
1720.0,0.013093968619278806
1719.0,0.013138729709955221
1718.0,0.013273040668781544
1717.0,0.013407393177789162
1716.0,0.013407393177789162
1715.0,0.013407393177789162
1714.0,0.013362604389846044
1713.0,0.013317820220494436
1712.0,0.01322826573375524
1711.0,0.013138729709955221
1710.0,0.013093968619278806
1709.0,0.013049212141483357
1708.0,0.013004460275618523
1707.0,0.012914970375878188
1706.0,0.012870232340102872
1705.0,0.012914970375878188
1704.0,0.013004460275618523
1703.0,0.01318349541446362
1702.0,0.013273040668781544
1701.0,0.013407393177789162
1700.0,0.013452186585275916
1699.0,0.013362604389846044
1698.0,0.013273040668781544
1697.0,0.013317820220494436
1696.0,0.013362604389846044
1695.0,0.013317820220494436
1694.0,0.013273040668781544
1693.0,0.013362604389846044
1692.0,0.013362604389846044
1691.0,0.013362604389846044
1690.0,0.013407393177789162
1689.0,0.013586594534531482
1688.0,0.01381070026317599
1687.0,0.013990068146738865
1686.0,0.014124642691606404
1685.0,0.014438812226654996
1684.0,0.014798141635428141
1683.0,0.014932966849499074
1682.0,0.014977917890464765
1681.0,0.015112798935672522
1680.0,0.015157768594724175
1679.0,0.015247721884586563
1678.0,0.015292705517326866
1677.0,0.015427684378367834
1676.0,0.015607721475734415
1675.0,0.01578783323856614
1674.0,0.015877917138889863
1673.0,0.015922966097169144
1672.0,0.01596801972881945
1671.0,0.016103208673694303
1670.0,0.016418813294209356
1669.0,0.016734647433454652
1668.0,0.016915227262211507
1667.0,0.016960383953898095
1666.0,0.017005545341335804
1665.0,0.017005545341335804
1664.0,0.017095882207371904
1663.0,0.017231422748988034
1662.0,0.017321806616515723
1661.0,0.017321806616515723
1660.0,0.017367005605150476
1659.0,0.017412209298337533
1658.0,0.017457417697056554
1657.0,0.017547848615010242
1656.0,0.017638298366853045
1655.0,0.017638298366853045
1654.0,0.01781925440359733
1653.0,0.018181392829336396
1652.0,0.018136109008649592
1651.0,0.018045555530026514
1650.0,0.01809082990920774
1649.0,0.018045555530026514
1648.0,0.018045555530026514
1647.0,0.018136109008649592
1646.0,0.018181392829336396
1645.0,0.018136109008649592
1644.0,0.018045555530026514
1643.0,0.017955020928509757
1642.0,0.017909760704207134
1641.0,0.017864505196230507
1640.0,0.017774008325325275
1639.0,0.017638298366853045
1638.0,0.017457417697056554
1637.0,0.01727661233145472
1636.0,0.017367005605150476
1635.0,0.017457417697056554
1634.0,0.017502630802287644
1633.0,0.017502630802287644
1632.0,0.017457417697056554
1631.0,0.017321806616515723
1630.0,0.017095882207371904
1629.0,0.016960383953898095
1628.0,0.016870075265299933
1627.0,0.016870075265299933
1626.0,0.016870075265299933
1625.0,0.016824927962187042
1624.0,0.01677978535189717
1623.0,0.016734647433454652
1622.0,0.016644385668211692
1621.0,0.016554142658660398
1620.0,0.016554142658660398
1619.0,0.016509028184833463
1618.0,0.01646391839700767
1617.0,0.016373712875465518
1616.0,0.016193358021584725
1615.0,0.016058141016111804
1614.0,0.015922966097169144
1613.0,0.015877917138889863
1612.0,0.01578783323856614
1611.0,0.015697768020096703
1610.0,0.015652742414136167
1609.0,0.015562705203923999
1608.0,0.015427684378367834
1607.0,0.015337693809893471
1606.0,0.015202742910707112
1605.0,0.015112798935672522
1604.0,0.014977917890464765
1603.0,0.014843078722943437
1602.0,0.014753209197138295
1601.0,0.014663358264387139
1600.0,0.014618439768003144
1599.0,0.014618439768003144
1598.0,0.014618439768003144
1597.0,0.014573525916998342
1596.0,0.01452861671041239
1595.0,0.014438812226654996
1594.0,0.014349026309051105
1593.0,0.014304140310157809
1592.0,0.014259258949925524
1591.0,0.014214382227394795
1590.0,0.014169510141607944
1589.0,0.014079779876432497
1588.0,0.013990068146738865
1587.0,0.013900374944870508
1586.0,0.01381070026317599
1585.0,0.01372104409400876
1584.0,0.013631406429727155
1583.0,0.013586594534531482
1582.0,0.013541787262693505
1581.0,0.013452186585275916
1580.0,0.013362604389846044
1579.0,0.013273040668781544
1578.0,0.01318349541446362
1577.0,0.01322826573375524
1576.0,0.013273040668781544
1575.0,0.013273040668781544
1574.0,0.01322826573375524
1573.0,0.01322826573375524
1572.0,0.01322826573375524
1571.0,0.01318349541446362
1570.0,0.01318349541446362
1569.0,0.013138729709955221
1568.0,0.013093968619278806
1567.0,0.013004460275618523
1566.0,0.012914970375878188
1565.0,0.012870232340102872
1564.0,0.012959713020733288
1563.0,0.013093968619278806
1562.0,0.01322826573375524
1561.0,0.013273040668781544
1560.0,0.013317820220494436
1559.0,0.013452186585275916
1558.0,0.013273040668781544
1557.0,0.013138729709955221
1556.0,0.01322826573375524
1555.0,0.01322826573375524
1554.0,0.01322826573375524
1553.0,0.013138729709955221
1552.0,0.013049212141483357
1551.0,0.012914970375878188
1550.0,0.012870232340102872
1549.0,0.012914970375878188
1548.0,0.013004460275618523
1547.0,0.013049212141483357
1546.0,0.013004460275618523
1545.0,0.012914970375878188
1544.0,0.012914970375878188
1543.0,0.012914970375878188
1542.0,0.012870232340102872
1541.0,0.012959713020733288
1540.0,0.012959713020733288
1539.0,0.01260190086298274
1538.0,0.012378417874516323
1537.0,0.012333735073725371
1536.0,0.012289056869694281
1535.0,0.012199714248127602
1534.0,0.012110390002254778
1533.0,0.012065734767841452
1532.0,0.012021084124518078
1531.0,0.011887159731648111
1530.0,0.011753276624621556
1529.0,0.011708658092512314
1528.0,0.011664044143949504
1527.0,0.011574829993696856
1526.0,0.011485634166333858
1525.0,0.011441043121384498
1524.0,0.011441043121384498
1523.0,0.011351874764248926
1522.0,0.011307297450183107
1521.0,0.011307297450183107
1520.0,0.011262724711199823
1519.0,0.011084479487313281
1518.0,0.010950843561779777
1517.0,0.010906307389674463
1516.0,0.010906307389674463
1515.0,0.010817248744452446
1514.0,0.010728208358306901
1513.0,0.010683695010048622
1512.0,0.010683695010048622
1511.0,0.010594681998483901
1510.0,0.01046119667949763
1509.0,0.01046119667949763
1508.0,0.010639186223752484
1507.0,0.010683695010048622
1506.0,0.010327752376126709
1505.0,0.010149890396819572
1504.0,0.010105436281226954
1503.0,0.010149890396819572
1502.0,0.010149890396819572
1501.0,0.010194349063173958
1500.0,0.010194349063173958
1499.0,0.010105436281226954
1498.0,0.009972101229705377
1497.0,0.009972101229705377
1496.0,0.010060986715464404
1495.0,0.010060986715464404
1494.0,0.010060986715464404
1493.0,0.010149890396819572
1492.0,0.01023881228122181
1491.0,0.01023881228122181
1490.0,0.010149890396819572
1489.0,0.010194349063173958
1488.0,0.010283280051895272
1487.0,0.010327752376126709
1486.0,0.010327752376126709
1485.0,0.010550182333308289
1484.0,0.01077272626946324
1483.0,0.010950843561779777
1482.0,0.011307297450183107
1481.0,0.0119764380713403
1480.0,0.012914970375878188
1479.0,0.014304140310157809
1478.0,0.016960383953898095
1477.0,0.022139270735302752
1476.0,0.030211462585061133
1475.0,0.040481623027001756
1474.0,0.05188057561946402
1473.0,0.06133019897732073
1472.0,0.06489597884855036
1471.0,0.06393888339001164
1470.0,0.06278310913729457
1469.0,0.0627329277885873
1468.0,0.06363708040225546
1467.0,0.06565307326174441
1466.0,0.07001940948448526
1465.0,0.07680780957933253
1464.0,0.08259953204474924
1463.0,0.08402008585977572
1462.0,0.08102656950704579
1461.0,0.07530729697981409
1460.0,0.06828793294324442
1459.0,0.06143024377893891
1458.0,0.055912320584565744
1457.0,0.05217431555754937
1456.0,0.04948910701400333
1455.0,0.04711073508906982
1454.0,0.04474531717982
1453.0,0.04229695845116854
1452.0,0.039909932095080425
1451.0,0.03791491948264003
1450.0,0.03630659476198117
1449.0,0.03498654972775217
1448.0,0.03385826726096752
1447.0,0.03301397488206215
1446.0,0.032311649546687526
1445.0,0.031657169041054534
1444.0,0.031096969696171817
1443.0,0.03063068826647264
1442.0,0.030164906924202484
1441.0,0.02960662792039992
1440.0,0.029002634427514717
1439.0,0.02849221828874393
1438.0,0.02798240132598462
1437.0,0.027426919073445077
1436.0,0.02677975314776626
1435.0,0.02613355016462182
1434.0,0.02539620791296726
1433.0,0.02461415101053266
1432.0,0.023741750742954926
1431.0,0.02291687968414724
1430.0,0.022139270735302752
1429.0,0.021317434843055594
1428.0,0.02058821736556471
1427.0,0.01995115493504329
1426.0,0.01940584422377989
1425.0,0.018906576854070378
1424.0,0.018498511851753108
1423.0,0.018226681372252695
1422.0,0.01800028587012159
1421.0,0.017728766960431575
1420.0,0.017457417697056554
1419.0,0.01727661233145472
1418.0,0.017095882207371904
1417.0,0.016915227262211507
1416.0,0.016734647433454652
1415.0,0.016599261819461697
1414.0,0.01646391839700767
1413.0,0.01632861713980338
1412.0,0.016148281008528276
1411.0,0.016013078034810446
1410.0,0.015877917138889863
1409.0,0.015742798294583915
1408.0,0.015562705203923999
1407.0,0.015427684378367834
1406.0,0.015292705517326866
1405.0,0.015157768594724175
1404.0,0.015067833932588037
1403.0,0.015022873584506602
1402.0,0.014932966849499074
1401.0,0.014798141635428141
1400.0,0.014708281407112
1399.0,0.014708281407112
1398.0,0.014708281407112
1397.0,0.014618439768003144
1396.0,0.0144837121472845
1395.0,0.014438812226654996
1394.0,0.014393916947563534
1393.0,0.014393916947563534
1392.0,0.014349026309051105
1391.0,0.014438812226654996
1390.0,0.01452861671041239
1389.0,0.014618439768003144
1388.0,0.014798141635428141
1387.0,0.015022873584506602
1386.0,0.015247721884586563
1385.0,0.01547268665620738
1384.0,0.015832872853011715
1383.0,0.016418813294209356
1382.0,0.01727661233145472
1381.0,0.018271974638383703
1380.0,0.019315025636685412
1379.0,0.020178569969774962
1378.0,0.02067930261797568
1377.0,0.02067930261797568
1376.0,0.020406104151069693
1375.0,0.02004210665933459
1374.0,0.019860222254245663
1373.0,0.019814763052665052
1372.0,0.019860222254245663
1371.0,0.019996628416253603
1370.0,0.020178569969774962
1369.0,0.020315076172974234
1368.0,0.02026956933771462
1367.0,0.02013307743509718
1366.0,0.019860222254245663
1365.0,0.01954210772389997
1364.0,0.019178833355664393
1363.0,0.018906576854070378
1362.0,0.018679826740892747
1361.0,0.01840788278591865
1360.0,0.01809082990920774
1359.0,0.01781925440359733
1358.0,0.017638298366853045
1357.0,0.017502630802287644
1356.0,0.017412209298337533
1355.0,0.017367005605150476
1354.0,0.017412209298337533
1353.0,0.017457417697056554
1352.0,0.017457417697056554
1351.0,0.017457417697056554
1350.0,0.017367005605150476
1349.0,0.017186237868137555
1348.0,0.016960383953898095
1347.0,0.016734647433454652
1346.0,0.016554142658660398
1345.0,0.016373712875465518
1344.0,0.016238439713835096
1343.0,0.016103208673694303
1342.0,0.016013078034810446
1341.0,0.015922966097169144
1340.0,0.01578783323856614
1339.0,0.015652742414136167
1338.0,0.01547268665620738
1337.0,0.015247721884586563
1336.0,0.014977917890464765
1335.0,0.014753209197138295
1334.0,0.014618439768003144
1333.0,0.0144837121472845
1332.0,0.014349026309051105
1331.0,0.014304140310157809
1330.0,0.014304140310157809
1329.0,0.014304140310157809
1328.0,0.014304140310157809
1327.0,0.014304140310157809
1326.0,0.014304140310157809
1325.0,0.014304140310157809
1324.0,0.014304140310157809
1323.0,0.014304140310157809
1322.0,0.014349026309051105
1321.0,0.014393916947563534
1320.0,0.01452861671041239
1319.0,0.014708281407112
1318.0,0.014932966849499074
1317.0,0.015067833932588037
1316.0,0.015157768594724175
1315.0,0.015202742910707112
1314.0,0.015337693809893471
1313.0,0.015427684378367834
1312.0,0.015562705203923999
1311.0,0.015652742414136167
1310.0,0.015697768020096703
1309.0,0.015697768020096703
1308.0,0.015697768020096703
1307.0,0.015742798294583915
1306.0,0.01578783323856614
1305.0,0.015832872853011715
1304.0,0.015832872853011715
1303.0,0.015877917138889863
1302.0,0.015877917138889863
1301.0,0.015832872853011715
1300.0,0.015742798294583915
1299.0,0.015697768020096703
1298.0,0.015697768020096703
1297.0,0.015652742414136167
1296.0,0.015517693597737248
1295.0,0.01538268676325183
1294.0,0.015202742910707112
1293.0,0.015067833932588037
1292.0,0.014932966849499074
1291.0,0.014843078722943437
1290.0,0.014798141635428141
1289.0,0.014753209197138295
1288.0,0.014753209197138295
1287.0,0.014753209197138295
1286.0,0.014753209197138295
1285.0,0.014708281407112
1284.0,0.014618439768003144
1283.0,0.014573525916998342
1282.0,0.01452861671041239
1281.0,0.0144837121472845
1280.0,0.0144837121472845
1279.0,0.014438812226654996
1278.0,0.014438812226654996
1277.0,0.014438812226654996
1276.0,0.014438812226654996
1275.0,0.014438812226654996
1274.0,0.014438812226654996
1273.0,0.014393916947563534
1272.0,0.014393916947563534
1271.0,0.014438812226654996
1270.0,0.01452861671041239
1269.0,0.01452861671041239
1268.0,0.0144837121472845
1267.0,0.014393916947563534
1266.0,0.014349026309051105
1265.0,0.014349026309051105
1264.0,0.014349026309051105
1263.0,0.014393916947563534
1262.0,0.014393916947563534
1261.0,0.014304140310157809
1260.0,0.014214382227394795
1259.0,0.014169510141607944
1258.0,0.014169510141607944
1257.0,0.014259258949925524
1256.0,0.014259258949925524
1255.0,0.014304140310157809
1254.0,0.014214382227394795
1253.0,0.014124642691606404
1252.0,0.013990068146738865
1251.0,0.013945219230304673
1250.0,0.013945219230304673
1249.0,0.013990068146738865
1248.0,0.014079779876432497
1247.0,0.014169510141607944
1246.0,0.014214382227394795
1245.0,0.014259258949925524
1244.0,0.014259258949925524
1243.0,0.014214382227394795
1242.0,0.014124642691606404
1241.0,0.01403492169512921
1240.0,0.013990068146738865
1239.0,0.013945219230304673
1238.0,0.013990068146738865
1237.0,0.013990068146738865
1236.0,0.013945219230304673
1235.0,0.013945219230304673
1234.0,0.01403492169512921
1233.0,0.014124642691606404
1232.0,0.014214382227394795
1231.0,0.014259258949925524
1230.0,0.014304140310157809
1229.0,0.014349026309051105
1228.0,0.014393916947563534
1227.0,0.014438812226654996
1226.0,0.01452861671041239
1225.0,0.014573525916998342
1224.0,0.014663358264387139
1223.0,0.014798141635428141
1222.0,0.014888020460646079
1221.0,0.014932966849499074
1220.0,0.014977917890464765
1219.0,0.015067833932588037
1218.0,0.015157768594724175
1217.0,0.015247721884586563
1216.0,0.015292705517326866
1215.0,0.015337693809893471
1214.0,0.01538268676325183
1213.0,0.01547268665620738
1212.0,0.015607721475734415
1211.0,0.01578783323856614
1210.0,0.01596801972881945
1209.0,0.016193358021584725
1208.0,0.01632861713980338
1207.0,0.01646391839700767
1206.0,0.016554142658660398
1205.0,0.016599261819461697
1204.0,0.016644385668211692
1203.0,0.01677978535189717
1202.0,0.016870075265299933
1201.0,0.017005545341335804
1200.0,0.017186237868137555
1199.0,0.017367005605150476
1198.0,0.017547848615010242
1197.0,0.017728766960431575
1196.0,0.017909760704207134
1195.0,0.018136109008649592
1194.0,0.01831727262871463
1193.0,0.01840788278591865
1192.0,0.018498511851753108
1191.0,0.018543833477873584
1190.0,0.018679826740892747
1189.0,0.018861217359339655
1188.0,0.019042683770379876
1187.0,0.019178833355664393
1186.0,0.019315025636685412
1185.0,0.019451260640229506
1184.0,0.01954210772389997
1183.0,0.019723858922159776
1182.0,0.019860222254245663
1181.0,0.02004210665933459
1180.0,0.02026956933771462
1179.0,0.020497151212598652
1178.0,0.02067930261797568
1177.0,0.020861530453190058
1176.0,0.0209982515252789
1175.0,0.021089422824428272
1174.0,0.0211806132671577
1173.0,0.02122621566987748
1172.0,0.021317434843055594
1171.0,0.0214542995372613
1170.0,0.021545566634771474
1169.0,0.02159120737696063
1168.0,0.021636852916117055
1167.0,0.02168250325324883
1166.0,0.021773818325474092
1165.0,0.021865152601710403
1164.0,0.02200219004126036
1163.0,0.022139270735302752
1162.0,0.02227639471115217
1161.0,0.022367834754000393
1160.0,0.022413561996148967
1159.0,0.02245929405346514
1158.0,0.02255077261765881
1157.0,0.022642270454698687
1156.0,0.022733787572707387
1155.0,0.02282532397981263
1154.0,0.02291687968414724
1153.0,0.02296266477531872
1152.0,0.02300845469384938
1151.0,0.023054249440757957
1150.0,0.023100049017062307
1149.0,0.023100049017062307
1148.0,0.023100049017062307
1147.0,0.023054249440757957
1146.0,0.02300845469384938
1145.0,0.02300845469384938
1144.0,0.02300845469384938
1143.0,0.023054249440757957
1142.0,0.02300845469384938
1141.0,0.022871099419317753
1140.0,0.022688026603074007
1139.0,0.02259651912656535
1138.0,0.02259651912656535
1137.0,0.02259651912656535
1136.0,0.02259651912656535
1135.0,0.022505030926963654
1134.0,0.02245929405346514
1133.0,0.022413561996148967
1132.0,0.022367834754000393
1131.0,0.022367834754000393
1130.0,0.022367834754000393
1129.0,0.022322112326006227
1128.0,0.02227639471115217
1127.0,0.022230681908425698
1126.0,0.022093572362881675
1125.0,0.02204787879853809
1124.0,0.02200219004126036
1123.0,0.02204787879853809
1122.0,0.022139270735302752
1121.0,0.0221849739168134
1120.0,0.022230681908425698
1119.0,0.02227639471115217
1118.0,0.02227639471115217
1117.0,0.02227639471115217
1116.0,0.02227639471115217
1115.0,0.02227639471115217
1114.0,0.022367834754000393
1113.0,0.02245929405346514
1112.0,0.02255077261765881
1111.0,0.022642270454698687
1110.0,0.022642270454698687
1109.0,0.022642270454698687
1108.0,0.02259651912656535
1107.0,0.02259651912656535
1106.0,0.022642270454698687
1105.0,0.022688026603074007
1104.0,0.022733787572707387
1103.0,0.02277955336461468
1102.0,0.022871099419317753
1101.0,0.022871099419317753
1100.0,0.02291687968414724
1099.0,0.02296266477531872
1098.0,0.023054249440757957
1097.0,0.02314585342378117
1096.0,0.023191662661933732
1095.0,0.023237476732539397
1094.0,0.023283295636617574
1093.0,0.023283295636617574
1092.0,0.023283295636617574
1091.0,0.023329119375188556
1090.0,0.02342078135989012
1089.0,0.023466619608062178
1088.0,0.023466619608062178
1087.0,0.023329119375188556
1086.0,0.023191662661933732
1085.0,0.02296266477531872
1084.0,0.02277955336461468
1083.0,0.022688026603074007
1082.0,0.02255077261765881
1081.0,0.022413561996148967
1080.0,0.02227639471115217
1079.0,0.0221849739168134
1078.0,0.022139270735302752
1077.0,0.022093572362881675
1076.0,0.02200219004126036
1075.0,0.021865152601710403
1074.0,0.021773818325474092
1073.0,0.02168250325324883
1072.0,0.021636852916117055
1071.0,0.021545566634771474
1070.0,0.0214542995372613
1069.0,0.021363051615525652
1068.0,0.0211806132671577
1067.0,0.021043834782408455
1066.0,0.020907099361673565
1065.0,0.020861530453190058
1064.0,0.02081596632558158
1063.0,0.02081596632558158
1062.0,0.020770406977844713
1061.0,0.020724852408976924
1060.0,0.020633757603838898
1059.0,0.020497151212598652
1058.0,0.02036058777709271
1057.0,0.020315076172974234
1056.0,0.020315076172974234
1055.0,0.02036058777709271
1054.0,0.020406104151069693
1053.0,0.020542681902151694
1052.0,0.020724852408976924
1051.0,0.020952673052035298
1050.0,0.021089422824428272
1049.0,0.021089422824428272
1048.0,0.021089422824428272
1047.0,0.0211806132671577
1046.0,0.021317434843055594
1045.0,0.021363051615525652
1044.0,0.021363051615525652
1043.0,0.021363051615525652
1042.0,0.021363051615525652
1041.0,0.02140867317992523
1040.0,0.021545566634771474
1039.0,0.021728158389364705
1038.0,0.021865152601710403
1037.0,0.02200219004126036
1036.0,0.022139270735302752
1035.0,0.02227639471115217
1034.0,0.022413561996148967
1033.0,0.02245929405346514
1032.0,0.022505030926963654
1031.0,0.022505030926963654
1030.0,0.022505030926963654
1029.0,0.022505030926963654
1028.0,0.02255077261765881
1027.0,0.02259651912656535
1026.0,0.022733787572707387
1025.0,0.02282532397981263
1024.0,0.022871099419317753
1023.0,0.02277955336461468
1022.0,0.022688026603074007
1021.0,0.02259651912656535
1020.0,0.022505030926963654
1019.0,0.022413561996148967
1018.0,0.02227639471115217
1017.0,0.02204787879853809
1016.0,0.021819483062586187
1015.0,0.021545566634771474
1014.0,0.021317434843055594
1013.0,0.021089422824428272
1012.0,0.020907099361673565
1011.0,0.02081596632558158
1010.0,0.020724852408976924
1009.0,0.020633757603838898
1008.0,0.020497151212598652
1007.0,0.020406104151069693
1006.0,0.020315076172974234
1005.0,0.02022406727031445
1004.0,0.020087589665283012
1003.0,0.019996628416253603
1002.0,0.019860222254245663
1001.0,0.019723858922159776
1000.0,0.01958753839310856
999.0,0.019451260640229506
998.0,0.019269623464054586
997.0,0.0190880622231564
996.0,0.018951941086827073
995.0,0.018815862601645694
994.0,0.018725167293411005
993.0,0.018634490921455527
992.0,0.018543833477873584
991.0,0.018498511851753108
990.0,0.01840788278591865
989.0,0.01831727262871463
988.0,0.018226681372252695
987.0,0.018136109008649592
986.0,0.017955020928509757
985.0,0.01781925440359733
984.0,0.01768353030793479
983.0,0.017638298366853045
982.0,0.017638298366853045
981.0,0.01759307113620534
980.0,0.017502630802287644
979.0,0.017412209298337533
978.0,0.01727661233145472
977.0,0.017141057687924732
976.0,0.017005545341335804
975.0,0.016870075265299933
974.0,0.016689514205884493
973.0,0.016554142658660398
972.0,0.01646391839700767
971.0,0.016509028184833463
970.0,0.016599261819461697
969.0,0.016554142658660398
968.0,0.016418813294209356
967.0,0.016238439713835096
966.0,0.016058141016111804
965.0,0.015922966097169144
964.0,0.015877917138889863
963.0,0.015832872853011715
962.0,0.015742798294583915
961.0,0.015607721475734415
960.0,0.01547268665620738
959.0,0.015337693809893471
958.0,0.015247721884586563
957.0,0.015247721884586563
956.0,0.015202742910707112
955.0,0.015202742910707112
954.0,0.015157768594724175
953.0,0.015112798935672522
952.0,0.015022873584506602
951.0,0.015022873584506602
950.0,0.014977917890464765
949.0,0.014932966849499074
948.0,0.014843078722943437
947.0,0.014843078722943437
946.0,0.014888020460646079
945.0,0.014888020460646079
944.0,0.014932966849499074
943.0,0.014977917890464765
942.0,0.015022873584506602
941.0,0.015022873584506602
940.0,0.015022873584506602
939.0,0.015022873584506602
938.0,0.015112798935672522
937.0,0.015247721884586563
936.0,0.015427684378367834
935.0,0.015517693597737248
934.0,0.015562705203923999
933.0,0.015562705203923999
932.0,0.015517693597737248
931.0,0.015517693597737248
930.0,0.015607721475734415
929.0,0.015697768020096703
928.0,0.015697768020096703
927.0,0.015697768020096703
926.0,0.015697768020096703
925.0,0.015697768020096703
924.0,0.015742798294583915
923.0,0.01578783323856614
922.0,0.015832872853011715
921.0,0.015877917138889863
920.0,0.015832872853011715
919.0,0.015877917138889863
918.0,0.01596801972881945
917.0,0.016013078034810446
916.0,0.016058141016111804
915.0,0.016103208673694303
914.0,0.016103208673694303
913.0,0.016148281008528276
912.0,0.016193358021584725
911.0,0.016148281008528276
910.0,0.016103208673694303
909.0,0.016013078034810446
908.0,0.015922966097169144
907.0,0.015832872853011715
906.0,0.015742798294583915
905.0,0.015652742414136167
904.0,0.015562705203923999
903.0,0.015517693597737248
902.0,0.015427684378367834
901.0,0.015292705517326866
900.0,0.015157768594724175
899.0,0.015067833932588037
898.0,0.015022873584506602
897.0,0.014977917890464765
896.0,0.014977917890464765
895.0,0.014977917890464765
894.0,0.015022873584506602
893.0,0.015022873584506602
892.0,0.015112798935672522
891.0,0.015292705517326866
890.0,0.015517693597737248
889.0,0.015697768020096703
888.0,0.015742798294583915
887.0,0.015697768020096703
886.0,0.015652742414136167
885.0,0.015697768020096703
884.0,0.015697768020096703
883.0,0.015607721475734415
882.0,0.015517693597737248
881.0,0.015427684378367834
880.0,0.01538268676325183
879.0,0.01538268676325183
878.0,0.015427684378367834
877.0,0.015427684378367834
876.0,0.015427684378367834
875.0,0.015427684378367834
874.0,0.01547268665620738
873.0,0.01547268665620738
872.0,0.015427684378367834
871.0,0.01538268676325183
870.0,0.015427684378367834
869.0,0.015517693597737248
868.0,0.015652742414136167
867.0,0.015832872853011715
866.0,0.015922966097169144
865.0,0.01596801972881945
864.0,0.01596801972881945
863.0,0.015877917138889863
862.0,0.01578783323856614
861.0,0.015742798294583915
860.0,0.015697768020096703
859.0,0.015652742414136167
858.0,0.015562705203923999
857.0,0.01547268665620738
856.0,0.015427684378367834
855.0,0.015517693597737248
854.0,0.015652742414136167
853.0,0.01578783323856614
852.0,0.015877917138889863
851.0,0.01596801972881945
850.0,0.016013078034810446
849.0,0.01596801972881945
848.0,0.015832872853011715
847.0,0.015652742414136167
846.0,0.01547268665620738
845.0,0.015337693809893471
844.0,0.015292705517326866
843.0,0.015202742910707112
842.0,0.015157768594724175
841.0,0.015067833932588037
840.0,0.015022873584506602
839.0,0.015067833932588037
838.0,0.015067833932588037
837.0,0.014977917890464765
836.0,0.014798141635428141
835.0,0.014663358264387139
834.0,0.014573525916998342
833.0,0.014573525916998342
832.0,0.014573525916998342
831.0,0.014618439768003144
830.0,0.014708281407112
829.0,0.014888020460646079
828.0,0.015022873584506602
827.0,0.015112798935672522
826.0,0.015157768594724175
825.0,0.015112798935672522
824.0,0.015022873584506602
823.0,0.014932966849499074
822.0,0.014888020460646079
821.0,0.014932966849499074
820.0,0.015112798935672522
819.0,0.015292705517326866
818.0,0.01547268665620738
817.0,0.015517693597737248
816.0,0.015517693597737248
815.0,0.015517693597737248
814.0,0.015607721475734415
813.0,0.015652742414136167
812.0,0.015607721475734415
811.0,0.015517693597737248
810.0,0.01538268676325183
809.0,0.015427684378367834
808.0,0.015607721475734415
807.0,0.015832872853011715
806.0,0.016103208673694303
805.0,0.016193358021584725
804.0,0.01628352608625061
803.0,0.01632861713980338
802.0,0.016373712875465518
801.0,0.016418813294209356
800.0,0.01646391839700767
799.0,0.016599261819461697
798.0,0.016734647433454652
797.0,0.016915227262211507
796.0,0.017005545341335804
795.0,0.016960383953898095
794.0,0.016915227262211507
793.0,0.016915227262211507
792.0,0.017005545341335804
791.0,0.017186237868137555
790.0,0.017321806616515723
789.0,0.017412209298337533
788.0,0.017457417697056554
787.0,0.017502630802287644
786.0,0.017638298366853045
785.0,0.017728766960431575
784.0,0.017864505196230507
783.0,0.017864505196230507
782.0,0.01781925440359733
781.0,0.017728766960431575
780.0,0.017638298366853045
779.0,0.017547848615010242
778.0,0.017502630802287644
777.0,0.017412209298337533
776.0,0.017321806616515723
775.0,0.01727661233145472
774.0,0.01727661233145472
773.0,0.017457417697056554
772.0,0.017638298366853045
771.0,0.01768353030793479
770.0,0.017547848615010242
769.0,0.017231422748988034
768.0,0.017141057687924732
767.0,0.017367005605150476
766.0,0.017774008325325275
765.0,0.018045555530026514
764.0,0.01809082990920774
763.0,0.017955020928509757
762.0,0.017909760704207134
761.0,0.018045555530026514
760.0,0.018271974638383703
759.0,0.01845319495476394
758.0,0.01858915983411169
757.0,0.018634490921455527
756.0,0.018679826740892747
755.0,0.018770512579999288
754.0,0.018906576854070378
753.0,0.019133445417920836
752.0,0.019360432556262852
751.0,0.01954210772389997
750.0,0.019723858922159776
749.0,0.01990568621470623
748.0,0.020178569969774962
747.0,0.02067930261797568
746.0,0.021271822861508305
745.0,0.021910826943857264
744.0,0.022505030926963654
743.0,0.02291687968414724
742.0,0.023237476732539397
741.0,0.023466619608062178
740.0,0.023741750742954926
739.0,0.024108863598207186
738.0,0.024660115394541604
737.0,0.02558042614771394
736.0,0.02724191609646076
735.0,0.030397735151460825
734.0,0.03583468937826462
733.0,0.04411991377462465
732.0,0.054186873412661596
731.0,0.06323500239005853
730.0,0.06798309356579857
729.0,0.06732334137759932
728.0,0.06318476880236723
727.0,0.058737090681050264
726.0,0.05625823416868636
725.0,0.056456022846545606
724.0,0.05928434309333741
723.0,0.06494641076893504
722.0,0.07370901311513656
721.0,0.08449463824562353
720.0,0.0937727369476411
719.0,0.0972358560759139
718.0,0.09344948089854999
717.0,0.08438913733853282
716.0,0.07355465218161061
715.0,0.06338573802478864
714.0,0.0549255115212699
713.0,0.04827402457540786
712.0,0.04320747962950522
711.0,0.03957679292217042
710.0,0.03701541568300293
709.0,0.03508070571335731
708.0,0.033482823553208085
707.0,0.032218091924200776
706.0,0.031143625385307683
705.0,0.030071810571884017
704.0,0.02872415126189476
703.0,0.02738066094037661
702.0,0.026318081496016443
701.0,0.025764722556973707
700.0,0.025672564576383117
699.0,0.025856900097785074
698.0,0.025949097207122573
697.0,0.025856900097785074
696.0,0.02553436426275746
695.0,0.02512002699306959
694.0,0.024660115394541604
693.0,0.024108863598207186
692.0,0.02355831062115543
691.0,0.023283295636617574
690.0,0.023191662661933732
689.0,0.023283295636617574
688.0,0.02351246269481
687.0,0.023833499868024743
686.0,0.024200690320592466
685.0,0.02438440203310499
684.0,0.024338466818941473
683.0,0.024200690320592466
682.0,0.024154774532432866
681.0,0.024292536462819925
680.0,0.024430342106337877
679.0,0.024430342106337877
678.0,0.024292536462819925
677.0,0.024108863598207186
676.0,0.023879381700184332
675.0,0.02365002099672653
674.0,0.023100049017062307
673.0,0.02227639471115217
672.0,0.021363051615525652
671.0,0.020770406977844713
670.0,0.020907099361673565
669.0,0.022093572362881675
668.0,0.023695883447997224
667.0,0.024706084643793647
666.0,0.02461415101053266
665.0,0.023741750742954926
664.0,0.023191662661933732
663.0,0.02342078135989012
662.0,0.023925268380126097
661.0,0.023833499868024743
660.0,0.023237476732539397
659.0,0.02259651912656535
658.0,0.022093572362881675
657.0,0.02140867317992523
656.0,0.02045162529590483
655.0,0.019860222254245663
654.0,0.02013307743509718
653.0,0.020952673052035298
652.0,0.021499930688540836
651.0,0.02159120737696063
650.0,0.0214542995372613
649.0,0.02140867317992523
648.0,0.021728158389364705
647.0,0.02227639471115217
646.0,0.022733787572707387
645.0,0.02296266477531872
644.0,0.02296266477531872
643.0,0.02291687968414724
642.0,0.022733787572707387
641.0,0.022322112326006227
640.0,0.02204787879853809
639.0,0.022505030926963654
638.0,0.023879381700184332
637.0,0.02553436426275746
636.0,0.02691835039863255
635.0,0.027797161620935595
634.0,0.02826040911222183
633.0,0.02839947976994095
632.0,0.02826040911222183
631.0,0.028167720075074953
630.0,0.028167720075074953
629.0,0.028214062120885508
628.0,0.02826040911222183
627.0,0.028306761050139073
626.0,0.028167720075074953
625.0,0.02751945012352408
624.0,0.026595025589939425
623.0,0.026041313893296225
622.0,0.026456531467510258
621.0,0.027658283674251827
620.0,0.028956208163971375
619.0,0.029560137048236124
618.0,0.029141943003497595
617.0,0.028353117935693284
616.0,0.028214062120885508
615.0,0.02890978686288448
614.0,0.029839156962686353
613.0,0.030071810571884017
612.0,0.029653123769906697
611.0,0.02904906565457588
610.0,0.02872415126189476
609.0,0.028677754757187035
608.0,0.02890978686288448
607.0,0.029513651152349718
606.0,0.03030458888152676
605.0,0.030910397045078586
604.0,0.031096969696171817
603.0,0.03081714076773867
602.0,0.030071810571884017
601.0,0.029095501846216454
600.0,0.028677754757187035
