cm-1,A
4000.0,0.008685301823389224
3999.0,0.008818242332126802
3998.0,0.008951223547323472
3997.0,0.009039900317800775
3996.0,0.009172949432521227
3995.0,0.009306039320248427
3994.0,0.00939478857608056
3993.0,0.009350411681145587
3992.0,0.009306039320248427
3991.0,0.009217308196862062
3990.0,0.009172949432521227
3989.0,0.009128595198514056
3988.0,0.009172949432521227
3987.0,0.009172949432521227
3986.0,0.009217308196862062
3985.0,0.009217308196862062
3984.0,0.009261671492462709
3983.0,0.009217308196862062
3982.0,0.009172949432521227
3981.0,0.009128595198514056
3980.0,0.009128595198514056
3979.0,0.009128595198514056
3978.0,0.009172949432521227
3977.0,0.009217308196862062
3976.0,0.009217308196862062
3975.0,0.009172949432521227
3974.0,0.009039900317800775
3973.0,0.008906891951112605
3972.0,0.008862564879688284
3971.0,0.008906891951112605
3970.0,0.009128595198514056
3969.0,0.009306039320248427
3968.0,0.00939478857608056
3967.0,0.009350411681145587
3966.0,0.009172949432521227
3965.0,0.00908424549391551
3964.0,0.009039900317800775
3963.0,0.00908424549391551
3962.0,0.009128595198514056
3961.0,0.009039900317800775
3960.0,0.008951223547323472
3959.0,0.008818242332126802
3958.0,0.008818242332126802
3957.0,0.008951223547323472
3956.0,0.009039900317800775
3955.0,0.00908424549391551
3954.0,0.009039900317800775
3953.0,0.008906891951112605
3952.0,0.008818242332126802
3951.0,0.008773924307505121
3950.0,0.008862564879688284
3949.0,0.008951223547323472
3948.0,0.008995559669244813
3947.0,0.008951223547323472
3946.0,0.008951223547323472
3945.0,0.008951223547323472
3944.0,0.009039900317800775
3943.0,0.009128595198514056
3942.0,0.00908424549391551
3941.0,0.008995559669244813
3940.0,0.008906891951112605
3939.0,0.008906891951112605
3938.0,0.008995559669244813
3937.0,0.009039900317800775
3936.0,0.009039900317800775
3935.0,0.008995559669244813
3934.0,0.008995559669244813
3933.0,0.009039900317800775
3932.0,0.00908424549391551
3931.0,0.00908424549391551
3930.0,0.009039900317800775
3929.0,0.008951223547323472
3928.0,0.008862564879688284
3927.0,0.008818242332126802
3926.0,0.008818242332126802
3925.0,0.008818242332126802
3924.0,0.0087296108049002
3923.0,0.008640997362049818
3922.0,0.00850811108984062
3921.0,0.00850811108984062
3920.0,0.008596697419959609
3919.0,0.0087296108049002
3918.0,0.008862564879688284
3917.0,0.008906891951112605
3916.0,0.008906891951112605
3915.0,0.008951223547323472
3914.0,0.00908424549391551
3913.0,0.009172949432521227
3912.0,0.009261671492462709
3911.0,0.009306039320248427
3910.0,0.009217308196862062
3909.0,0.00908424549391551
3908.0,0.008906891951112605
3907.0,0.0087296108049002
3906.0,0.00850811108984062
3905.0,0.008330992620051436
3904.0,0.008198201155356077
3903.0,0.008109696063975047
3902.0,0.008065450281052211
3901.0,0.008198201155356077
3900.0,0.008463824699968647
3899.0,0.0087296108049002
3898.0,0.008906891951112605
3897.0,0.00908424549391551
3896.0,0.009128595198514056
3895.0,0.00908424549391551
3894.0,0.008906891951112605
3893.0,0.008773924307505121
3892.0,0.008685301823389224
3891.0,0.008640997362049818
3890.0,0.008596697419959609
3889.0,0.008552401996197112
3888.0,0.008640997362049818
3887.0,0.0087296108049002
3886.0,0.008685301823389224
3885.0,0.008419542825660153
3884.0,0.008109696063975047
3883.0,0.008021209005416363
3882.0,0.008242460465651913
3881.0,0.008685301823389224
3880.0,0.008951223547323472
3879.0,0.008906891951112605
3878.0,0.0087296108049002
3877.0,0.008596697419959609
3876.0,0.008640997362049818
3875.0,0.008685301823389224
3874.0,0.008596697419959609
3873.0,0.008330992620051436
3872.0,0.008109696063975047
3871.0,0.008109696063975047
3870.0,0.008198201155356077
3869.0,0.008242460465651913
3868.0,0.008153946355103248
3867.0,0.008109696063975047
3866.0,0.008198201155356077
3865.0,0.008419542825660153
3864.0,0.008640997362049818
3863.0,0.008818242332126802
3862.0,0.008818242332126802
3861.0,0.0087296108049002
3860.0,0.008552401996197112
3859.0,0.008375265465994541
3858.0,0.008153946355103248
3857.0,0.007844288957383316
3856.0,0.007534852191956709
3855.0,0.007490664932224611
3854.0,0.007755855953228474
3853.0,0.007976972236149349
3852.0,0.007976972236149349
3851.0,0.008242460465651913
3850.0,0.0087296108049002
3849.0,0.009128595198514056
3848.0,0.009217308196862062
3847.0,0.00908424549391551
3846.0,0.008773924307505121
3845.0,0.008463824699968647
3844.0,0.008109696063975047
3843.0,0.007844288957383316
3842.0,0.007667440952535687
3841.0,0.007667440952535687
3840.0,0.007932739972333236
3839.0,0.008242460465651913
3838.0,0.008419542825660153
3837.0,0.008419542825660153
3836.0,0.008375265465994541
3835.0,0.008463824699968647
3834.0,0.008596697419959609
3833.0,0.008773924307505121
3832.0,0.008862564879688284
3831.0,0.008906891951112605
3830.0,0.008862564879688284
3829.0,0.008862564879688284
3828.0,0.008906891951112605
3827.0,0.008862564879688284
3826.0,0.0087296108049002
3825.0,0.008552401996197112
3824.0,0.008375265465994541
3823.0,0.008375265465994541
3822.0,0.008463824699968647
3821.0,0.008330992620051436
3820.0,0.007888512213050314
3819.0,0.007534852191956709
3818.0,0.00762324020119709
3817.0,0.007976972236149349
3816.0,0.008286724286910463
3815.0,0.008419542825660153
3814.0,0.008463824699968647
3813.0,0.008685301823389224
3812.0,0.008951223547323472
3811.0,0.00908424549391551
3810.0,0.00908424549391551
3809.0,0.00908424549391551
3808.0,0.009172949432521227
3807.0,0.009217308196862062
3806.0,0.00908424549391551
3805.0,0.008862564879688284
3804.0,0.0087296108049002
3803.0,0.0087296108049002
3802.0,0.0087296108049002
3801.0,0.008640997362049818
3800.0,0.008375265465994541
3799.0,0.008375265465994541
3798.0,0.008640997362049818
3797.0,0.008906891951112605
3796.0,0.009039900317800775
3795.0,0.009039900317800775
3794.0,0.009039900317800775
3793.0,0.00908424549391551
3792.0,0.009172949432521227
3791.0,0.009172949432521227
3790.0,0.009128595198514056
3789.0,0.00908424549391551
3788.0,0.00908424549391551
3787.0,0.009128595198514056
3786.0,0.009217308196862062
3785.0,0.009217308196862062
3784.0,0.009128595198514056
3783.0,0.009039900317800775
3782.0,0.008951223547323472
3781.0,0.00908424549391551
3780.0,0.009306039320248427
3779.0,0.009439170005980158
3778.0,0.009439170005980158
3777.0,0.009350411681145587
3776.0,0.009261671492462709
3775.0,0.009172949432521227
3774.0,0.009039900317800775
3773.0,0.008862564879688284
3772.0,0.0087296108049002
3771.0,0.0087296108049002
3770.0,0.0087296108049002
3769.0,0.0087296108049002
3768.0,0.008685301823389224
3767.0,0.008773924307505121
3766.0,0.008906891951112605
3765.0,0.008906891951112605
3764.0,0.008818242332126802
3763.0,0.008685301823389224
3762.0,0.008596697419959609
3761.0,0.008552401996197112
3760.0,0.008552401996197112
3759.0,0.00850811108984062
3758.0,0.008463824699968647
3757.0,0.008419542825660153
3756.0,0.008375265465994541
3755.0,0.008330992620051436
3754.0,0.008153946355103248
3753.0,0.007932739972333236
3752.0,0.007711646202907652
3751.0,0.0075790439479759275
3750.0,0.007313960837872058
3749.0,0.007049039429553483
3748.0,0.006916639301937977
3747.0,0.00696076819309055
3746.0,0.007225635744644521
3745.0,0.007711646202907652
3744.0,0.008109696063975047
3743.0,0.008242460465651913
3742.0,0.008419542825660153
3741.0,0.008685301823389224
3740.0,0.0087296108049002
3739.0,0.008463824699968647
3738.0,0.008109696063975047
3737.0,0.007755855953228474
3736.0,0.0074464821678643656
3735.0,0.007181479933320523
3734.0,0.007093181776687496
3733.0,0.007313960837872058
3732.0,0.007755855953228474
3731.0,0.008153946355103248
3730.0,0.008419542825660153
3729.0,0.008552401996197112
3728.0,0.008552401996197112
3727.0,0.008552401996197112
3726.0,0.008419542825660153
3725.0,0.008198201155356077
3724.0,0.007932739972333236
3723.0,0.007844288957383316
3722.0,0.007932739972333236
3721.0,0.008153946355103248
3720.0,0.00850811108984062
3719.0,0.008862564879688284
3718.0,0.008995559669244813
3717.0,0.008951223547323472
3716.0,0.008685301823389224
3715.0,0.008419542825660153
3714.0,0.008198201155356077
3713.0,0.008198201155356077
3712.0,0.008330992620051436
3711.0,0.008330992620051436
3710.0,0.008242460465651913
3709.0,0.008198201155356077
3708.0,0.008419542825660153
3707.0,0.008640997362049818
3706.0,0.008773924307505121
3705.0,0.008773924307505121
3704.0,0.0087296108049002
3703.0,0.008685301823389224
3702.0,0.0087296108049002
3701.0,0.0087296108049002
3700.0,0.0087296108049002
3699.0,0.008818242332126802
3698.0,0.008951223547323472
3697.0,0.009039900317800775
3696.0,0.00908424549391551
3695.0,0.008906891951112605
3694.0,0.008685301823389224
3693.0,0.008375265465994541
3692.0,0.008109696063975047
3691.0,0.008021209005416363
3690.0,0.008242460465651913
3689.0,0.008463824699968647
3688.0,0.008596697419959609
3687.0,0.0087296108049002
3686.0,0.008906891951112605
3685.0,0.009128595198514056
3684.0,0.009261671492462709
3683.0,0.009306039320248427
3682.0,0.009261671492462709
3681.0,0.009217308196862062
3680.0,0.00908424549391551
3679.0,0.008818242332126802
3678.0,0.008463824699968647
3677.0,0.008330992620051436
3676.0,0.008419542825660153
3675.0,0.008286724286910463
3674.0,0.007932739972333236
3673.0,0.007667440952535687
3672.0,0.007755855953228474
3671.0,0.008021209005416363
3670.0,0.008463824699968647
3669.0,0.008685301823389224
3668.0,0.008862564879688284
3667.0,0.00908424549391551
3666.0,0.00939478857608056
3665.0,0.00966114521239847
3664.0,0.009794384815193347
3663.0,0.009927665307847056
3662.0,0.009972101229705377
3661.0,0.009927665307847056
3660.0,0.009838807101520963
3659.0,0.009705553871561357
3658.0,0.009705553871561357
3657.0,0.009794384815193347
3656.0,0.00974996707218323
3655.0,0.009483555971770974
3654.0,0.00908424549391551
3653.0,0.008640997362049818
3652.0,0.008198201155356077
3651.0,0.008109696063975047
3650.0,0.008330992620051436
3649.0,0.008552401996197112
3648.0,0.008596697419959609
3647.0,0.008640997362049818
3646.0,0.008951223547323472
3645.0,0.009306039320248427
3644.0,0.009572341514736404
3643.0,0.009794384815193347
3642.0,0.009972101229705377
3641.0,0.010060986715464404
3640.0,0.010105436281226954
3639.0,0.010060986715464404
3638.0,0.009927665307847056
3637.0,0.00974996707218323
3636.0,0.009616741093766423
3635.0,0.009439170005980158
3634.0,0.009217308196862062
3633.0,0.008862564879688284
3632.0,0.008463824699968647
3631.0,0.008242460465651913
3630.0,0.008330992620051436
3629.0,0.008640997362049818
3628.0,0.0087296108049002
3627.0,0.008773924307505121
3626.0,0.009039900317800775
3625.0,0.009350411681145587
3624.0,0.009483555971770974
3623.0,0.009350411681145587
3622.0,0.00908424549391551
3621.0,0.008906891951112605
3620.0,0.008906891951112605
3619.0,0.008995559669244813
3618.0,0.00908424549391551
3617.0,0.009128595198514056
3616.0,0.009261671492462709
3615.0,0.009483555971770974
3614.0,0.00966114521239847
3613.0,0.00966114521239847
3612.0,0.009483555971770974
3611.0,0.009350411681145587
3610.0,0.009350411681145587
3609.0,0.009572341514736404
3608.0,0.009883233932095559
3607.0,0.010105436281226954
3606.0,0.010194349063173958
3605.0,0.01023881228122181
3604.0,0.01023881228122181
3603.0,0.010194349063173958
3602.0,0.010149890396819572
3601.0,0.010060986715464404
3600.0,0.009927665307847056
3599.0,0.009794384815193347
3598.0,0.00966114521239847
3597.0,0.009572341514736404
3596.0,0.009527946474380489
3595.0,0.009527946474380489
3594.0,0.009572341514736404
3593.0,0.009572341514736404
3592.0,0.009572341514736404
3591.0,0.009527946474380489
3590.0,0.009483555971770974
3589.0,0.009572341514736404
3588.0,0.009705553871561357
3587.0,0.009705553871561357
3586.0,0.009616741093766423
3585.0,0.009572341514736404
3584.0,0.009705553871561357
3583.0,0.009927665307847056
3582.0,0.010149890396819572
3581.0,0.010327752376126709
3580.0,0.010416710688994968
3579.0,0.010505687227290839
3578.0,0.01046119667949763
3577.0,0.01037222925484893
3576.0,0.010327752376126709
3575.0,0.01023881228122181
3574.0,0.01023881228122181
3573.0,0.010149890396819572
3572.0,0.010060986715464404
3571.0,0.009883233932095559
3570.0,0.009705553871561357
3569.0,0.009572341514736404
3568.0,0.009572341514736404
3567.0,0.009616741093766423
3566.0,0.00966114521239847
3565.0,0.00966114521239847
3564.0,0.009705553871561357
3563.0,0.00974996707218323
3562.0,0.009883233932095559
3561.0,0.009972101229705377
3560.0,0.010105436281226954
3559.0,0.010149890396819572
3558.0,0.010149890396819572
3557.0,0.010105436281226954
3556.0,0.010060986715464404
3555.0,0.010149890396819572
3554.0,0.01037222925484893
3553.0,0.010594681998483901
3552.0,0.010728208358306901
3551.0,0.010639186223752484
3550.0,0.01046119667949763
3549.0,0.010327752376126709
3548.0,0.010283280051895272
3547.0,0.01037222925484893
3546.0,0.010550182333308289
3545.0,0.010683695010048622
3544.0,0.01077272626946324
3543.0,0.01077272626946324
3542.0,0.010728208358306901
3541.0,0.010639186223752484
3540.0,0.010550182333308289
3539.0,0.010505687227290839
3538.0,0.010505687227290839
3537.0,0.01046119667949763
3536.0,0.01046119667949763
3535.0,0.010416710688994968
3534.0,0.01046119667949763
3533.0,0.010505687227290839
3532.0,0.010550182333308289
3531.0,0.010594681998483901
3530.0,0.010550182333308289
3529.0,0.01046119667949763
3528.0,0.010416710688994968
3527.0,0.01037222925484893
3526.0,0.01037222925484893
3525.0,0.01046119667949763
3524.0,0.010550182333308289
3523.0,0.010639186223752484
3522.0,0.010639186223752484
3521.0,0.010594681998483901
3520.0,0.010550182333308289
3519.0,0.010594681998483901
3518.0,0.010639186223752484
3517.0,0.010728208358306901
3516.0,0.010817248744452446
3515.0,0.010906307389674463
3514.0,0.010950843561779777
3513.0,0.010906307389674463
3512.0,0.010817248744452446
3511.0,0.010639186223752484
3510.0,0.010550182333308289
3509.0,0.010594681998483901
3508.0,0.010683695010048622
3507.0,0.01077272626946324
3506.0,0.010817248744452446
3505.0,0.010728208358306901
3504.0,0.010594681998483901
3503.0,0.01046119667949763
3502.0,0.010416710688994968
3501.0,0.010416710688994968
3500.0,0.010416710688994968
3499.0,0.010505687227290839
3498.0,0.010550182333308289
3497.0,0.010639186223752484
3496.0,0.010683695010048622
3495.0,0.010683695010048622
3494.0,0.010683695010048622
3493.0,0.010728208358306901
3492.0,0.010817248744452446
3491.0,0.01086177578421088
3490.0,0.01086177578421088
3489.0,0.010728208358306901
3488.0,0.010639186223752484
3487.0,0.010505687227290839
3486.0,0.01046119667949763
3485.0,0.01046119667949763
3484.0,0.010505687227290839
3483.0,0.010594681998483901
3482.0,0.010639186223752484
3481.0,0.010683695010048622
3480.0,0.010728208358306901
3479.0,0.01077272626946324
3478.0,0.01077272626946324
3477.0,0.010728208358306901
3476.0,0.010683695010048622
3475.0,0.010728208358306901
3474.0,0.010817248744452446
3473.0,0.01086177578421088
3472.0,0.010906307389674463
3471.0,0.010950843561779777
3470.0,0.010995384301463185
3469.0,0.011039929609661936
3468.0,0.011084479487313281
3467.0,0.011039929609661936
3466.0,0.010906307389674463
3465.0,0.010728208358306901
3464.0,0.010550182333308289
3463.0,0.010416710688994968
3462.0,0.010416710688994968
3461.0,0.010505687227290839
3460.0,0.010639186223752484
3459.0,0.01077272626946324
3458.0,0.01086177578421088
3457.0,0.010906307389674463
3456.0,0.010817248744452446
3455.0,0.010728208358306901
3454.0,0.010594681998483901
3453.0,0.010550182333308289
3452.0,0.010550182333308289
3451.0,0.010505687227290839
3450.0,0.010505687227290839
3449.0,0.010594681998483901
3448.0,0.010639186223752484
3447.0,0.010683695010048622
3446.0,0.010683695010048622
3445.0,0.010594681998483901
3444.0,0.010505687227290839
3443.0,0.010505687227290839
3442.0,0.010550182333308289
3441.0,0.010728208358306901
3440.0,0.010906307389674463
3439.0,0.011039929609661936
3438.0,0.010995384301463185
3437.0,0.010906307389674463
3436.0,0.01077272626946324
3435.0,0.01077272626946324
3434.0,0.010817248744452446
3433.0,0.010906307389674463
3432.0,0.010950843561779777
3431.0,0.010906307389674463
3430.0,0.010817248744452446
3429.0,0.01077272626946324
3428.0,0.01077272626946324
3427.0,0.010817248744452446
3426.0,0.010817248744452446
3425.0,0.010683695010048622
3424.0,0.010550182333308289
3423.0,0.010416710688994968
3422.0,0.01037222925484893
3421.0,0.01037222925484893
3420.0,0.01046119667949763
3419.0,0.010505687227290839
3418.0,0.010594681998483901
3417.0,0.010639186223752484
3416.0,0.010639186223752484
3415.0,0.010639186223752484
3414.0,0.010639186223752484
3413.0,0.010639186223752484
3412.0,0.010683695010048622
3411.0,0.01077272626946324
3410.0,0.01077272626946324
3409.0,0.01077272626946324
3408.0,0.010817248744452446
3407.0,0.010817248744452446
3406.0,0.01086177578421088
3405.0,0.01086177578421088
3404.0,0.01077272626946324
3403.0,0.010728208358306901
3402.0,0.010683695010048622
3401.0,0.010639186223752484
3400.0,0.010594681998483901
3399.0,0.010550182333308289
3398.0,0.010594681998483901
3397.0,0.010683695010048622
3396.0,0.01077272626946324
3395.0,0.010817248744452446
3394.0,0.010817248744452446
3393.0,0.01077272626946324
3392.0,0.010728208358306901
3391.0,0.010683695010048622
3390.0,0.010728208358306901
3389.0,0.010728208358306901
3388.0,0.010728208358306901
3387.0,0.010683695010048622
3386.0,0.010594681998483901
3385.0,0.010550182333308289
3384.0,0.010505687227290839
3383.0,0.010505687227290839
3382.0,0.010550182333308289
3381.0,0.010639186223752484
3380.0,0.010728208358306901
3379.0,0.010683695010048622
3378.0,0.010594681998483901
3377.0,0.010505687227290839
3376.0,0.010505687227290839
3375.0,0.010639186223752484
3374.0,0.010817248744452446
3373.0,0.010906307389674463
3372.0,0.010906307389674463
3371.0,0.01086177578421088
3370.0,0.010817248744452446
3369.0,0.010817248744452446
3368.0,0.010817248744452446
3367.0,0.01077272626946324
3366.0,0.010817248744452446
3365.0,0.010950843561779777
3364.0,0.011039929609661936
3363.0,0.011084479487313281
3362.0,0.010906307389674463
3361.0,0.010639186223752484
3360.0,0.010416710688994968
3359.0,0.010327752376126709
3358.0,0.010416710688994968
3357.0,0.010594681998483901
3356.0,0.010728208358306901
3355.0,0.010728208358306901
3354.0,0.010639186223752484
3353.0,0.010550182333308289
3352.0,0.01046119667949763
3351.0,0.010416710688994968
3350.0,0.01037222925484893
3349.0,0.01037222925484893
3348.0,0.010327752376126709
3347.0,0.010327752376126709
3346.0,0.010283280051895272
3345.0,0.010283280051895272
3344.0,0.010283280051895272
3343.0,0.010327752376126709
3342.0,0.01037222925484893
3341.0,0.01037222925484893
3340.0,0.01037222925484893
3339.0,0.01037222925484893
3338.0,0.01037222925484893
3337.0,0.01046119667949763
3336.0,0.010594681998483901
3335.0,0.010639186223752484
3334.0,0.010639186223752484
3333.0,0.010594681998483901
3332.0,0.010550182333308289
3331.0,0.010550182333308289
3330.0,0.010550182333308289
3329.0,0.010550182333308289
3328.0,0.01046119667949763
3327.0,0.010416710688994968
3326.0,0.01037222925484893
3325.0,0.01037222925484893
3324.0,0.010327752376126709
3323.0,0.01023881228122181
3322.0,0.010149890396819572
3321.0,0.010060986715464404
3320.0,0.01001654169860089
3319.0,0.010060986715464404
3318.0,0.010060986715464404
3317.0,0.010105436281226954
3316.0,0.010105436281226954
3315.0,0.010149890396819572
3314.0,0.010194349063173958
3313.0,0.010194349063173958
3312.0,0.010194349063173958
3311.0,0.010194349063173958
3310.0,0.010105436281226954
3309.0,0.01001654169860089
3308.0,0.01001654169860089
3307.0,0.01001654169860089
3306.0,0.01001654169860089
3305.0,0.01001654169860089
3304.0,0.009883233932095559
3303.0,0.00974996707218323
3302.0,0.00966114521239847
3301.0,0.00966114521239847
3300.0,0.009794384815193347
3299.0,0.009883233932095559
3298.0,0.009972101229705377
3297.0,0.01001654169860089
3296.0,0.010060986715464404
3295.0,0.010194349063173958
3294.0,0.010283280051895272
3293.0,0.010283280051895272
3292.0,0.010105436281226954
3291.0,0.009838807101520963
3290.0,0.00966114521239847
3289.0,0.009572341514736404
3288.0,0.009572341514736404
3287.0,0.009572341514736404
3286.0,0.009572341514736404
3285.0,0.009527946474380489
3284.0,0.009527946474380489
3283.0,0.009527946474380489
3282.0,0.009616741093766423
3281.0,0.009705553871561357
3280.0,0.00974996707218323
3279.0,0.009705553871561357
3278.0,0.009572341514736404
3277.0,0.00939478857608056
3276.0,0.009306039320248427
3275.0,0.009350411681145587
3274.0,0.009439170005980158
3273.0,0.009527946474380489
3272.0,0.009616741093766423
3271.0,0.009705553871561357
3270.0,0.00974996707218323
3269.0,0.009794384815193347
3268.0,0.009794384815193347
3267.0,0.00974996707218323
3266.0,0.009705553871561357
3265.0,0.009705553871561357
3264.0,0.009794384815193347
3263.0,0.009838807101520963
3262.0,0.009838807101520963
3261.0,0.009705553871561357
3260.0,0.009527946474380489
3259.0,0.009439170005980158
3258.0,0.00939478857608056
3257.0,0.009439170005980158
3256.0,0.009527946474380489
3255.0,0.009572341514736404
3254.0,0.009616741093766423
3253.0,0.009616741093766423
3252.0,0.009616741093766423
3251.0,0.009527946474380489
3250.0,0.009483555971770974
3249.0,0.009439170005980158
3248.0,0.00939478857608056
3247.0,0.00939478857608056
3246.0,0.009439170005980158
3245.0,0.009527946474380489
3244.0,0.009527946474380489
3243.0,0.009483555971770974
3242.0,0.009439170005980158
3241.0,0.00939478857608056
3240.0,0.009350411681145587
3239.0,0.009306039320248427
3238.0,0.009306039320248427
3237.0,0.00939478857608056
3236.0,0.009572341514736404
3235.0,0.009705553871561357
3234.0,0.00966114521239847
3233.0,0.009527946474380489
3232.0,0.009306039320248427
3231.0,0.009172949432521227
3230.0,0.009128595198514056
3229.0,0.009217308196862062
3228.0,0.009261671492462709
3227.0,0.009350411681145587
3226.0,0.009350411681145587
3225.0,0.009306039320248427
3224.0,0.009261671492462709
3223.0,0.009261671492462709
3222.0,0.009261671492462709
3221.0,0.009261671492462709
3220.0,0.009217308196862062
3219.0,0.009172949432521227
3218.0,0.009128595198514056
3217.0,0.00908424549391551
3216.0,0.00908424549391551
3215.0,0.009039900317800775
3214.0,0.00908424549391551
3213.0,0.00908424549391551
3212.0,0.008995559669244813
3211.0,0.008862564879688284
3210.0,0.0087296108049002
3209.0,0.008640997362049818
3208.0,0.0087296108049002
3207.0,0.008951223547323472
3206.0,0.009172949432521227
3205.0,0.009261671492462709
3204.0,0.009217308196862062
3203.0,0.009128595198514056
3202.0,0.008995559669244813
3201.0,0.008951223547323472
3200.0,0.008906891951112605
3199.0,0.008951223547323472
3198.0,0.008906891951112605
3197.0,0.008906891951112605
3196.0,0.008818242332126802
3195.0,0.008773924307505121
3194.0,0.0087296108049002
3193.0,0.0087296108049002
3192.0,0.008773924307505121
3191.0,0.008773924307505121
3190.0,0.008773924307505121
3189.0,0.008773924307505121
3188.0,0.0087296108049002
3187.0,0.0087296108049002
3186.0,0.008685301823389224
3185.0,0.008685301823389224
3184.0,0.008596697419959609
3183.0,0.008596697419959609
3182.0,0.008640997362049818
3181.0,0.008773924307505121
3180.0,0.008862564879688284
3179.0,0.008862564879688284
3178.0,0.008773924307505121
3177.0,0.008596697419959609
3176.0,0.008463824699968647
3175.0,0.008419542825660153
3174.0,0.00850811108984062
3173.0,0.008640997362049818
3172.0,0.0087296108049002
3171.0,0.0087296108049002
3170.0,0.008685301823389224
3169.0,0.008552401996197112
3168.0,0.008463824699968647
3167.0,0.008419542825660153
3166.0,0.008419542825660153
3165.0,0.008463824699968647
3164.0,0.008463824699968647
3163.0,0.008375265465994541
3162.0,0.008242460465651913
3161.0,0.008198201155356077
3160.0,0.008109696063975047
3159.0,0.008021209005416363
3158.0,0.007844288957383316
3157.0,0.007711646202907652
3156.0,0.00762324020119709
3155.0,0.007667440952535687
3154.0,0.007755855953228474
3153.0,0.007844288957383316
3152.0,0.007932739972333236
3151.0,0.007932739972333236
3150.0,0.007888512213050314
3149.0,0.007888512213050314
3148.0,0.007844288957383316
3147.0,0.007844288957383316
3146.0,0.007844288957383316
3145.0,0.007844288957383316
3144.0,0.007800070204414977
3143.0,0.007800070204414977
3142.0,0.007800070204414977
3141.0,0.007755855953228474
3140.0,0.007667440952535687
3139.0,0.00762324020119709
3138.0,0.00762324020119709
3137.0,0.007667440952535687
3136.0,0.007667440952535687
3135.0,0.00762324020119709
3134.0,0.0075790439479759275
3133.0,0.007534852191956709
3132.0,0.007534852191956709
3131.0,0.0075790439479759275
3130.0,0.0075790439479759275
3129.0,0.007534852191956709
3128.0,0.007490664932224611
3127.0,0.0074464821678643656
3126.0,0.007402303897961815
3125.0,0.007358130121602358
3124.0,0.007402303897961815
3123.0,0.007490664932224611
3122.0,0.0075790439479759275
3121.0,0.007667440952535687
3120.0,0.007667440952535687
3119.0,0.0075790439479759275
3118.0,0.007490664932224611
3117.0,0.007402303897961815
3116.0,0.007402303897961815
3115.0,0.007402303897961815
3114.0,0.0074464821678643656
3113.0,0.007534852191956709
3112.0,0.0075790439479759275
3111.0,0.007534852191956709
3110.0,0.0074464821678643656
3109.0,0.007358130121602358
3108.0,0.007269796045857202
3107.0,0.007269796045857202
3106.0,0.007225635744644521
3105.0,0.007225635744644521
3104.0,0.007181479933320523
3103.0,0.007225635744644521
3102.0,0.007313960837872058
3101.0,0.007313960837872058
3100.0,0.007269796045857202
3099.0,0.007181479933320523
3098.0,0.007137328610972382
3097.0,0.007137328610972382
3096.0,0.007181479933320523
3095.0,0.007269796045857202
3094.0,0.007313960837872058
3093.0,0.007358130121602358
3092.0,0.007402303897961815
3091.0,0.007402303897961815
3090.0,0.007358130121602358
3089.0,0.007269796045857202
3088.0,0.007269796045857202
3087.0,0.007225635744644521
3086.0,0.007225635744644521
3085.0,0.007181479933320523
3084.0,0.007181479933320523
3083.0,0.007181479933320523
3082.0,0.007137328610972382
3081.0,0.007093181776687496
3080.0,0.00696076819309055
3079.0,0.006872514894289861
3078.0,0.006828394969235152
3077.0,0.006784279525863024
3076.0,0.006784279525863024
3075.0,0.006784279525863024
3074.0,0.006784279525863024
3073.0,0.006740168563263094
3072.0,0.006784279525863024
3071.0,0.006828394969235152
3070.0,0.006916639301937977
3069.0,0.006916639301937977
3068.0,0.006916639301937977
3067.0,0.006872514894289861
3066.0,0.006828394969235152
3065.0,0.006828394969235152
3064.0,0.006872514894289861
3063.0,0.006916639301937977
3062.0,0.006872514894289861
3061.0,0.006828394969235152
3060.0,0.006696062080525422
3059.0,0.00656376950238835
3058.0,0.006519680930003435
3057.0,0.006519680930003435
3056.0,0.006519680930003435
3055.0,0.006475596832934416
3054.0,0.006387442061109638
3053.0,0.006299305179649828
3052.0,0.00625524344553785
3051.0,0.00621118618129457
3050.0,0.00625524344553785
3049.0,0.006299305179649828
3048.0,0.006343371384537999
3047.0,0.006343371384537999
3046.0,0.006343371384537999
3045.0,0.006343371384537999
3044.0,0.006387442061109638
3043.0,0.006475596832934416
3042.0,0.006607862550997545
3041.0,0.006651960076740071
3040.0,0.00656376950238835
3039.0,0.006431517210272464
3038.0,0.006299305179649828
3037.0,0.00621118618129457
3036.0,0.006167133386013823
3035.0,0.00612308505878878
3034.0,0.006035001804881146
3033.0,0.005990966876386672
3032.0,0.005990966876386672
3031.0,0.006079041198713275
3030.0,0.00612308505878878
3029.0,0.00621118618129457
3028.0,0.00621118618129457
3027.0,0.006167133386013823
3026.0,0.00612308505878878
3025.0,0.006035001804881146
3024.0,0.006035001804881146
3023.0,0.005990966876386672
3022.0,0.00590291041179003
3021.0,0.00577085918230158
3020.0,0.005682847330363394
3019.0,0.005638848091999105
3018.0,0.005682847330363394
3017.0,0.005726851026829571
3016.0,0.005726851026829571
3015.0,0.005682847330363394
3014.0,0.005594853310833647
3013.0,0.005506877116487674
3012.0,0.005462895701502157
3011.0,0.00537494623139545
3010.0,0.005330978174470591
3009.0,0.0052870145684298375
3008.0,0.0052870145684298375
3007.0,0.0052870145684298375
3006.0,0.005330978174470591
3005.0,0.00537494623139545
3004.0,0.005462895701502157
3003.0,0.005506877116487674
3002.0,0.005506877116487674
3001.0,0.005462895701502157
3000.0,0.00537494623139545
2999.0,0.005199100705396198
2998.0,0.005023326350308999
2997.0,0.00489154225525934
2996.0,0.00484762310854614
2995.0,0.00484762310854614
2994.0,0.004979393875242044
2993.0,0.005067263269958211
2992.0,0.005199100705396198
2991.0,0.005199100705396198
2990.0,0.005199100705396198
2989.0,0.005111204635089406
2988.0,0.005067263269958211
2987.0,0.005023326350308999
2986.0,0.005023326350308999
2985.0,0.005111204635089406
2984.0,0.005199100705396198
2983.0,0.0052870145684298375
2982.0,0.005330978174470591
2981.0,0.005330978174470591
2980.0,0.00541891874010525
2979.0,0.005462895701502157
2978.0,0.005550862985963967
2977.0,0.005682847330363394
2976.0,0.005814871797682919
2975.0,0.005990966876386672
2974.0,0.006167133386013823
2973.0,0.006387442061109638
2972.0,0.00656376950238835
2971.0,0.006740168563263094
2970.0,0.00696076819309055
2969.0,0.007181479933320523
2968.0,0.007402303897961815
2967.0,0.007667440952535687
2966.0,0.007932739972333236
2965.0,0.008330992620051436
2964.0,0.008685301823389224
2963.0,0.00908424549391551
2962.0,0.009439170005980158
2961.0,0.009794384815193347
2960.0,0.010194349063173958
2959.0,0.010550182333308289
2958.0,0.010995384301463185
2957.0,0.011396456654336085
2956.0,0.011842527443247208
2955.0,0.012244383261476699
2954.0,0.01260190086298274
2953.0,0.013004460275618523
2952.0,0.013362604389846044
2951.0,0.01385553528947936
2950.0,0.0144837121472845
2949.0,0.015292705517326866
2948.0,0.01632861713980338
2947.0,0.017502630802287644
2946.0,0.018770512579999288
2945.0,0.02026956933771462
2944.0,0.021956506090037076
2943.0,0.023879381700184332
2942.0,0.026087429580295085
2941.0,0.028538594975413334
2940.0,0.031236951802751545
2939.0,0.034187046963396917
2938.0,0.03739392707587297
2937.0,0.04086316882962593
2936.0,0.04464904263234004
2935.0,0.04871106272232795
2934.0,0.05330216275425803
2933.0,0.0582898510583536
2932.0,0.06363708040225546
2931.0,0.06930561233546473
2930.0,0.07541061433058172
2929.0,0.08207457793525874
2928.0,0.08953568400438638
2927.0,0.09805153492691598
2926.0,0.10768273927751948
2925.0,0.11844417020668851
2924.0,0.1304749371427727
2923.0,0.1438755557576996
2922.0,0.158765704493959
2921.0,0.1751585282462993
2920.0,0.192938760082761
2919.0,0.21147811277752715
2918.0,0.22929523178422073
2917.0,0.24420134302616936
2916.0,0.25383303562271453
2915.0,0.25649023527157033
2914.0,0.2521222941802099
2913.0,0.24222450898807435
2912.0,0.22922160383085233
2911.0,0.21545402594547736
2910.0,0.20238626984692432
2909.0,0.19050762306265812
2908.0,0.18019293540924397
2907.0,0.1714045436282976
2906.0,0.16386585053462532
2905.0,0.15745316350498495
2904.0,0.1519957285027318
2903.0,0.1472760892087941
2902.0,0.1432711096171173
2901.0,0.13990167030148193
2900.0,0.13685565374733244
2899.0,0.1340081998737246
2898.0,0.13123804178794973
2897.0,0.1284854412916181
2896.0,0.12569216687196105
2895.0,0.12291674334934943
2894.0,0.12015894401343741
2893.0,0.11736163830396129
2892.0,0.11463877996848804
2891.0,0.11187669270209155
2890.0,0.10907622851098608
2889.0,0.10612732120491852
2888.0,0.10319830233507843
2887.0,0.10023419805561384
2886.0,0.0972358560759139
2885.0,0.09420411963213149
2884.0,0.0910326995816122
2883.0,0.08772478950118767
2882.0,0.08444188458847957
2881.0,0.08102656950704579
2880.0,0.07758597585436577
2879.0,0.07406940213152868
2878.0,0.07063217075990047
2877.0,0.06737405597821788
2876.0,0.06429125215733666
2875.0,0.06133019897732073
2874.0,0.058538260652670315
2873.0,0.055961719945581745
2872.0,0.053646002773725554
2871.0,0.0515870342213991
2870.0,0.04978123335813667
2869.0,0.04832256265669943
2868.0,0.04730440041308315
2867.0,0.04667530361081473
2866.0,0.046481918555007384
2865.0,0.04682039893436585
2864.0,0.047691990337874746
2863.0,0.04919717703534143
2862.0,0.05144033789103841
2861.0,0.05462990550969615
2860.0,0.05898575629443026
2859.0,0.06469430971007495
2858.0,0.07191154033502922
2857.0,0.08071265949561734
2856.0,0.09140776115243066
2855.0,0.10441172433373724
2854.0,0.1202162199095842
2853.0,0.13894375542312654
2852.0,0.160145015398115
2851.0,0.18243463044021913
2850.0,0.20314825095011302
2849.0,0.2187474057515435
2848.0,0.22621355501880647
2847.0,0.22482661457521314
2846.0,0.2159535841918867
2845.0,0.20252471246266568
2844.0,0.18722029299103604
2843.0,0.17198493577602325
2842.0,0.15776531365276036
2841.0,0.14502632627358292
2840.0,0.13388996015562338
2839.0,0.12430223801979201
2838.0,0.11605480496572018
2837.0,0.10890877353227624
2836.0,0.10275789719463457
2835.0,0.09739886933346864
2834.0,0.09264239186882706
2833.0,0.08841629901892434
2832.0,0.08470571697731355
2831.0,0.08149786036382611
2830.0,0.07867775641617802
2829.0,0.07613452481449845
2828.0,0.07381195089279391
2827.0,0.07170658776779781
2826.0,0.06971335275448043
2825.0,0.06788152797087754
2824.0,0.06615853710127872
2823.0,0.06464390705442691
2822.0,0.06323500239005853
2821.0,0.06193081377661436
2820.0,0.060730413661268745
2819.0,0.0595831353183347
2818.0,0.05848856736559682
2817.0,0.057396751157843484
2816.0,0.05635711724787096
2815.0,0.05536929814372171
2814.0,0.05448217792216048
2813.0,0.05369514500652506
2812.0,0.05286048235717078
2811.0,0.05207638016827354
2810.0,0.05139145012356372
2809.0,0.05075640943173498
2808.0,0.050171041064686284
2807.0,0.04958646063061889
2806.0,0.04900266601119507
2805.0,0.04837110616336182
2804.0,0.04778894189133087
2803.0,0.04725597598510167
2802.0,0.04677202844014605
2801.0,0.04628861957244457
2800.0,0.04585401117045196
2799.0,0.04541983725624266
2798.0,0.044986096961949995
2797.0,0.04460091336073302
2796.0,0.04411991377462465
2795.0,0.04363944632667782
2794.0,0.0431115453499229
2793.0,0.042584285277331047
2792.0,0.042201225070002124
2791.0,0.04181850243505214
2790.0,0.04153168163305643
2789.0,0.041197296600497646
2788.0,0.04086316882962593
2787.0,0.04043395336207234
2786.0,0.040005161671583744
2785.0,0.03957679292217042
2784.0,0.03919637508823026
2783.0,0.038816290187564384
2782.0,0.03848398855105106
2781.0,0.038199360808321536
2780.0,0.03782014709123227
2779.0,0.037488606492403154
2778.0,0.0371573187987575
2777.0,0.03682628362474838
2776.0,0.036542739883292485
2775.0,0.03630659476198117
2774.0,0.0360705779734416
2773.0,0.03578752703018084
2772.0,0.03550466044490741
2771.0,0.03517488211661135
2770.0,0.0349394793888016
2769.0,0.03475124903287918
2768.0,0.03461012978487776
2767.0,0.034516075754861264
2766.0,0.03437503289075727
2765.0,0.03423403581731388
2764.0,0.034046110897937076
2763.0,0.0338113190438627
2762.0,0.03357665405630694
2761.0,0.03334211579824231
2760.0,0.033154576345083564
2759.0,0.032920265855503006
2758.0,0.03273290844021437
2757.0,0.032592443402527316
2756.0,0.03245202378113787
2755.0,0.03240522732811035
2754.0,0.03235843591698884
2753.0,0.03226486821611996
2752.0,0.03217132066984485
2751.0,0.032124554451966825
2750.0,0.03207779326948268
2749.0,0.032031037121307726
2748.0,0.031984286006358165
2747.0,0.03179733185715028
2746.0,0.031563752288295444
2745.0,0.03133029827960798
2744.0,0.031190286087141805
2743.0,0.031143625385307683
2742.0,0.03105031901865729
2741.0,0.031003673351687855
2740.0,0.030910397045078586
2739.0,0.030770520137356927
2738.0,0.03063068826647264
2737.0,0.030444315779156517
2736.0,0.03030458888152676
2735.0,0.03025802323714588
2734.0,0.030211462585061133
2733.0,0.030164906924202484
2732.0,0.030118356253500123
2731.0,0.030071810571884017
2730.0,0.029978734171634214
2729.0,0.029885677714903025
2728.0,0.029746130405213123
2727.0,0.02960662792039992
2726.0,0.029513651152349718
2725.0,0.02942069428514915
2724.0,0.02932775731028059
2723.0,0.029188389127482228
2722.0,0.029141943003497595
2721.0,0.02904906565457588
2720.0,0.028956208163971375
2719.0,0.028816959143838528
2718.0,0.02863136320857662
2717.0,0.02849221828874393
2716.0,0.02839947976994095
2715.0,0.028306761050139073
2714.0,0.028214062120885508
2713.0,0.02812138297373412
2712.0,0.02812138297373412
2711.0,0.028075050815808744
2710.0,0.028075050815808744
2709.0,0.028028723600243666
2708.0,0.02798240132598462
2707.0,0.027889771597169544
2706.0,0.027750864037404455
2705.0,0.027612000892527133
2704.0,0.02751945012352408
2703.0,0.02747318213414429
2702.0,0.02738066094037661
2701.0,0.027288159452933503
2700.0,0.027195677663422346
2699.0,0.027056991894431892
2698.0,0.02696455931306696
2697.0,0.026872146400301444
2696.0,0.026872146400301444
2695.0,0.026872146400301444
2694.0,0.026872146400301444
2693.0,0.02682594731702781
2692.0,0.02677975314776626
2691.0,0.02664120011360227
2690.0,0.02654885597506529
2689.0,0.026410376572743033
2688.0,0.026318081496016443
2687.0,0.026271941311972746
2686.0,0.026225806029419818
2685.0,0.02617967564731627
2684.0,0.026087429580295085
2683.0,0.02613355016462182
2682.0,0.02617967564731627
2681.0,0.026271941311972746
2680.0,0.02636422658259252
2679.0,0.026318081496016443
2678.0,0.026271941311972746
2677.0,0.026271941311972746
2676.0,0.02636422658259252
2675.0,0.026456531467510258
2674.0,0.02654885597506529
2673.0,0.026502691267936695
2672.0,0.026456531467510258
2671.0,0.02636422658259252
2670.0,0.026271941311972746
2669.0,0.026271941311972746
2668.0,0.026271941311972746
2667.0,0.026318081496016443
2666.0,0.02636422658259252
2665.0,0.026410376572743033
2664.0,0.026456531467510258
2663.0,0.026502691267936695
2662.0,0.02654885597506529
2661.0,0.026595025589939425
2660.0,0.02654885597506529
2659.0,0.026410376572743033
2658.0,0.026225806029419818
2657.0,0.02613355016462182
2656.0,0.026087429580295085
2655.0,0.026087429580295085
2654.0,0.02613355016462182
2653.0,0.02617967564731627
2652.0,0.026225806029419818
2651.0,0.026225806029419818
2650.0,0.02617967564731627
2649.0,0.02613355016462182
2648.0,0.026041313893296225
2647.0,0.025902996205869
2646.0,0.025810808881832736
2645.0,0.025718641122169483
2644.0,0.025718641122169483
2643.0,0.025764722556973707
2642.0,0.025764722556973707
2641.0,0.025718641122169483
2640.0,0.025672564576383117
2639.0,0.025672564576383117
2638.0,0.025718641122169483
2637.0,0.025764722556973707
2636.0,0.025810808881832736
2635.0,0.025856900097785074
2634.0,0.025810808881832736
2633.0,0.025718641122169483
2632.0,0.02562649291857677
2631.0,0.02562649291857677
2630.0,0.02562649291857677
2629.0,0.025672564576383117
2628.0,0.02562649291857677
2627.0,0.025488307262671706
2626.0,0.02539620791296726
2625.0,0.025304128090317013
2624.0,0.02521206778644225
2623.0,0.025074013910237447
2622.0,0.02498200236711723
2621.0,0.024890010313838973
2620.0,0.024890010313838973
2619.0,0.024890010313838973
2618.0,0.024890010313838973
2617.0,0.024890010313838973
2616.0,0.02484402159331056
2615.0,0.024798037742147727
2614.0,0.024706084643793647
2613.0,0.02461415101053266
2612.0,0.024476287039668643
2611.0,0.024338466818941473
2610.0,0.024246610963712723
2609.0,0.024200690320592466
2608.0,0.024200690320592466
2607.0,0.024200690320592466
2606.0,0.024154774532432866
2605.0,0.02406295751688936
2604.0,0.024017056287453542
2603.0,0.023971159908874107
2602.0,0.023971159908874107
2601.0,0.023925268380126097
2600.0,0.023833499868024743
2599.0,0.023787622882622816
2598.0,0.023741750742954926
2597.0,0.023741750742954926
2596.0,0.023741750742954926
2595.0,0.023695883447997224
2594.0,0.023695883447997224
2593.0,0.023695883447997224
2592.0,0.023695883447997224
2591.0,0.02365002099672653
2590.0,0.02355831062115543
2589.0,0.023466619608062178
2588.0,0.023374947949272418
2587.0,0.023374947949272418
2586.0,0.023329119375188556
2585.0,0.023283295636617574
2584.0,0.02314585342378117
2583.0,0.023054249440757957
2582.0,0.02296266477531872
2581.0,0.02296266477531872
2580.0,0.02300845469384938
2579.0,0.023054249440757957
2578.0,0.02300845469384938
2577.0,0.02296266477531872
2576.0,0.02291687968414724
2575.0,0.022871099419317753
2574.0,0.02282532397981263
2573.0,0.02282532397981263
2572.0,0.02277955336461468
2571.0,0.022733787572707387
2570.0,0.022642270454698687
2569.0,0.02255077261765881
2568.0,0.02245929405346514
2567.0,0.022413561996148967
2566.0,0.022367834754000393
2565.0,0.022367834754000393
2564.0,0.022367834754000393
2563.0,0.02227639471115217
2562.0,0.022230681908425698
2561.0,0.022139270735302752
2560.0,0.022093572362881675
2559.0,0.02204787879853809
2558.0,0.02204787879853809
2557.0,0.022139270735302752
2556.0,0.022230681908425698
2555.0,0.022322112326006227
2554.0,0.022322112326006227
2553.0,0.02227639471115217
2552.0,0.02227639471115217
2551.0,0.02227639471115217
2550.0,0.022322112326006227
2549.0,0.02227639471115217
2548.0,0.02227639471115217
2547.0,0.022230681908425698
2546.0,0.022230681908425698
2545.0,0.022230681908425698
2544.0,0.022230681908425698
2543.0,0.022139270735302752
2542.0,0.02200219004126036
2541.0,0.021865152601710403
2540.0,0.02168250325324883
2539.0,0.021636852916117055
2538.0,0.021636852916117055
2537.0,0.02168250325324883
2536.0,0.021636852916117055
2535.0,0.02159120737696063
2534.0,0.021545566634771474
2533.0,0.021545566634771474
2532.0,0.021636852916117055
2531.0,0.02168250325324883
2530.0,0.021728158389364705
2529.0,0.02168250325324883
2528.0,0.02159120737696063
2527.0,0.021545566634771474
2526.0,0.021545566634771474
2525.0,0.021499930688540836
2524.0,0.021499930688540836
2523.0,0.021499930688540836
2522.0,0.021545566634771474
2521.0,0.021499930688540836
2520.0,0.0214542995372613
2519.0,0.021363051615525652
2518.0,0.02122621566987748
2517.0,0.021135015652343103
2516.0,0.021089422824428272
2515.0,0.021089422824428272
2514.0,0.021089422824428272
2513.0,0.021089422824428272
2512.0,0.021089422824428272
2511.0,0.021089422824428272
2510.0,0.0209982515252789
2509.0,0.020952673052035298
2508.0,0.0209982515252789
2507.0,0.021043834782408455
2506.0,0.021089422824428272
2505.0,0.021043834782408455
2504.0,0.0209982515252789
2503.0,0.020907099361673565
2502.0,0.020861530453190058
2501.0,0.020861530453190058
2500.0,0.020952673052035298
2499.0,0.0209982515252789
2498.0,0.0209982515252789
2497.0,0.020952673052035298
2496.0,0.020907099361673565
2495.0,0.020861530453190058
2494.0,0.020861530453190058
2493.0,0.020861530453190058
2492.0,0.020907099361673565
2491.0,0.020907099361673565
2490.0,0.020907099361673565
2489.0,0.020907099361673565
2488.0,0.020952673052035298
2487.0,0.021043834782408455
2486.0,0.021043834782408455
2485.0,0.0209982515252789
2484.0,0.020907099361673565
2483.0,0.02081596632558158
2482.0,0.020770406977844713
2481.0,0.020770406977844713
2480.0,0.02081596632558158
2479.0,0.02081596632558158
2478.0,0.020770406977844713
2477.0,0.020724852408976924
2476.0,0.020724852408976924
2475.0,0.02081596632558158
2474.0,0.020907099361673565
2473.0,0.020952673052035298
2472.0,0.0209982515252789
2471.0,0.020907099361673565
2470.0,0.02081596632558158
2469.0,0.02067930261797568
2468.0,0.02058821736556471
2467.0,0.020497151212598652
2466.0,0.02045162529590483
2465.0,0.020406104151069693
2464.0,0.02036058777709271
2463.0,0.02036058777709271
2462.0,0.02036058777709271
2461.0,0.02036058777709271
2460.0,0.020315076172974234
2459.0,0.02022406727031445
2458.0,0.02013307743509718
2457.0,0.02004210665933459
2456.0,0.019996628416253603
2455.0,0.019996628416253603
2454.0,0.019996628416253603
2453.0,0.01995115493504329
2452.0,0.019996628416253603
2451.0,0.02004210665933459
2450.0,0.02013307743509718
2449.0,0.020178569969774962
2448.0,0.02013307743509718
2447.0,0.020087589665283012
2446.0,0.020087589665283012
2445.0,0.02013307743509718
2444.0,0.020178569969774962
2443.0,0.02022406727031445
2442.0,0.02022406727031445
2441.0,0.02026956933771462
2440.0,0.020315076172974234
2439.0,0.020315076172974234
2438.0,0.020315076172974234
2437.0,0.020315076172974234
2436.0,0.02026956933771462
2435.0,0.02022406727031445
2434.0,0.020178569969774962
2433.0,0.020178569969774962
2432.0,0.020178569969774962
2431.0,0.020178569969774962
2430.0,0.020178569969774962
2429.0,0.02013307743509718
2428.0,0.020087589665283012
2427.0,0.020087589665283012
2426.0,0.020087589665283012
2425.0,0.02013307743509718
2424.0,0.020178569969774962
2423.0,0.02022406727031445
2422.0,0.020315076172974234
2421.0,0.02036058777709271
2420.0,0.020406104151069693
2419.0,0.02045162529590483
2418.0,0.02045162529590483
2417.0,0.020406104151069693
2416.0,0.02036058777709271
2415.0,0.020315076172974234
2414.0,0.02026956933771462
2413.0,0.02022406727031445
2412.0,0.020178569969774962
2411.0,0.020178569969774962
2410.0,0.02013307743509718
2409.0,0.020087589665283012
2408.0,0.020087589665283012
2407.0,0.02004210665933459
2406.0,0.019996628416253603
2405.0,0.01995115493504329
2404.0,0.01995115493504329
2403.0,0.019996628416253603
2402.0,0.020087589665283012
2401.0,0.020087589665283012
2400.0,0.020087589665283012
2399.0,0.020087589665283012
2398.0,0.020087589665283012
2397.0,0.020087589665283012
2396.0,0.020087589665283012
2395.0,0.019996628416253603
2394.0,0.01995115493504329
2393.0,0.01995115493504329
2392.0,0.02004210665933459
2391.0,0.020087589665283012
2390.0,0.02004210665933459
2389.0,0.01990568621470623
2388.0,0.019769308608968306
2387.0,0.01958753839310856
2386.0,0.01949668180660491
2385.0,0.019360432556262852
2384.0,0.019269623464054586
2383.0,0.0190880622231564
2382.0,0.018951941086827073
2381.0,0.018815862601645694
2380.0,0.018679826740892747
2379.0,0.018543833477873584
2378.0,0.01845319495476394
2377.0,0.018498511851753108
2376.0,0.018498511851753108
2375.0,0.018498511851753108
2374.0,0.018543833477873584
2373.0,0.018679826740892747
2372.0,0.018770512579999288
2371.0,0.018543833477873584
2370.0,0.017728766960431575
2369.0,0.016509028184833463
2368.0,0.01547268665620738
2367.0,0.015517693597737248
2366.0,0.016734647433454652
2365.0,0.01845319495476394
2364.0,0.01954210772389997
2363.0,0.019769308608968306
2362.0,0.019451260640229506
2361.0,0.019042683770379876
2360.0,0.018498511851753108
2359.0,0.017728766960431575
2358.0,0.016960383953898095
2357.0,0.01646391839700767
2356.0,0.016418813294209356
2355.0,0.016915227262211507
2354.0,0.017864505196230507
2353.0,0.018815862601645694
2352.0,0.019269623464054586
2351.0,0.0190880622231564
2350.0,0.018679826740892747
2349.0,0.018271974638383703
2348.0,0.017909760704207134
2347.0,0.017457417697056554
2346.0,0.016960383953898095
2345.0,0.016373712875465518
2344.0,0.01578783323856614
2343.0,0.015562705203923999
2342.0,0.015832872853011715
2341.0,0.016418813294209356
2340.0,0.016870075265299933
2339.0,0.017141057687924732
2338.0,0.017367005605150476
2337.0,0.017638298366853045
2336.0,0.017909760704207134
2335.0,0.01809082990920774
2334.0,0.018136109008649592
2333.0,0.01809082990920774
2332.0,0.018045555530026514
2331.0,0.018045555530026514
2330.0,0.018181392829336396
2329.0,0.018362575344230914
2328.0,0.018362575344230914
2327.0,0.018181392829336396
2326.0,0.017955020928509757
2325.0,0.018045555530026514
2324.0,0.01845319495476394
2323.0,0.018951941086827073
2322.0,0.0192242260373785
2321.0,0.0190880622231564
2320.0,0.018815862601645694
2319.0,0.018634490921455527
2318.0,0.018725167293411005
2317.0,0.019042683770379876
2316.0,0.01940584422377989
2315.0,0.019678413991243593
2314.0,0.019814763052665052
2313.0,0.019769308608968306
2312.0,0.01958753839310856
2311.0,0.01940584422377989
2310.0,0.019269623464054586
2309.0,0.0192242260373785
2308.0,0.019178833355664393
2307.0,0.019178833355664393
2306.0,0.019178833355664393
2305.0,0.0192242260373785
2304.0,0.0192242260373785
2303.0,0.019269623464054586
2302.0,0.019315025636685412
2301.0,0.019315025636685412
2300.0,0.019269623464054586
2299.0,0.0192242260373785
2298.0,0.019269623464054586
2297.0,0.019360432556262852
2296.0,0.01940584422377989
2295.0,0.019451260640229506
2294.0,0.019451260640229506
2293.0,0.01949668180660491
2292.0,0.01954210772389997
2291.0,0.01958753839310856
2290.0,0.019632973815224997
2289.0,0.019723858922159776
2288.0,0.019860222254245663
2287.0,0.01995115493504329
2286.0,0.02004210665933459
2285.0,0.02004210665933459
2284.0,0.02004210665933459
2283.0,0.019996628416253603
2282.0,0.01995115493504329
2281.0,0.01995115493504329
2280.0,0.01995115493504329
2279.0,0.01995115493504329
2278.0,0.01990568621470623
2277.0,0.019860222254245663
2276.0,0.019814763052665052
2275.0,0.019769308608968306
2274.0,0.019769308608968306
2273.0,0.019769308608968306
2272.0,0.019723858922159776
2271.0,0.019678413991243593
2270.0,0.019632973815224997
2269.0,0.01958753839310856
2268.0,0.01958753839310856
2267.0,0.01954210772389997
2266.0,0.019451260640229506
2265.0,0.01940584422377989
2264.0,0.01940584422377989
2263.0,0.01940584422377989
2262.0,0.01940584422377989
2261.0,0.019451260640229506
2260.0,0.019451260640229506
2259.0,0.019451260640229506
2258.0,0.01940584422377989
2257.0,0.01940584422377989
2256.0,0.019360432556262852
2255.0,0.019360432556262852
2254.0,0.01940584422377989
2253.0,0.019451260640229506
2252.0,0.01954210772389997
2251.0,0.01958753839310856
2250.0,0.019632973815224997
2249.0,0.019678413991243593
2248.0,0.019678413991243593
2247.0,0.019678413991243593
2246.0,0.019678413991243593
2245.0,0.019678413991243593
2244.0,0.019678413991243593
2243.0,0.019678413991243593
2242.0,0.019723858922159776
2241.0,0.019678413991243593
2240.0,0.019632973815224997
2239.0,0.019632973815224997
2238.0,0.019632973815224997
2237.0,0.019632973815224997
2236.0,0.019632973815224997
2235.0,0.019632973815224997
2234.0,0.019632973815224997
2233.0,0.019632973815224997
2232.0,0.01958753839310856
2231.0,0.01958753839310856
2230.0,0.019632973815224997
2229.0,0.019632973815224997
2228.0,0.01958753839310856
2227.0,0.01949668180660491
2226.0,0.01949668180660491
2225.0,0.01954210772389997
2224.0,0.019632973815224997
2223.0,0.019723858922159776
2222.0,0.019723858922159776
2221.0,0.019678413991243593
2220.0,0.01958753839310856
2219.0,0.01949668180660491
2218.0,0.01940584422377989
2217.0,0.019360432556262852
2216.0,0.019360432556262852
2215.0,0.01940584422377989
2214.0,0.019451260640229506
2213.0,0.01949668180660491
2212.0,0.01949668180660491
2211.0,0.01949668180660491
2210.0,0.01949668180660491
2209.0,0.01954210772389997
2208.0,0.01958753839310856
2207.0,0.019632973815224997
2206.0,0.019632973815224997
2205.0,0.01958753839310856
2204.0,0.01949668180660491
2203.0,0.019451260640229506
2202.0,0.019451260640229506
2201.0,0.01949668180660491
2200.0,0.019451260640229506
2199.0,0.019360432556262852
2198.0,0.019269623464054586
2197.0,0.0192242260373785
2196.0,0.019269623464054586
2195.0,0.019360432556262852
2194.0,0.01949668180660491
2193.0,0.01958753839310856
2192.0,0.019632973815224997
2191.0,0.019632973815224997
2190.0,0.019678413991243593
2189.0,0.019678413991243593
2188.0,0.019678413991243593
2187.0,0.019678413991243593
2186.0,0.019678413991243593
2185.0,0.019632973815224997
2184.0,0.01958753839310856
2183.0,0.01954210772389997
2182.0,0.01958753839310856
2181.0,0.01958753839310856
2180.0,0.01958753839310856
2179.0,0.01954210772389997
2178.0,0.01954210772389997
2177.0,0.01958753839310856
2176.0,0.019632973815224997
2175.0,0.019678413991243593
2174.0,0.019769308608968306
2173.0,0.019814763052665052
2172.0,0.019814763052665052
2171.0,0.019723858922159776
2170.0,0.019632973815224997
2169.0,0.01958753839310856
2168.0,0.019632973815224997
2167.0,0.019632973815224997
2166.0,0.01958753839310856
2165.0,0.01954210772389997
2164.0,0.01949668180660491
2163.0,0.01949668180660491
2162.0,0.01958753839310856
2161.0,0.019678413991243593
2160.0,0.019769308608968306
2159.0,0.019814763052665052
2158.0,0.019769308608968306
2157.0,0.019678413991243593
2156.0,0.01958753839310856
2155.0,0.01958753839310856
2154.0,0.01958753839310856
2153.0,0.019632973815224997
2152.0,0.019678413991243593
2151.0,0.019678413991243593
2150.0,0.019723858922159776
2149.0,0.019723858922159776
2148.0,0.019723858922159776
2147.0,0.019678413991243593
2146.0,0.019632973815224997
2145.0,0.019632973815224997
2144.0,0.019632973815224997
2143.0,0.019632973815224997
2142.0,0.019632973815224997
2141.0,0.019678413991243593
2140.0,0.019723858922159776
2139.0,0.019723858922159776
2138.0,0.019723858922159776
2137.0,0.019678413991243593
2136.0,0.019632973815224997
2135.0,0.019632973815224997
2134.0,0.019632973815224997
2133.0,0.019678413991243593
2132.0,0.019723858922159776
2131.0,0.019723858922159776
2130.0,0.019723858922159776
2129.0,0.019723858922159776
2128.0,0.019678413991243593
2127.0,0.019678413991243593
2126.0,0.019678413991243593
2125.0,0.019678413991243593
2124.0,0.019632973815224997
2123.0,0.01954210772389997
2122.0,0.01940584422377989
2121.0,0.019315025636685412
2120.0,0.019315025636685412
2119.0,0.019360432556262852
2118.0,0.019451260640229506
2117.0,0.01949668180660491
2116.0,0.01949668180660491
2115.0,0.01949668180660491
2114.0,0.019451260640229506
2113.0,0.019451260640229506
2112.0,0.01940584422377989
2111.0,0.01940584422377989
2110.0,0.01940584422377989
2109.0,0.019451260640229506
2108.0,0.01949668180660491
2107.0,0.019451260640229506
2106.0,0.01940584422377989
2105.0,0.01940584422377989
2104.0,0.01940584422377989
2103.0,0.019360432556262852
2102.0,0.019360432556262852
2101.0,0.019360432556262852
2100.0,0.019451260640229506
2099.0,0.01958753839310856
2098.0,0.019678413991243593
2097.0,0.019678413991243593
2096.0,0.01958753839310856
2095.0,0.019451260640229506
2094.0,0.01940584422377989
2093.0,0.019360432556262852
2092.0,0.01940584422377989
2091.0,0.019451260640229506
2090.0,0.01949668180660491
2089.0,0.01954210772389997
2088.0,0.01954210772389997
2087.0,0.01954210772389997
2086.0,0.01949668180660491
2085.0,0.019451260640229506
2084.0,0.01940584422377989
2083.0,0.019360432556262852
2082.0,0.019360432556262852
2081.0,0.019360432556262852
2080.0,0.019360432556262852
2079.0,0.019360432556262852
2078.0,0.01940584422377989
2077.0,0.019451260640229506
2076.0,0.01949668180660491
2075.0,0.01954210772389997
2074.0,0.01954210772389997
2073.0,0.01949668180660491
2072.0,0.01949668180660491
2071.0,0.01949668180660491
2070.0,0.01949668180660491
2069.0,0.01949668180660491
2068.0,0.01949668180660491
2067.0,0.019451260640229506
2066.0,0.019451260640229506
2065.0,0.01949668180660491
2064.0,0.01949668180660491
2063.0,0.01949668180660491
2062.0,0.01949668180660491
2061.0,0.01954210772389997
2060.0,0.019632973815224997
2059.0,0.019678413991243593
2058.0,0.019678413991243593
2057.0,0.019723858922159776
2056.0,0.019723858922159776
2055.0,0.019678413991243593
2054.0,0.01958753839310856
2053.0,0.01954210772389997
2052.0,0.01958753839310856
2051.0,0.019632973815224997
2050.0,0.019632973815224997
2049.0,0.019632973815224997
2048.0,0.019632973815224997
2047.0,0.019678413991243593
2046.0,0.019678413991243593
2045.0,0.019678413991243593
2044.0,0.019632973815224997
2043.0,0.019632973815224997
2042.0,0.019632973815224997
2041.0,0.019632973815224997
2040.0,0.01958753839310856
2039.0,0.01954210772389997
2038.0,0.01949668180660491
2037.0,0.01958753839310856
2036.0,0.019678413991243593
2035.0,0.019814763052665052
2034.0,0.019814763052665052
2033.0,0.019814763052665052
2032.0,0.019769308608968306
2031.0,0.019814763052665052
2030.0,0.019814763052665052
2029.0,0.019860222254245663
2028.0,0.01990568621470623
2027.0,0.01990568621470623
2026.0,0.019860222254245663
2025.0,0.019814763052665052
2024.0,0.019769308608968306
2023.0,0.019723858922159776
2022.0,0.019769308608968306
2021.0,0.019814763052665052
2020.0,0.019860222254245663
2019.0,0.019860222254245663
2018.0,0.01990568621470623
2017.0,0.01990568621470623
2016.0,0.01995115493504329
2015.0,0.01990568621470623
2014.0,0.01990568621470623
2013.0,0.019860222254245663
2012.0,0.019814763052665052
2011.0,0.019723858922159776
2010.0,0.019632973815224997
2009.0,0.01954210772389997
2008.0,0.019451260640229506
2007.0,0.01940584422377989
2006.0,0.01940584422377989
2005.0,0.019451260640229506
2004.0,0.019451260640229506
2003.0,0.019451260640229506
2002.0,0.01940584422377989
2001.0,0.01940584422377989
2000.0,0.019451260640229506
1999.0,0.019451260640229506
1998.0,0.019451260640229506
1997.0,0.019451260640229506
1996.0,0.019451260640229506
1995.0,0.019451260640229506
1994.0,0.019451260640229506
1993.0,0.01949668180660491
1992.0,0.01954210772389997
1991.0,0.01954210772389997
1990.0,0.01958753839310856
1989.0,0.019678413991243593
1988.0,0.019723858922159776
1987.0,0.019723858922159776
1986.0,0.019632973815224997
1985.0,0.01954210772389997
1984.0,0.01949668180660491
1983.0,0.01940584422377989
1982.0,0.019360432556262852
1981.0,0.019360432556262852
1980.0,0.01940584422377989
1979.0,0.01949668180660491
1978.0,0.01954210772389997
1977.0,0.01958753839310856
1976.0,0.01958753839310856
1975.0,0.01958753839310856
1974.0,0.01954210772389997
1973.0,0.01949668180660491
1972.0,0.01940584422377989
1971.0,0.019360432556262852
1970.0,0.01940584422377989
1969.0,0.01949668180660491
1968.0,0.01958753839310856
1967.0,0.01954210772389997
1966.0,0.019451260640229506
1965.0,0.019360432556262852
1964.0,0.019269623464054586
1963.0,0.019269623464054586
1962.0,0.019315025636685412
1961.0,0.019315025636685412
1960.0,0.019269623464054586
1959.0,0.019269623464054586
1958.0,0.019269623464054586
1957.0,0.019315025636685412
1956.0,0.019315025636685412
1955.0,0.019315025636685412
1954.0,0.019315025636685412
1953.0,0.019315025636685412
1952.0,0.019360432556262852
1951.0,0.019360432556262852
1950.0,0.01940584422377989
1949.0,0.01940584422377989
1948.0,0.01940584422377989
1947.0,0.019360432556262852
1946.0,0.019269623464054586
1945.0,0.0192242260373785
1944.0,0.0192242260373785
1943.0,0.019269623464054586
1942.0,0.019269623464054586
1941.0,0.019269623464054586
1940.0,0.019269623464054586
1939.0,0.019315025636685412
1938.0,0.019269623464054586
1937.0,0.0192242260373785
1936.0,0.019133445417920836
1935.0,0.019042683770379876
1934.0,0.01899731005860028
1933.0,0.01899731005860028
1932.0,0.0190880622231564
1931.0,0.019133445417920836
1930.0,0.0192242260373785
1929.0,0.019269623464054586
1928.0,0.019269623464054586
1927.0,0.019269623464054586
1926.0,0.019269623464054586
1925.0,0.019315025636685412
1924.0,0.019315025636685412
1923.0,0.019315025636685412
1922.0,0.019315025636685412
1921.0,0.019360432556262852
1920.0,0.019451260640229506
1919.0,0.01954210772389997
1918.0,0.01958753839310856
1917.0,0.01954210772389997
1916.0,0.019451260640229506
1915.0,0.019360432556262852
1914.0,0.019269623464054586
1913.0,0.0192242260373785
1912.0,0.019178833355664393
1911.0,0.0192242260373785
1910.0,0.019315025636685412
1909.0,0.01940584422377989
1908.0,0.019451260640229506
1907.0,0.01949668180660491
1906.0,0.01954210772389997
1905.0,0.019632973815224997
1904.0,0.019723858922159776
1903.0,0.019723858922159776
1902.0,0.019723858922159776
1901.0,0.019723858922159776
1900.0,0.019723858922159776
1899.0,0.019723858922159776
1898.0,0.019678413991243593
1897.0,0.019723858922159776
1896.0,0.019723858922159776
1895.0,0.019678413991243593
1894.0,0.019632973815224997
1893.0,0.01958753839310856
1892.0,0.01949668180660491
1891.0,0.01940584422377989
1890.0,0.019360432556262852
1889.0,0.019315025636685412
1888.0,0.019269623464054586
1887.0,0.019269623464054586
1886.0,0.019269623464054586
1885.0,0.019315025636685412
1884.0,0.019269623464054586
1883.0,0.0192242260373785
1882.0,0.019133445417920836
1881.0,0.019042683770379876
1880.0,0.019042683770379876
1879.0,0.01899731005860028
1878.0,0.019042683770379876
1877.0,0.0190880622231564
1876.0,0.019178833355664393
1875.0,0.019178833355664393
1874.0,0.0190880622231564
1873.0,0.01899731005860028
1872.0,0.018951941086827073
1871.0,0.018906576854070378
1870.0,0.018906576854070378
1869.0,0.018951941086827073
1868.0,0.018951941086827073
1867.0,0.01899731005860028
1866.0,0.019042683770379876
1865.0,0.0190880622231564
1864.0,0.019042683770379876
1863.0,0.01899731005860028
1862.0,0.018951941086827073
1861.0,0.01899731005860028
1860.0,0.01899731005860028
1859.0,0.019042683770379876
1858.0,0.019042683770379876
1857.0,0.0190880622231564
1856.0,0.019042683770379876
1855.0,0.019042683770379876
1854.0,0.019042683770379876
1853.0,0.019042683770379876
1852.0,0.019042683770379876
1851.0,0.01899731005860028
1850.0,0.018951941086827073
1849.0,0.018906576854070378
1848.0,0.018861217359339655
1847.0,0.018815862601645694
1846.0,0.018861217359339655
1845.0,0.018861217359339655
1844.0,0.018861217359339655
1843.0,0.018770512579999288
1842.0,0.018770512579999288
1841.0,0.018770512579999288
1840.0,0.018815862601645694
1839.0,0.018770512579999288
1838.0,0.018725167293411005
1837.0,0.018725167293411005
1836.0,0.018725167293411005
1835.0,0.018770512579999288
1834.0,0.018725167293411005
1833.0,0.018725167293411005
1832.0,0.018679826740892747
1831.0,0.018634490921455527
1830.0,0.01858915983411169
1829.0,0.018543833477873584
1828.0,0.01858915983411169
1827.0,0.018679826740892747
1826.0,0.018725167293411005
1825.0,0.018679826740892747
1824.0,0.01858915983411169
1823.0,0.018543833477873584
1822.0,0.018543833477873584
1821.0,0.018543833477873584
1820.0,0.018543833477873584
1819.0,0.018543833477873584
1818.0,0.018543833477873584
1817.0,0.01858915983411169
1816.0,0.018634490921455527
1815.0,0.018634490921455527
1814.0,0.018679826740892747
1813.0,0.018725167293411005
1812.0,0.018725167293411005
1811.0,0.018679826740892747
1810.0,0.01858915983411169
1809.0,0.01858915983411169
1808.0,0.018634490921455527
1807.0,0.018679826740892747
1806.0,0.018725167293411005
1805.0,0.018770512579999288
1804.0,0.018725167293411005
1803.0,0.018634490921455527
1802.0,0.01858915983411169
1801.0,0.01858915983411169
1800.0,0.018679826740892747
1799.0,0.018679826740892747
1798.0,0.018634490921455527
1797.0,0.01858915983411169
1796.0,0.01858915983411169
1795.0,0.01858915983411169
1794.0,0.018634490921455527
1793.0,0.018725167293411005
1792.0,0.018725167293411005
1791.0,0.018634490921455527
1790.0,0.018634490921455527
1789.0,0.018634490921455527
1788.0,0.018679826740892747
1787.0,0.018725167293411005
1786.0,0.018725167293411005
1785.0,0.018770512579999288
1784.0,0.018725167293411005
1783.0,0.018634490921455527
1782.0,0.01858915983411169
1781.0,0.018543833477873584
1780.0,0.018498511851753108
1779.0,0.018498511851753108
1778.0,0.01845319495476394
1777.0,0.01840788278591865
1776.0,0.018362575344230914
1775.0,0.01831727262871463
1774.0,0.018226681372252695
1773.0,0.018226681372252695
1772.0,0.018271974638383703
1771.0,0.01831727262871463
1770.0,0.01845319495476394
1769.0,0.018634490921455527
1768.0,0.018725167293411005
1767.0,0.018679826740892747
1766.0,0.01858915983411169
1765.0,0.018498511851753108
1764.0,0.018498511851753108
1763.0,0.01845319495476394
1762.0,0.018498511851753108
1761.0,0.018498511851753108
1760.0,0.018543833477873584
1759.0,0.01858915983411169
1758.0,0.018634490921455527
1757.0,0.018725167293411005
1756.0,0.018770512579999288
1755.0,0.018815862601645694
1754.0,0.018815862601645694
1753.0,0.018770512579999288
1752.0,0.018770512579999288
1751.0,0.018725167293411005
1750.0,0.018725167293411005
1749.0,0.018770512579999288
1748.0,0.018906576854070378
1747.0,0.0190880622231564
1746.0,0.0192242260373785
1745.0,0.019360432556262852
1744.0,0.019451260640229506
1743.0,0.01940584422377989
1742.0,0.019360432556262852
1741.0,0.019315025636685412
1740.0,0.019315025636685412
1739.0,0.019315025636685412
1738.0,0.019315025636685412
1737.0,0.019269623464054586
1736.0,0.0192242260373785
1735.0,0.019133445417920836
1734.0,0.019133445417920836
1733.0,0.019042683770379876
1732.0,0.019042683770379876
1731.0,0.019133445417920836
1730.0,0.0192242260373785
1729.0,0.019269623464054586
1728.0,0.019315025636685412
1727.0,0.019315025636685412
1726.0,0.019315025636685412
1725.0,0.019269623464054586
1724.0,0.0192242260373785
1723.0,0.0190880622231564
1722.0,0.01899731005860028
1721.0,0.01899731005860028
1720.0,0.018951941086827073
1719.0,0.018951941086827073
1718.0,0.01899731005860028
1717.0,0.019042683770379876
1716.0,0.01899731005860028
1715.0,0.018951941086827073
1714.0,0.01899731005860028
1713.0,0.01899731005860028
1712.0,0.01899731005860028
1711.0,0.018861217359339655
1710.0,0.018725167293411005
1709.0,0.01858915983411169
1708.0,0.01845319495476394
1707.0,0.018362575344230914
1706.0,0.01831727262871463
1705.0,0.01831727262871463
1704.0,0.018498511851753108
1703.0,0.018725167293411005
1702.0,0.018906576854070378
1701.0,0.018951941086827073
1700.0,0.018815862601645694
1699.0,0.018543833477873584
1698.0,0.01858915983411169
1697.0,0.018770512579999288
1696.0,0.018815862601645694
1695.0,0.018725167293411005
1694.0,0.018634490921455527
1693.0,0.018725167293411005
1692.0,0.018725167293411005
1691.0,0.018634490921455527
1690.0,0.018498511851753108
1689.0,0.01845319495476394
1688.0,0.01845319495476394
1687.0,0.018498511851753108
1686.0,0.018498511851753108
1685.0,0.018679826740892747
1684.0,0.018815862601645694
1683.0,0.018770512579999288
1682.0,0.018815862601645694
1681.0,0.018906576854070378
1680.0,0.018861217359339655
1679.0,0.018770512579999288
1678.0,0.018770512579999288
1677.0,0.018861217359339655
1676.0,0.018906576854070378
1675.0,0.018906576854070378
1674.0,0.018815862601645694
1673.0,0.018679826740892747
1672.0,0.01858915983411169
1671.0,0.01845319495476394
1670.0,0.018498511851753108
1669.0,0.01858915983411169
1668.0,0.018725167293411005
1667.0,0.018770512579999288
1666.0,0.018815862601645694
1665.0,0.018861217359339655
1664.0,0.018951941086827073
1663.0,0.018951941086827073
1662.0,0.018951941086827073
1661.0,0.018906576854070378
1660.0,0.018906576854070378
1659.0,0.018861217359339655
1658.0,0.018770512579999288
1657.0,0.018725167293411005
1656.0,0.018815862601645694
1655.0,0.018906576854070378
1654.0,0.019133445417920836
1653.0,0.019133445417920836
1652.0,0.01858915983411169
1651.0,0.018498511851753108
1650.0,0.018679826740892747
1649.0,0.018770512579999288
1648.0,0.018815862601645694
1647.0,0.018906576854070378
1646.0,0.018861217359339655
1645.0,0.018815862601645694
1644.0,0.018861217359339655
1643.0,0.018951941086827073
1642.0,0.01899731005860028
1641.0,0.01899731005860028
1640.0,0.018951941086827073
1639.0,0.018861217359339655
1638.0,0.018815862601645694
1637.0,0.018861217359339655
1636.0,0.0190880622231564
1635.0,0.019042683770379876
1634.0,0.018906576854070378
1633.0,0.018906576854070378
1632.0,0.018906576854070378
1631.0,0.018861217359339655
1630.0,0.018770512579999288
1629.0,0.018725167293411005
1628.0,0.018725167293411005
1627.0,0.018725167293411005
1626.0,0.018815862601645694
1625.0,0.018906576854070378
1624.0,0.018951941086827073
1623.0,0.018861217359339655
1622.0,0.018679826740892747
1621.0,0.01858915983411169
1620.0,0.01858915983411169
1619.0,0.018543833477873584
1618.0,0.01858915983411169
1617.0,0.018634490921455527
1616.0,0.018634490921455527
1615.0,0.018679826740892747
1614.0,0.018815862601645694
1613.0,0.018906576854070378
1612.0,0.018815862601645694
1611.0,0.01858915983411169
1610.0,0.01840788278591865
1609.0,0.01831727262871463
1608.0,0.01840788278591865
1607.0,0.018543833477873584
1606.0,0.018634490921455527
1605.0,0.018679826740892747
1604.0,0.018679826740892747
1603.0,0.018634490921455527
1602.0,0.01858915983411169
1601.0,0.01858915983411169
1600.0,0.01858915983411169
1599.0,0.01858915983411169
1598.0,0.018543833477873584
1597.0,0.01845319495476394
1596.0,0.018362575344230914
1595.0,0.018271974638383703
1594.0,0.018226681372252695
1593.0,0.018226681372252695
1592.0,0.018226681372252695
1591.0,0.018226681372252695
1590.0,0.018226681372252695
1589.0,0.018271974638383703
1588.0,0.01831727262871463
1587.0,0.018362575344230914
1586.0,0.01840788278591865
1585.0,0.01845319495476394
1584.0,0.01845319495476394
1583.0,0.01845319495476394
1582.0,0.018498511851753108
1581.0,0.01845319495476394
1580.0,0.01840788278591865
1579.0,0.01831727262871463
1578.0,0.018271974638383703
1577.0,0.01831727262871463
1576.0,0.018362575344230914
1575.0,0.018271974638383703
1574.0,0.018271974638383703
1573.0,0.018271974638383703
1572.0,0.018271974638383703
1571.0,0.018181392829336396
1570.0,0.01809082990920774
1569.0,0.01809082990920774
1568.0,0.018136109008649592
1567.0,0.018181392829336396
1566.0,0.018136109008649592
1565.0,0.01809082990920774
1564.0,0.01800028587012159
1563.0,0.01800028587012159
1562.0,0.017955020928509757
1561.0,0.017864505196230507
1560.0,0.01800028587012159
1559.0,0.018498511851753108
1558.0,0.01831727262871463
1557.0,0.018181392829336396
1556.0,0.018181392829336396
1555.0,0.01809082990920774
1554.0,0.017909760704207134
1553.0,0.01781925440359733
1552.0,0.01781925440359733
1551.0,0.017864505196230507
1550.0,0.01781925440359733
1549.0,0.017774008325325275
1548.0,0.017774008325325275
1547.0,0.017728766960431575
1546.0,0.017638298366853045
1545.0,0.017547848615010242
1544.0,0.017547848615010242
1543.0,0.017547848615010242
1542.0,0.017502630802287644
1541.0,0.017638298366853045
1540.0,0.017774008325325275
1539.0,0.017457417697056554
1538.0,0.017231422748988034
1537.0,0.01727661233145472
1536.0,0.017367005605150476
1535.0,0.017321806616515723
1534.0,0.017186237868137555
1533.0,0.017095882207371904
1532.0,0.017095882207371904
1531.0,0.017141057687924732
1530.0,0.017095882207371904
1529.0,0.017095882207371904
1528.0,0.017141057687924732
1527.0,0.017141057687924732
1526.0,0.017141057687924732
1525.0,0.017095882207371904
1524.0,0.017050711425501408
1523.0,0.016960383953898095
1522.0,0.016960383953898095
1521.0,0.017141057687924732
1520.0,0.017231422748988034
1519.0,0.017186237868137555
1518.0,0.017005545341335804
1517.0,0.016824927962187042
1516.0,0.016689514205884493
1515.0,0.016599261819461697
1514.0,0.016599261819461697
1513.0,0.016599261819461697
1512.0,0.016554142658660398
1511.0,0.01646391839700767
1510.0,0.01632861713980338
1509.0,0.01628352608625061
1508.0,0.016418813294209356
1507.0,0.016599261819461697
1506.0,0.016554142658660398
1505.0,0.016554142658660398
1504.0,0.016644385668211692
1503.0,0.016599261819461697
1502.0,0.016418813294209356
1501.0,0.016238439713835096
1500.0,0.016148281008528276
1499.0,0.016058141016111804
1498.0,0.01596801972881945
1497.0,0.016013078034810446
1496.0,0.016058141016111804
1495.0,0.015922966097169144
1494.0,0.01578783323856614
1493.0,0.015697768020096703
1492.0,0.015607721475734415
1491.0,0.015337693809893471
1490.0,0.015022873584506602
1489.0,0.014977917890464765
1488.0,0.015022873584506602
1487.0,0.014843078722943437
1486.0,0.014663358264387139
1485.0,0.014618439768003144
1484.0,0.014708281407112
1483.0,0.014753209197138295
1482.0,0.014888020460646079
1481.0,0.01538268676325183
1480.0,0.016373712875465518
1479.0,0.01809082990920774
1478.0,0.021819483062586187
1477.0,0.029467170231675777
1476.0,0.04200982159316968
1475.0,0.05863766428823891
1474.0,0.07737832847680104
1473.0,0.09183679994445204
1472.0,0.09409623378338305
1471.0,0.0870343792958963
1470.0,0.07872981449018734
1469.0,0.07227044022834539
1468.0,0.06798309356579857
1467.0,0.0663102910421054
1466.0,0.06940751155740177
1465.0,0.07899019850296574
1464.0,0.09146136782804049
1463.0,0.10017949757290379
1462.0,0.10198826120249849
1461.0,0.09729018703012282
1460.0,0.08799062441302175
1459.0,0.0763933569825408
1458.0,0.0654005617819271
1457.0,0.05749589383191922
1456.0,0.05281143447390635
1455.0,0.04987865248862655
1454.0,0.04749815213697639
1453.0,0.0451788169482068
1452.0,0.04291974034210022
1451.0,0.04105406750606355
1450.0,0.03967194946985697
1449.0,0.03857890593355173
1448.0,0.037583306554248797
1447.0,0.036779013477011624
1446.0,0.03616496929785207
1445.0,0.03550466044490741
1444.0,0.03489241415094413
1443.0,0.03428102975577918
1442.0,0.0338113190438627
1441.0,0.033295223342125535
1440.0,0.032873418923587305
1439.0,0.032545631817259224
1438.0,0.032311649546687526
1437.0,0.032124554451966825
1436.0,0.03179733185715028
1435.0,0.03133029827960798
1434.0,0.030770520137356927
1433.0,0.030164906924202484
1432.0,0.029560137048236124
1431.0,0.028956208163971375
1430.0,0.028445846553939003
1429.0,0.027936083991977778
1428.0,0.027426919073445077
1427.0,0.02696455931306696
1426.0,0.026502691267936695
1425.0,0.025995203102585407
1424.0,0.02553436426275746
1423.0,0.025258095499050004
1422.0,0.025028005701930978
1421.0,0.024798037742147727
1420.0,0.024568191490736968
1419.0,0.024430342106337877
1418.0,0.02438440203310499
1417.0,0.024292536462819925
1416.0,0.024200690320592466
1415.0,0.024108863598207186
1414.0,0.024017056287453542
1413.0,0.023879381700184332
1412.0,0.023741750742954926
1411.0,0.02365002099672653
1410.0,0.023604163388120325
1409.0,0.02351246269481
1408.0,0.02342078135989012
1407.0,0.023329119375188556
1406.0,0.023191662661933732
1405.0,0.023100049017062307
1404.0,0.02300845469384938
1403.0,0.02291687968414724
1402.0,0.022871099419317753
1401.0,0.02277955336461468
1400.0,0.022733787572707387
1399.0,0.022733787572707387
1398.0,0.022733787572707387
1397.0,0.02277955336461468
1396.0,0.02282532397981263
1395.0,0.02291687968414724
1394.0,0.02296266477531872
1393.0,0.022871099419317753
1392.0,0.022688026603074007
1391.0,0.02259651912656535
1390.0,0.022505030926963654
1389.0,0.02245929405346514
1388.0,0.022505030926963654
1387.0,0.02255077261765881
1386.0,0.02259651912656535
1385.0,0.02259651912656535
1384.0,0.022642270454698687
1383.0,0.02282532397981263
1382.0,0.023054249440757957
1381.0,0.023374947949272418
1380.0,0.02365002099672653
1379.0,0.023879381700184332
1378.0,0.023971159908874107
1377.0,0.023879381700184332
1376.0,0.023741750742954926
1375.0,0.023741750742954926
1374.0,0.023879381700184332
1373.0,0.02406295751688936
1372.0,0.024200690320592466
1371.0,0.024338466818941473
1370.0,0.024522236834125355
1369.0,0.024660115394541604
1368.0,0.024706084643793647
1367.0,0.024660115394541604
1366.0,0.024522236834125355
1365.0,0.024246610963712723
1364.0,0.024017056287453542
1363.0,0.023879381700184332
1362.0,0.023833499868024743
1361.0,0.023695883447997224
1360.0,0.02355831062115543
1359.0,0.02342078135989012
1358.0,0.023283295636617574
1357.0,0.02314585342378117
1356.0,0.023054249440757957
1355.0,0.023100049017062307
1354.0,0.023191662661933732
1353.0,0.023283295636617574
1352.0,0.023329119375188556
1351.0,0.023374947949272418
1350.0,0.023329119375188556
1349.0,0.023237476732539397
1348.0,0.023100049017062307
1347.0,0.02296266477531872
1346.0,0.022871099419317753
1345.0,0.02277955336461468
1344.0,0.022642270454698687
1343.0,0.02255077261765881
1342.0,0.022413561996148967
1341.0,0.022322112326006227
1340.0,0.022230681908425698
1339.0,0.022230681908425698
1338.0,0.022230681908425698
1337.0,0.0221849739168134
1336.0,0.022093572362881675
1335.0,0.02200219004126036
1334.0,0.021956506090037076
1333.0,0.021956506090037076
1332.0,0.021910826943857264
1331.0,0.021865152601710403
1330.0,0.021819483062586187
1329.0,0.021819483062586187
1328.0,0.021819483062586187
1327.0,0.021819483062586187
1326.0,0.021865152601710403
1325.0,0.021865152601710403
1324.0,0.021865152601710403
1323.0,0.021865152601710403
1322.0,0.021865152601710403
1321.0,0.021865152601710403
1320.0,0.021910826943857264
1319.0,0.02200219004126036
1318.0,0.02204787879853809
1317.0,0.022093572362881675
1316.0,0.022093572362881675
1315.0,0.022093572362881675
1314.0,0.022093572362881675
1313.0,0.022093572362881675
1312.0,0.0221849739168134
1311.0,0.02227639471115217
1310.0,0.022367834754000393
1309.0,0.02245929405346514
1308.0,0.022505030926963654
1307.0,0.02255077261765881
1306.0,0.02259651912656535
1305.0,0.022642270454698687
1304.0,0.022642270454698687
1303.0,0.02259651912656535
1302.0,0.02255077261765881
1301.0,0.02245929405346514
1300.0,0.022413561996148967
1299.0,0.022413561996148967
1298.0,0.022367834754000393
1297.0,0.022322112326006227
1296.0,0.02227639471115217
1295.0,0.022230681908425698
1294.0,0.0221849739168134
1293.0,0.022093572362881675
1292.0,0.02200219004126036
1291.0,0.021865152601710403
1290.0,0.021773818325474092
1289.0,0.021728158389364705
1288.0,0.02168250325324883
1287.0,0.02168250325324883
1286.0,0.021728158389364705
1285.0,0.021728158389364705
1284.0,0.021728158389364705
1283.0,0.021636852916117055
1282.0,0.02159120737696063
1281.0,0.021545566634771474
1280.0,0.021499930688540836
1279.0,0.0214542995372613
1278.0,0.0214542995372613
1277.0,0.0214542995372613
1276.0,0.0214542995372613
1275.0,0.021499930688540836
1274.0,0.021545566634771474
1273.0,0.02159120737696063
1272.0,0.02159120737696063
1271.0,0.02159120737696063
1270.0,0.021545566634771474
1269.0,0.021545566634771474
1268.0,0.021545566634771474
1267.0,0.02159120737696063
1266.0,0.02168250325324883
1265.0,0.021728158389364705
1264.0,0.021728158389364705
1263.0,0.02168250325324883
1262.0,0.02168250325324883
1261.0,0.02168250325324883
1260.0,0.02168250325324883
1259.0,0.02168250325324883
1258.0,0.021636852916117055
1257.0,0.02159120737696063
1256.0,0.021545566634771474
1255.0,0.02159120737696063
1254.0,0.021636852916117055
1253.0,0.021636852916117055
1252.0,0.02159120737696063
1251.0,0.0214542995372613
1250.0,0.021363051615525652
1249.0,0.021271822861508305
1248.0,0.0211806132671577
1247.0,0.021135015652343103
1246.0,0.0211806132671577
1245.0,0.0211806132671577
1244.0,0.021271822861508305
1243.0,0.021317434843055594
1242.0,0.021271822861508305
1241.0,0.02122621566987748
1240.0,0.021089422824428272
1239.0,0.021043834782408455
1238.0,0.0209982515252789
1237.0,0.0209982515252789
1236.0,0.021043834782408455
1235.0,0.021135015652343103
1234.0,0.02122621566987748
1233.0,0.021271822861508305
1232.0,0.02122621566987748
1231.0,0.021135015652343103
1230.0,0.021043834782408455
1229.0,0.0209982515252789
1228.0,0.020952673052035298
1227.0,0.020861530453190058
1226.0,0.020861530453190058
1225.0,0.020907099361673565
1224.0,0.020907099361673565
1223.0,0.020907099361673565
1222.0,0.020861530453190058
1221.0,0.02081596632558158
1220.0,0.020724852408976924
1219.0,0.02067930261797568
1218.0,0.020633757603838898
1217.0,0.02067930261797568
1216.0,0.02067930261797568
1215.0,0.02067930261797568
1214.0,0.020633757603838898
1213.0,0.020542681902151694
1212.0,0.02045162529590483
1211.0,0.020497151212598652
1210.0,0.020542681902151694
1209.0,0.020633757603838898
1208.0,0.020633757603838898
1207.0,0.020633757603838898
1206.0,0.020633757603838898
1205.0,0.020633757603838898
1204.0,0.02058821736556471
1203.0,0.02058821736556471
1202.0,0.02058821736556471
1201.0,0.020542681902151694
1200.0,0.020497151212598652
1199.0,0.020406104151069693
1198.0,0.020315076172974234
1197.0,0.02022406727031445
1196.0,0.02022406727031445
1195.0,0.02022406727031445
1194.0,0.02026956933771462
1193.0,0.020315076172974234
1192.0,0.02036058777709271
1191.0,0.020406104151069693
1190.0,0.020406104151069693
1189.0,0.020315076172974234
1188.0,0.02022406727031445
1187.0,0.020178569969774962
1186.0,0.02022406727031445
1185.0,0.02026956933771462
1184.0,0.02036058777709271
1183.0,0.02045162529590483
1182.0,0.020542681902151694
1181.0,0.020542681902151694
1180.0,0.02058821736556471
1179.0,0.020633757603838898
1178.0,0.02081596632558158
1177.0,0.0209982515252789
1176.0,0.021135015652343103
1175.0,0.0211806132671577
1174.0,0.02122621566987748
1173.0,0.021271822861508305
1172.0,0.021271822861508305
1171.0,0.021317434843055594
1170.0,0.021317434843055594
1169.0,0.021317434843055594
1168.0,0.021271822861508305
1167.0,0.02122621566987748
1166.0,0.0211806132671577
1165.0,0.021135015652343103
1164.0,0.021089422824428272
1163.0,0.021043834782408455
1162.0,0.0209982515252789
1161.0,0.0209982515252789
1160.0,0.0209982515252789
1159.0,0.020952673052035298
1158.0,0.020952673052035298
1157.0,0.020861530453190058
1156.0,0.020861530453190058
1155.0,0.020861530453190058
1154.0,0.020907099361673565
1153.0,0.020907099361673565
1152.0,0.020907099361673565
1151.0,0.02081596632558158
1150.0,0.020724852408976924
1149.0,0.02067930261797568
1148.0,0.020633757603838898
1147.0,0.02058821736556471
1146.0,0.020542681902151694
1145.0,0.020406104151069693
1144.0,0.02022406727031445
1143.0,0.020178569969774962
1142.0,0.020178569969774962
1141.0,0.020178569969774962
1140.0,0.020178569969774962
1139.0,0.02013307743509718
1138.0,0.020178569969774962
1137.0,0.02022406727031445
1136.0,0.02026956933771462
1135.0,0.020315076172974234
1134.0,0.020315076172974234
1133.0,0.02022406727031445
1132.0,0.02013307743509718
1131.0,0.02004210665933459
1130.0,0.02004210665933459
1129.0,0.019996628416253603
1128.0,0.01990568621470623
1127.0,0.01990568621470623
1126.0,0.01995115493504329
1125.0,0.020087589665283012
1124.0,0.020178569969774962
1123.0,0.02022406727031445
1122.0,0.020315076172974234
1121.0,0.02036058777709271
1120.0,0.02036058777709271
1119.0,0.020406104151069693
1118.0,0.02045162529590483
1117.0,0.020542681902151694
1116.0,0.020542681902151694
1115.0,0.02058821736556471
1114.0,0.02067930261797568
1113.0,0.020770406977844713
1112.0,0.02081596632558158
1111.0,0.02081596632558158
1110.0,0.020770406977844713
1109.0,0.020724852408976924
1108.0,0.02067930261797568
1107.0,0.020724852408976924
1106.0,0.020770406977844713
1105.0,0.020770406977844713
1104.0,0.02081596632558158
1103.0,0.020907099361673565
1102.0,0.020952673052035298
1101.0,0.020952673052035298
1100.0,0.020861530453190058
1099.0,0.020724852408976924
1098.0,0.02058821736556471
1097.0,0.020542681902151694
1096.0,0.02058821736556471
1095.0,0.020724852408976924
1094.0,0.02081596632558158
1093.0,0.020861530453190058
1092.0,0.02081596632558158
1091.0,0.020770406977844713
1090.0,0.020724852408976924
1089.0,0.020724852408976924
1088.0,0.020770406977844713
1087.0,0.02081596632558158
1086.0,0.020907099361673565
1085.0,0.020952673052035298
1084.0,0.021043834782408455
1083.0,0.021089422824428272
1082.0,0.021089422824428272
1081.0,0.0209982515252789
1080.0,0.020907099361673565
1079.0,0.020861530453190058
1078.0,0.02081596632558158
1077.0,0.020724852408976924
1076.0,0.020633757603838898
1075.0,0.02058821736556471
1074.0,0.020542681902151694
1073.0,0.020497151212598652
1072.0,0.02045162529590483
1071.0,0.020406104151069693
1070.0,0.02045162529590483
1069.0,0.020542681902151694
1068.0,0.020633757603838898
1067.0,0.020724852408976924
1066.0,0.02081596632558158
1065.0,0.02081596632558158
1064.0,0.020724852408976924
1063.0,0.020633757603838898
1062.0,0.020542681902151694
1061.0,0.02045162529590483
1060.0,0.020315076172974234
1059.0,0.020315076172974234
1058.0,0.020406104151069693
1057.0,0.020542681902151694
1056.0,0.02067930261797568
1055.0,0.02067930261797568
1054.0,0.020633757603838898
1053.0,0.02058821736556471
1052.0,0.02058821736556471
1051.0,0.020633757603838898
1050.0,0.020633757603838898
1049.0,0.02058821736556471
1048.0,0.020542681902151694
1047.0,0.02045162529590483
1046.0,0.02036058777709271
1045.0,0.02026956933771462
1044.0,0.02022406727031445
1043.0,0.02022406727031445
1042.0,0.020178569969774962
1041.0,0.02004210665933459
1040.0,0.019814763052665052
1039.0,0.019678413991243593
1038.0,0.01958753839310856
1037.0,0.01958753839310856
1036.0,0.01954210772389997
1035.0,0.019451260640229506
1034.0,0.01940584422377989
1033.0,0.019269623464054586
1032.0,0.019133445417920836
1031.0,0.01899731005860028
1030.0,0.018906576854070378
1029.0,0.018770512579999288
1028.0,0.018679826740892747
1027.0,0.01858915983411169
1026.0,0.018498511851753108
1025.0,0.018498511851753108
1024.0,0.018543833477873584
1023.0,0.018634490921455527
1022.0,0.018679826740892747
1021.0,0.018634490921455527
1020.0,0.018543833477873584
1019.0,0.018498511851753108
1018.0,0.018543833477873584
1017.0,0.01858915983411169
1016.0,0.018543833477873584
1015.0,0.018498511851753108
1014.0,0.018362575344230914
1013.0,0.018226681372252695
1012.0,0.018136109008649592
1011.0,0.01809082990920774
1010.0,0.01809082990920774
1009.0,0.018045555530026514
1008.0,0.01809082990920774
1007.0,0.018136109008649592
1006.0,0.018181392829336396
1005.0,0.018181392829336396
1004.0,0.018181392829336396
1003.0,0.018136109008649592
1002.0,0.018136109008649592
1001.0,0.018136109008649592
1000.0,0.01809082990920774
999.0,0.01800028587012159
998.0,0.017909760704207134
997.0,0.017909760704207134
996.0,0.01800028587012159
995.0,0.018136109008649592
994.0,0.018271974638383703
993.0,0.01831727262871463
992.0,0.018271974638383703
991.0,0.018181392829336396
990.0,0.018136109008649592
989.0,0.018136109008649592
988.0,0.018181392829336396
987.0,0.018181392829336396
986.0,0.018136109008649592
985.0,0.018045555530026514
984.0,0.017909760704207134
983.0,0.017774008325325275
982.0,0.017638298366853045
981.0,0.017502630802287644
980.0,0.017412209298337533
979.0,0.017321806616515723
978.0,0.01727661233145472
977.0,0.017231422748988034
976.0,0.017231422748988034
975.0,0.017321806616515723
974.0,0.017321806616515723
973.0,0.017231422748988034
972.0,0.017050711425501408
971.0,0.016915227262211507
970.0,0.016915227262211507
969.0,0.016915227262211507
968.0,0.016960383953898095
967.0,0.016960383953898095
966.0,0.016960383953898095
965.0,0.016915227262211507
964.0,0.016870075265299933
963.0,0.016824927962187042
962.0,0.016824927962187042
961.0,0.016824927962187042
960.0,0.01677978535189717
959.0,0.016734647433454652
958.0,0.016689514205884493
957.0,0.016734647433454652
956.0,0.01677978535189717
955.0,0.016824927962187042
954.0,0.016870075265299933
953.0,0.016824927962187042
952.0,0.016824927962187042
951.0,0.016915227262211507
950.0,0.017005545341335804
949.0,0.017095882207371904
948.0,0.017095882207371904
947.0,0.017005545341335804
946.0,0.016915227262211507
945.0,0.016870075265299933
944.0,0.016870075265299933
943.0,0.016960383953898095
942.0,0.017095882207371904
941.0,0.01727661233145472
940.0,0.017457417697056554
939.0,0.017547848615010242
938.0,0.017547848615010242
937.0,0.017502630802287644
936.0,0.017502630802287644
935.0,0.017638298366853045
934.0,0.01781925440359733
933.0,0.017955020928509757
932.0,0.01800028587012159
931.0,0.017955020928509757
930.0,0.017909760704207134
929.0,0.017955020928509757
928.0,0.01800028587012159
927.0,0.018045555530026514
926.0,0.01800028587012159
925.0,0.017864505196230507
924.0,0.017728766960431575
923.0,0.017638298366853045
922.0,0.017502630802287644
921.0,0.017367005605150476
920.0,0.017231422748988034
919.0,0.017095882207371904
918.0,0.017050711425501408
917.0,0.017095882207371904
916.0,0.017141057687924732
915.0,0.017186237868137555
914.0,0.017231422748988034
913.0,0.017186237868137555
912.0,0.017141057687924732
911.0,0.017095882207371904
910.0,0.017005545341335804
909.0,0.016870075265299933
908.0,0.016734647433454652
907.0,0.016599261819461697
906.0,0.016554142658660398
905.0,0.01646391839700767
904.0,0.01646391839700767
903.0,0.01646391839700767
902.0,0.016509028184833463
901.0,0.01646391839700767
900.0,0.01632861713980338
899.0,0.016238439713835096
898.0,0.016148281008528276
897.0,0.016058141016111804
896.0,0.01596801972881945
895.0,0.01596801972881945
894.0,0.016013078034810446
893.0,0.016148281008528276
892.0,0.016238439713835096
891.0,0.01632861713980338
890.0,0.016509028184833463
889.0,0.016734647433454652
888.0,0.016960383953898095
887.0,0.017141057687924732
886.0,0.017186237868137555
885.0,0.017141057687924732
884.0,0.017050711425501408
883.0,0.016960383953898095
882.0,0.017005545341335804
881.0,0.017095882207371904
880.0,0.017141057687924732
879.0,0.017095882207371904
878.0,0.017050711425501408
877.0,0.016960383953898095
876.0,0.016915227262211507
875.0,0.017005545341335804
874.0,0.01727661233145472
873.0,0.017547848615010242
872.0,0.017774008325325275
871.0,0.017909760704207134
870.0,0.017955020928509757
869.0,0.017955020928509757
868.0,0.017955020928509757
867.0,0.017864505196230507
866.0,0.017774008325325275
865.0,0.01768353030793479
864.0,0.01768353030793479
863.0,0.017728766960431575
862.0,0.01781925440359733
861.0,0.01781925440359733
860.0,0.017774008325325275
859.0,0.01768353030793479
858.0,0.01768353030793479
857.0,0.017728766960431575
856.0,0.01768353030793479
855.0,0.017638298366853045
854.0,0.01759307113620534
853.0,0.017457417697056554
852.0,0.01727661233145472
851.0,0.017005545341335804
850.0,0.01677978535189717
849.0,0.016599261819461697
848.0,0.016509028184833463
847.0,0.016373712875465518
846.0,0.016238439713835096
845.0,0.01596801972881945
844.0,0.015742798294583915
843.0,0.015562705203923999
842.0,0.015517693597737248
841.0,0.015517693597737248
840.0,0.015517693597737248
839.0,0.015607721475734415
838.0,0.015742798294583915
837.0,0.015922966097169144
836.0,0.01596801972881945
835.0,0.015877917138889863
834.0,0.015742798294583915
833.0,0.015652742414136167
832.0,0.015607721475734415
831.0,0.015652742414136167
830.0,0.015652742414136167
829.0,0.015652742414136167
828.0,0.015697768020096703
827.0,0.015652742414136167
826.0,0.015562705203923999
825.0,0.01547268665620738
824.0,0.01547268665620738
823.0,0.015652742414136167
822.0,0.015877917138889863
821.0,0.01596801972881945
820.0,0.01596801972881945
819.0,0.016013078034810446
818.0,0.016103208673694303
817.0,0.016193358021584725
816.0,0.016103208673694303
815.0,0.01578783323856614
814.0,0.015517693597737248
813.0,0.015337693809893471
812.0,0.015337693809893471
811.0,0.015562705203923999
810.0,0.015922966097169144
809.0,0.016238439713835096
808.0,0.016509028184833463
807.0,0.016689514205884493
806.0,0.016824927962187042
805.0,0.016870075265299933
804.0,0.016824927962187042
803.0,0.01677978535189717
802.0,0.016644385668211692
801.0,0.016509028184833463
800.0,0.01628352608625061
799.0,0.016058141016111804
798.0,0.015832872853011715
797.0,0.015607721475734415
796.0,0.015517693597737248
795.0,0.015607721475734415
794.0,0.015877917138889863
793.0,0.016103208673694303
792.0,0.016058141016111804
791.0,0.015832872853011715
790.0,0.015517693597737248
789.0,0.015292705517326866
788.0,0.015112798935672522
787.0,0.014977917890464765
786.0,0.014977917890464765
785.0,0.015202742910707112
784.0,0.015517693597737248
783.0,0.015742798294583915
782.0,0.015697768020096703
781.0,0.015427684378367834
780.0,0.014977917890464765
779.0,0.014663358264387139
778.0,0.0144837121472845
777.0,0.0144837121472845
776.0,0.0144837121472845
775.0,0.014393916947563534
774.0,0.014304140310157809
773.0,0.014124642691606404
772.0,0.013900374944870508
771.0,0.013676222949234651
770.0,0.013496984613259544
769.0,0.013496984613259544
768.0,0.013631406429727155
767.0,0.01385553528947936
766.0,0.014079779876432497
765.0,0.014169510141607944
764.0,0.013990068146738865
763.0,0.013586594534531482
762.0,0.01318349541446362
761.0,0.012914970375878188
760.0,0.012870232340102872
759.0,0.012959713020733288
758.0,0.013138729709955221
757.0,0.013362604389846044
756.0,0.013496984613259544
755.0,0.013452186585275916
754.0,0.013273040668781544
753.0,0.013093968619278806
752.0,0.013004460275618523
751.0,0.012959713020733288
750.0,0.012914970375878188
749.0,0.012780770091995297
748.0,0.012557195064198723
747.0,0.012333735073725371
746.0,0.012244383261476699
745.0,0.012065734767841452
744.0,0.011753276624621556
743.0,0.011307297450183107
742.0,0.011039929609661936
741.0,0.011039929609661936
740.0,0.011262724711199823
739.0,0.011574829993696856
738.0,0.012110390002254778
737.0,0.013049212141483357
736.0,0.015022873584506602
735.0,0.019269623464054586
734.0,0.02751945012352408
733.0,0.04019568349166214
732.0,0.054876229877880656
731.0,0.0665127121512945
730.0,0.07022356719509815
729.0,0.06565307326174441
728.0,0.0567528748621382
727.0,0.04841965509660828
726.0,0.04339941178682327
725.0,0.042344833056508824
724.0,0.04527520902093718
723.0,0.05281143447390635
722.0,0.06610796423578891
721.0,0.08454739831152125
720.0,0.10308815917397474
719.0,0.11418662533951118
718.0,0.11407366019856902
717.0,0.10507502264045665
716.0,0.09189045960744768
715.0,0.07810552907089763
714.0,0.0659562809644747
713.0,0.05625823416868636
712.0,0.04900266601119507
711.0,0.04359142880416744
710.0,0.03919637508823026
709.0,0.035646070707806565
708.0,0.033201453616638954
707.0,0.03179733185715028
706.0,0.030910397045078586
705.0,0.029839156962686353
704.0,0.02849221828874393
703.0,0.027195677663422346
702.0,0.026087429580295085
701.0,0.025258095499050004
700.0,0.02475205875931885
699.0,0.024522236834125355
698.0,0.024246610963712723
697.0,0.02351246269481
696.0,0.022367834754000393
695.0,0.02122621566987748
694.0,0.020497151212598652
693.0,0.020406104151069693
692.0,0.020907099361673565
691.0,0.02168250325324883
690.0,0.02204787879853809
689.0,0.02159120737696063
688.0,0.02067930261797568
687.0,0.01990568621470623
686.0,0.019451260640229506
685.0,0.019133445417920836
684.0,0.018906576854070378
683.0,0.018861217359339655
682.0,0.018906576854070378
681.0,0.018906576854070378
680.0,0.018679826740892747
679.0,0.018271974638383703
678.0,0.01759307113620534
677.0,0.016734647433454652
676.0,0.015832872853011715
675.0,0.015292705517326866
674.0,0.015202742910707112
673.0,0.015517693597737248
672.0,0.015922966097169144
671.0,0.01632861713980338
670.0,0.016734647433454652
669.0,0.016824927962187042
668.0,0.017095882207371904
667.0,0.01809082990920774
666.0,0.018226681372252695
665.0,0.016915227262211507
664.0,0.015247721884586563
663.0,0.013676222949234651
662.0,0.012333735073725371
661.0,0.011441043121384498
660.0,0.011396456654336085
659.0,0.012199714248127602
658.0,0.013049212141483357
657.0,0.013317820220494436
656.0,0.01318349541446362
655.0,0.013049212141483357
654.0,0.013004460275618523
653.0,0.012914970375878188
652.0,0.013004460275618523
651.0,0.013541787262693505
650.0,0.014169510141607944
649.0,0.014393916947563534
648.0,0.014214382227394795
647.0,0.014259258949925524
646.0,0.014573525916998342
645.0,0.014663358264387139
644.0,0.014304140310157809
643.0,0.01385553528947936
642.0,0.01385553528947936
641.0,0.014393916947563534
640.0,0.015067833932588037
639.0,0.015517693597737248
638.0,0.015562705203923999
637.0,0.015517693597737248
636.0,0.015877917138889863
635.0,0.016915227262211507
634.0,0.018226681372252695
633.0,0.019315025636685412
632.0,0.01995115493504329
631.0,0.020087589665283012
630.0,0.01958753839310856
629.0,0.018634490921455527
628.0,0.01800028587012159
627.0,0.01809082990920774
626.0,0.018679826740892747
625.0,0.019133445417920836
624.0,0.019133445417920836
623.0,0.01845319495476394
622.0,0.017231422748988034
621.0,0.015832872853011715
620.0,0.014977917890464765
619.0,0.014977917890464765
618.0,0.01538268676325183
617.0,0.015742798294583915
616.0,0.01628352608625061
615.0,0.017231422748988034
614.0,0.018045555530026514
613.0,0.01800028587012159
612.0,0.016915227262211507
611.0,0.015022873584506602
610.0,0.012512493866907004
609.0,0.00966114521239847
608.0,0.007137328610972382
607.0,0.005594853310833647
606.0,0.005111204635089406
605.0,0.00577085918230158
604.0,0.007976972236149349
603.0,0.011396456654336085
602.0,0.014214382227394795
601.0,0.014618439768003144
600.0,0.013541787262693505
