cm-1,A
4000.0,-0.008685319195167907
3999.0,-0.008600171761917519
3998.0,-0.008557591784247087
3997.0,-0.008557591784247087
3996.0,-0.008685319195167907
3995.0,-0.00881300905208926
3994.0,-0.008855563996212457
3993.0,-0.00881300905208926
3992.0,-0.008685319195167907
3991.0,-0.008600171761917519
3990.0,-0.008557591784247087
3989.0,-0.008600171761917519
3988.0,-0.008685319195167907
3987.0,-0.008685319195167907
3986.0,-0.008727886652384775
3985.0,-0.008727886652384775
3984.0,-0.008770449937752556
3983.0,-0.008855563996212457
3982.0,-0.008898114770939713
3981.0,-0.008940661377087267
3980.0,-0.008940661377087267
3979.0,-0.008940661377087267
3978.0,-0.008940661377087267
3977.0,-0.008983203815471796
3976.0,-0.008983203815471796
3975.0,-0.008983203815471796
3974.0,-0.008940661377087267
3973.0,-0.008898114770939713
3972.0,-0.008855563996212457
3971.0,-0.00881300905208926
3970.0,-0.008855563996212457
3969.0,-0.008940661377087267
3968.0,-0.009025742086910427
3967.0,-0.009068276192218505
3966.0,-0.008983203815471796
3965.0,-0.008855563996212457
3964.0,-0.008727886652384775
3963.0,-0.00864274756528527
3962.0,-0.00864274756528527
3961.0,-0.008685319195167907
3960.0,-0.008770449937752556
3959.0,-0.008855563996212457
3958.0,-0.008898114770939713
3957.0,-0.008983203815471796
3956.0,-0.008983203815471796
3955.0,-0.008983203815471796
3954.0,-0.008940661377087267
3953.0,-0.008983203815471796
3952.0,-0.009025742086910427
3951.0,-0.009068276192218505
3950.0,-0.009068276192218505
3949.0,-0.008983203815471796
3948.0,-0.008855563996212457
3947.0,-0.008727886652384775
3946.0,-0.008685319195167907
3945.0,-0.008685319195167907
3944.0,-0.00881300905208926
3943.0,-0.008940661377087267
3942.0,-0.009025742086910427
3941.0,-0.009068276192218505
3940.0,-0.009068276192218505
3939.0,-0.009110806132212712
3938.0,-0.009110806132212712
3937.0,-0.009110806132212712
3936.0,-0.009068276192218505
3935.0,-0.008983203815471796
3934.0,-0.008940661377087267
3933.0,-0.008940661377087267
3932.0,-0.008940661377087267
3931.0,-0.008940661377087267
3930.0,-0.008898114770939713
3929.0,-0.008898114770939713
3928.0,-0.008855563996212457
3927.0,-0.008940661377087267
3926.0,-0.009068276192218505
3925.0,-0.009280884255358668
3924.0,-0.009365898346244794
3923.0,-0.009365898346244794
3922.0,-0.00923837096846647
3921.0,-0.009110806132212712
3920.0,-0.008940661377087267
3919.0,-0.00881300905208926
3918.0,-0.008770449937752556
3917.0,-0.008770449937752556
3916.0,-0.008770449937752556
3915.0,-0.00881300905208926
3914.0,-0.008855563996212457
3913.0,-0.008898114770939713
3912.0,-0.008940661377087267
3911.0,-0.009025742086910427
3910.0,-0.009025742086910427
3909.0,-0.009025742086910427
3908.0,-0.008983203815471796
3907.0,-0.008983203815471796
3906.0,-0.008983203815471796
3905.0,-0.009025742086910427
3904.0,-0.009025742086910427
3903.0,-0.009025742086910427
3902.0,-0.009025742086910427
3901.0,-0.009068276192218505
3900.0,-0.009153331907708395
3899.0,-0.009195853519521346
3898.0,-0.009153331907708395
3897.0,-0.009153331907708395
3896.0,-0.009068276192218505
3895.0,-0.009025742086910427
3894.0,-0.008940661377087267
3893.0,-0.008898114770939713
3892.0,-0.008940661377087267
3891.0,-0.008983203815471796
3890.0,-0.009025742086910427
3889.0,-0.008898114770939713
3888.0,-0.008770449937752556
3887.0,-0.00864274756528527
3886.0,-0.008600171761917519
3885.0,-0.008600171761917519
3884.0,-0.008557591784247087
3883.0,-0.008472419302722134
3882.0,-0.008472419302722134
3881.0,-0.008600171761917519
3880.0,-0.008855563996212457
3879.0,-0.009068276192218505
3878.0,-0.009153331907708395
3877.0,-0.009195853519521346
3876.0,-0.009195853519521346
3875.0,-0.009153331907708395
3874.0,-0.009068276192218505
3873.0,-0.008940661377087267
3872.0,-0.00881300905208926
3871.0,-0.008770449937752556
3870.0,-0.008855563996212457
3869.0,-0.008940661377087267
3868.0,-0.008898114770939713
3867.0,-0.008898114770939713
3866.0,-0.008983203815471796
3865.0,-0.009195853519521346
3864.0,-0.00932339338101329
3863.0,-0.009365898346244794
3862.0,-0.009280884255358668
3861.0,-0.009153331907708395
3860.0,-0.009025742086910427
3859.0,-0.008983203815471796
3858.0,-0.008898114770939713
3857.0,-0.00881300905208926
3856.0,-0.008727886652384775
3855.0,-0.008727886652384775
3854.0,-0.008770449937752556
3853.0,-0.008770449937752556
3852.0,-0.00881300905208926
3851.0,-0.008898114770939713
3850.0,-0.008940661377087267
3849.0,-0.009025742086910427
3848.0,-0.009025742086910427
3847.0,-0.009025742086910427
3846.0,-0.008983203815471796
3845.0,-0.008940661377087267
3844.0,-0.008898114770939713
3843.0,-0.00881300905208926
3842.0,-0.008727886652384775
3841.0,-0.008685319195167907
3840.0,-0.008685319195167907
3839.0,-0.008727886652384775
3838.0,-0.008770449937752556
3837.0,-0.008770449937752556
3836.0,-0.008727886652384775
3835.0,-0.008685319195167907
3834.0,-0.008685319195167907
3833.0,-0.008727886652384775
3832.0,-0.00881300905208926
3831.0,-0.008855563996212457
3830.0,-0.008855563996212457
3829.0,-0.00881300905208926
3828.0,-0.00881300905208926
3827.0,-0.008855563996212457
3826.0,-0.008898114770939713
3825.0,-0.008898114770939713
3824.0,-0.00881300905208926
3823.0,-0.008855563996212457
3822.0,-0.008940661377087267
3821.0,-0.009025742086910427
3820.0,-0.008983203815471796
3819.0,-0.008898114770939713
3818.0,-0.00881300905208926
3817.0,-0.008898114770939713
3816.0,-0.008983203815471796
3815.0,-0.009025742086910427
3814.0,-0.008983203815471796
3813.0,-0.008898114770939713
3812.0,-0.008855563996212457
3811.0,-0.008770449937752556
3810.0,-0.00864274756528527
3809.0,-0.00851500763145463
3808.0,-0.00851500763145463
3807.0,-0.008600171761917519
3806.0,-0.00864274756528527
3805.0,-0.008557591784247087
3804.0,-0.008429826797229811
3803.0,-0.008344629252689195
3802.0,-0.008429826797229811
3801.0,-0.008557591784247087
3800.0,-0.00864274756528527
3799.0,-0.008685319195167907
3798.0,-0.008685319195167907
3797.0,-0.008727886652384775
3796.0,-0.008727886652384775
3795.0,-0.008770449937752556
3794.0,-0.008855563996212457
3793.0,-0.008898114770939713
3792.0,-0.008940661377087267
3791.0,-0.008940661377087267
3790.0,-0.008855563996212457
3789.0,-0.008770449937752556
3788.0,-0.008685319195167907
3787.0,-0.008727886652384775
3786.0,-0.008770449937752556
3785.0,-0.008770449937752556
3784.0,-0.008727886652384775
3783.0,-0.008557591784247087
3782.0,-0.008387230114158761
3781.0,-0.008302024212001324
3780.0,-0.008344629252689195
3779.0,-0.008429826797229811
3778.0,-0.008557591784247087
3777.0,-0.00864274756528527
3776.0,-0.008727886652384775
3775.0,-0.008770449937752556
3774.0,-0.008770449937752556
3773.0,-0.008685319195167907
3772.0,-0.008600171761917519
3771.0,-0.008472419302722134
3770.0,-0.008344629252689195
3769.0,-0.008174184006426444
3768.0,-0.008003671840159488
3767.0,-0.007918390645599072
3766.0,-0.007961033336183032
3765.0,-0.007961033336183032
3764.0,-0.008003671840159488
3763.0,-0.007918390645599072
3762.0,-0.007875743767585153
3761.0,-0.007833092701319266
3760.0,-0.007833092701319266
3759.0,-0.007875743767585153
3758.0,-0.007961033336183032
3757.0,-0.008046306158350447
3756.0,-0.008046306158350447
3755.0,-0.008046306158350447
3754.0,-0.008003671840159488
3753.0,-0.008003671840159488
3752.0,-0.007918390645599072
3751.0,-0.0077051143647803855
3750.0,-0.007619774517403144
3749.0,-0.007577098304338836
3748.0,-0.007491733295335923
3747.0,-0.007320952922744706
3746.0,-0.007192823557040651
3745.0,-0.007150105366684922
3744.0,-0.007235537545951853
3743.0,-0.007363654312278367
3742.0,-0.007449044497748858
3741.0,-0.007491733295335923
3740.0,-0.007449044497748858
3739.0,-0.0074063515036710825
3738.0,-0.0074063515036710825
3737.0,-0.007491733295335923
3736.0,-0.007577098304338836
3735.0,-0.007491733295335923
3734.0,-0.007363654312278367
3733.0,-0.007363654312278367
3732.0,-0.007449044497748858
3731.0,-0.007577098304338836
3730.0,-0.00766244653727588
3729.0,-0.00766244653727588
3728.0,-0.007577098304338836
3727.0,-0.007491733295335923
3726.0,-0.007363654312278367
3725.0,-0.007278247334244092
3724.0,-0.007192823557040651
3723.0,-0.007150105366684922
3722.0,-0.007150105366684922
3721.0,-0.00710738297405733
3720.0,-0.00710738297405733
3719.0,-0.007064656378331868
3718.0,-0.00697919057427665
3717.0,-0.006850960324272126
3716.0,-0.0066799277408255975
3715.0,-0.0064660422492317515
3714.0,-0.0062948579813855154
3713.0,-0.006252051369364686
3712.0,-0.0063376603745508575
3711.0,-0.006423252507643085
3710.0,-0.0063376603745508575
3709.0,-0.006166425485431226
3708.0,-0.005952286887382918
3707.0,-0.0058666018753847915
3706.0,-0.005780899954652252
3705.0,-0.005652315355074045
3704.0,-0.00552369267327979
3703.0,-0.005352136486216796
3702.0,-0.005266332972768684
3701.0,-0.005266332972768684
3700.0,-0.005309236848516363
3699.0,-0.005352136486216796
3698.0,-0.005352136486216796
3697.0,-0.005352136486216796
3696.0,-0.005352136486216796
3695.0,-0.005352136486216796
3694.0,-0.005395031886706203
3693.0,-0.005309236848516363
3692.0,-0.005008820672367076
3691.0,-0.004536317851322913
3690.0,-0.004063300397667113
3689.0,-0.0038481220342978517
3688.0,-0.0038481220342978517
3687.0,-0.003934206173708432
3686.0,-0.003934206173708432
3685.0,-0.0038481220342978517
3684.0,-0.003675902548784027
3683.0,-0.0034605321095062536
3682.0,-0.0032450548131470747
3681.0,-0.003158833950862139
3680.0,-0.003158833950862139
3679.0,-0.003115717099805959
3678.0,-0.0029432068763250996
3677.0,-0.0026411490000399773
3676.0,-0.0021660617565077978
3675.0,-0.001776967077439462
3674.0,-0.0016039241497978196
3673.0,-0.0015173768235041685
3672.0,-0.0013875234866409514
3671.0,-0.0011277002770349043
3670.0,-0.0007376737740329986
3669.0,-0.00043407747931878404
3668.0,-0.00043407747931878404
3667.0,-0.0004774613744551459
3666.0,-0.00043407747931878404
3665.0,-0.0003472966853634851
3664.0,-0.00013026880522692963
3663.0,0.00017375254558760211
3662.0,0.0004779868710962365
3661.0,0.0007824344698965646
3660.0,0.0011306361176557367
3659.0,0.0013919706849057079
3658.0,0.0016534626036355249
3657.0,0.0020023635919956817
3656.0,0.002351545103793873
3655.0,0.002701007590486082
3654.0,0.0029632891174733444
3653.0,0.0031819781204844855
3652.0,0.0033570086445275926
3651.0,0.003707281458678491
3650.0,0.004277078004534696
3649.0,0.005023326350308999
3648.0,0.005638848091999105
3647.0,0.006035001804881146
3646.0,0.00625524344553785
3645.0,0.006387442061109638
3644.0,0.006519680930003435
3643.0,0.006828394969235152
3642.0,0.007269796045857202
3641.0,0.007755855953228474
3640.0,0.008286724286910463
3639.0,0.008685301823389224
3638.0,0.009039900317800775
3637.0,0.00939478857608056
3636.0,0.009838807101520963
3635.0,0.01023881228122181
3634.0,0.010639186223752484
3633.0,0.010817248744452446
3632.0,0.010995384301463185
3631.0,0.011307297450183107
3630.0,0.012289056869694281
3629.0,0.01385553528947936
3628.0,0.015067833932588037
3627.0,0.015562705203923999
3626.0,0.015652742414136167
3625.0,0.015697768020096703
3624.0,0.015922966097169144
3623.0,0.016373712875465518
3622.0,0.017050711425501408
3621.0,0.018045555530026514
3620.0,0.019269623464054586
3619.0,0.02036058777709271
3618.0,0.0209982515252789
3617.0,0.021317434843055594
3616.0,0.021545566634771474
3615.0,0.02200219004126036
3614.0,0.02282532397981263
3613.0,0.023787622882622816
3612.0,0.02461415101053266
3611.0,0.025258095499050004
3610.0,0.025902996205869
3609.0,0.026872146400301444
3608.0,0.02812138297373412
3607.0,0.029188389127482228
3606.0,0.029885677714903025
3605.0,0.03030458888152676
3604.0,0.03067729388779794
3603.0,0.031190286087141805
3602.0,0.03207779326948268
3601.0,0.033201453616638954
3600.0,0.03428102975577918
3599.0,0.03508070571335731
3598.0,0.035646070707806565
3597.0,0.03621217265444465
3596.0,0.037062711569998186
3595.0,0.038199360808321536
3594.0,0.03938654235209116
3593.0,0.04019568349166214
3592.0,0.04062466342415694
3591.0,0.04076775094900409
3590.0,0.041101805289228244
3589.0,0.04215336629184985
3588.0,0.04411991377462465
3587.0,0.046192002334692894
3586.0,0.047691990337874746
3585.0,0.04851676924770687
3584.0,0.04900266601119507
3583.0,0.04948910701400333
3582.0,0.050171041064686284
3581.0,0.051049389754451946
3580.0,0.05197846685889629
3579.0,0.05286048235717078
3578.0,0.05374429280060267
3577.0,0.05477768336465916
3576.0,0.05586292684190197
3575.0,0.056950888991593285
3574.0,0.05784307153250956
3573.0,0.0583891978463662
3572.0,0.058538260652670315
3571.0,0.05848856736559682
3570.0,0.058538260652670315
3569.0,0.05933412752417122
3568.0,0.061380218497318895
3567.0,0.06414020196211956
3566.0,0.06646209802829528
3565.0,0.0675769736232612
3564.0,0.06798309356579857
3563.0,0.0681862960408608
3562.0,0.06864384953207203
3561.0,0.06935655895783555
3560.0,0.07032568205141221
3559.0,0.07124579782334672
3558.0,0.0720140529005715
3557.0,0.07268097504034388
3556.0,0.0732460948102629
3555.0,0.07396640332115534
3554.0,0.07499749231902242
3553.0,0.0763933569825408
3552.0,0.0777417765670334
3551.0,0.07862570458152551
3550.0,0.079094395835976
3549.0,0.07951143534170213
3548.0,0.08024221949810584
3547.0,0.08160266115629988
3546.0,0.08328292240118751
3545.0,0.08486409337798806
3544.0,0.08608023504853413
3543.0,0.08692825969074924
3542.0,0.08761850108119962
3541.0,0.08820340956274775
3540.0,0.08889568219596411
3539.0,0.08974922769985194
3538.0,0.0908185240221473
3537.0,0.09210516458371698
3536.0,0.09339562827501968
3535.0,0.09447395156495153
3534.0,0.09523037409340485
3533.0,0.09587978652380036
3532.0,0.09658441423091357
3531.0,0.0975619438013351
3530.0,0.09875969792669093
3529.0,0.10012480397898926
3528.0,0.10160395406999112
3527.0,0.1028679566179056
3526.0,0.10397008760377302
3525.0,0.10513034325474746
3524.0,0.10646015643533868
3523.0,0.10796107965870849
3522.0,0.10918790104487552
3521.0,0.11008231656379408
3520.0,0.11075433910702048
3519.0,0.11153968196461372
3518.0,0.1125514997500463
3517.0,0.11356568037106163
3516.0,0.11446916681190777
3515.0,0.11520463605101905
3514.0,0.11588463798833115
3513.0,0.1165657063169907
3512.0,0.11730473761840288
3511.0,0.11827306462358211
3510.0,0.11935787359571504
3509.0,0.1203880929341492
3508.0,0.12096149476276286
3507.0,0.12113366304327466
3506.0,0.12119106764079435
3505.0,0.12153565465853111
3504.0,0.12234075588839133
3503.0,0.1233203895807995
3502.0,0.12412880927263426
3501.0,0.12436006299583169
3500.0,0.12424442074194553
3499.0,0.12401322857151209
3498.0,0.12383991517437187
3497.0,0.12389767862220635
3496.0,0.12412880927263426
3495.0,0.12430223801979201
3494.0,0.12430223801979201
3493.0,0.12407101507707297
3492.0,0.12372441132212098
3491.0,0.1233203895807995
3490.0,0.12303203256741524
3489.0,0.12291674334934943
3488.0,0.12285911021517903
3487.0,0.12268625668776156
3486.0,0.12228319913502328
3485.0,0.12176553132495593
3484.0,0.12124847982699793
3483.0,0.12101887660626365
3482.0,0.12107626603243293
3481.0,0.12124847982699793
3480.0,0.12124847982699793
3479.0,0.12084675381575383
3478.0,0.12015894401343741
3477.0,0.11941504393502012
3476.0,0.11890078161098283
3475.0,0.11855827805860697
3474.0,0.1183871275216517
3473.0,0.11821604440661537
3472.0,0.11804502866039956
3471.0,0.11781711236973003
3470.0,0.1174754620451195
3469.0,0.11719095860756013
3468.0,0.11684980031672243
3467.0,0.1165657063169907
3466.0,0.11628179803604044
3465.0,0.11588463798833115
3464.0,0.11548784080960606
3463.0,0.11520463605101905
3462.0,0.11509140583739286
3461.0,0.11503480179926728
3460.0,0.11492161585077598
3459.0,0.11469533241103202
3458.0,0.11441264381034388
3457.0,0.1141301390960936
3456.0,0.1138478180292033
3455.0,0.11367851344052027
3454.0,0.11356568037106163
3453.0,0.11356568037106163
3452.0,0.11345287660889425
3451.0,0.11322735694556196
3450.0,0.1128329791052256
3449.0,0.1125514997500463
3448.0,0.11266406960083297
3447.0,0.1130019543289007
3446.0,0.11328372588352176
3445.0,0.11328372588352176
3444.0,0.11311464101399138
3443.0,0.1130019543289007
3442.0,0.112945621949043
3441.0,0.1128329791052256
3440.0,0.11266406960083297
3439.0,0.11249522576462212
3438.0,0.1125514997500463
3437.0,0.11277666863747693
3436.0,0.1130019543289007
3435.0,0.11311464101399138
3434.0,0.11322735694556196
3433.0,0.11328372588352176
3432.0,0.11345287660889425
3431.0,0.1136220932414278
3430.0,0.11379137583250243
3429.0,0.11401718864502697
3428.0,0.11429961987167014
3427.0,0.1145256971708426
3426.0,0.11463877996848804
3425.0,0.11469533241103202
3424.0,0.1148084593931522
3423.0,0.11509140583739286
3422.0,0.11560117444331386
3421.0,0.11628179803604044
3420.0,0.11690664142431006
3419.0,0.11730473761840288
3418.0,0.11758931562603192
3417.0,0.11787408022996826
3416.0,0.11827306462358211
3415.0,0.11884367892443626
3414.0,0.11952940719622163
3413.0,0.12033079436794658
3412.0,0.12119106764079435
3411.0,0.12205304837081177
3410.0,0.12280148472821018
3409.0,0.12349349573411894
3408.0,0.12395544975390482
3407.0,0.1244757360506914
3406.0,0.125054563914468
3405.0,0.12575017722159698
3404.0,0.1267375405612734
3403.0,0.12778543660241448
3402.0,0.12889429901441463
3401.0,0.12988884463559924
3400.0,0.1308269726783169
3399.0,0.13170831198214428
3398.0,0.13270933014511588
3397.0,0.13365357725039817
3396.0,0.13471831500438958
3395.0,0.13578566953867033
3394.0,0.1370342410222376
3393.0,0.13834612978608907
3392.0,0.1396619934290062
3391.0,0.14086170270546927
3390.0,0.141884067809934
3389.0,0.14290884532648618
3388.0,0.1438755557576996
3387.0,0.14490504884137811
3386.0,0.14605855411951008
3385.0,0.14733705565543076
3384.0,0.14874165128092476
3383.0,0.1500894416985039
3382.0,0.1513798825658661
3381.0,0.15261244897260462
3380.0,0.15391041964201602
3379.0,0.15521228117215347
3378.0,0.1565180569600424
3377.0,0.15782777061438424
3376.0,0.1590787998012282
3375.0,0.16045910703103106
3374.0,0.16184381524785207
3373.0,0.16323295260579473
3372.0,0.16449967213268124
3371.0,0.1657700971483227
3370.0,0.16717187046064663
3369.0,0.16870625562299035
3368.0,0.17031035910102887
3367.0,0.1718558926962137
3366.0,0.17327747983100794
3365.0,0.17463880404736676
3364.0,0.17587416608345108
3363.0,0.17711305216584927
3362.0,0.17835548245778288
3361.0,0.17973284283903546
3360.0,0.18111458540599013
3359.0,0.18243463044021913
3358.0,0.18362611124763806
3357.0,0.1847544080834369
3356.0,0.185819018959813
3355.0,0.18701983396051958
3354.0,0.18829097330380895
3353.0,0.18956584407732735
3352.0,0.19091186865365373
3351.0,0.1921268679966679
3350.0,0.19327749692381868
3349.0,0.19429529556613567
3348.0,0.19517932127883775
3347.0,0.1960651501361581
3346.0,0.19688444510997294
3345.0,0.1977052886025361
3344.0,0.19845909380968174
3343.0,0.19914550849643908
3342.0,0.19969542244380145
3341.0,0.20010831534313467
3340.0,0.20045269287438483
3339.0,0.20072839165012724
3338.0,0.2010042655561186
3337.0,0.20134935455473113
3336.0,0.2016256233184388
3335.0,0.20183294028406085
3334.0,0.20183294028406085
3333.0,0.20169471797802352
3332.0,0.20155653964981246
3331.0,0.20141840527145227
3330.0,0.20134935455473113
3329.0,0.20121128604875071
3328.0,0.20107326142279858
3327.0,0.200797343699475
3326.0,0.20045269287438483
3325.0,0.20010831534313467
3324.0,0.19969542244380145
3323.0,0.19928292171761486
3322.0,0.19880216554085117
3321.0,0.19825338078053978
3320.0,0.19749993223560658
3319.0,0.196747788569543
3318.0,0.19592875111433883
3317.0,0.19511125537760865
3316.0,0.1944311824514442
3315.0,0.19368433019188647
3314.0,0.1928710444075783
3313.0,0.1919917000896001
3312.0,0.1910467008440888
3311.0,0.19017103893211385
3310.0,0.18943147078358713
3309.0,0.1887602272467106
3308.0,0.18822397839709626
3307.0,0.18762148884580565
3306.0,0.18681946741398825
3305.0,0.1859522790044006
3304.0,0.1850203162392432
3303.0,0.1840903491132253
3302.0,0.18309616062433975
3301.0,0.18210424283820448
3300.0,0.18104868835982724
3299.0,0.180127178049454
3298.0,0.17927323717616583
3297.0,0.1784864715952268
3296.0,0.1778319206319825
3295.0,0.17704775945251838
3294.0,0.17619984625012197
3293.0,0.17535358528164813
3292.0,0.1745089701205691
3291.0,0.17360121781238225
3290.0,0.1726953589102651
3289.0,0.17172688794793012
3288.0,0.17082492608291244
3287.0,0.16998906406388214
3286.0,0.16909070045355667
3285.0,0.16813022571949832
3284.0,0.16723569505946845
3283.0,0.16627930955536674
3282.0,0.16532502553725603
3281.0,0.16437283379010226
3280.0,0.16342272515935097
3279.0,0.16266413198498508
3278.0,0.1619068615544017
3277.0,0.16127680996862814
3276.0,0.16064767110457878
3275.0,0.15989390554324223
3274.0,0.15901616267962204
3273.0,0.15807768832054925
3272.0,0.15720360482441986
3271.0,0.15639352807548912
3270.0,0.15570925674565683
3269.0,0.15496400648658493
3268.0,0.15415809257824264
3267.0,0.1534154971019539
3266.0,0.15261244897260462
3265.0,0.15193410459600853
3264.0,0.15131834597604965
3263.0,0.1507034591652734
3262.0,0.15002808767114995
3261.0,0.14929251462546267
3260.0,0.14855818532794496
3259.0,0.1478861391502384
3258.0,0.1472760892087941
3257.0,0.14672777597931685
3256.0,0.14605855411951008
3255.0,0.14539036190420496
3254.0,0.14484442282300614
3253.0,0.14442027749828212
3252.0,0.14405705376768396
3251.0,0.14369413356670102
3250.0,0.14321071124668383
3249.0,0.14260718907909875
3248.0,0.141884067809934
3247.0,0.14122226269455074
3246.0,0.14062149557439896
3245.0,0.1402014525194344
3244.0,0.1397219002477652
3243.0,0.13924287691845794
3242.0,0.13858508136400327
3241.0,0.13798794874978348
3240.0,0.13739163603505822
3239.0,0.1369151746796402
3238.0,0.13643923547375736
3237.0,0.1360232160956132
3236.0,0.13554825284181704
3235.0,0.13501453934020602
3234.0,0.13436311230037123
3233.0,0.13365357725039817
3232.0,0.13300418688935212
3231.0,0.13241467345296387
3230.0,0.13176713157753506
3229.0,0.13123804178794973
3228.0,0.13076828026902376
3227.0,0.13041629228657614
3226.0,0.13012318673323353
3225.0,0.12965462891904034
3224.0,0.12901118623942476
3223.0,0.1282519810081284
3222.0,0.12761061158217912
3221.0,0.12702836926155658
3220.0,0.12656313677796316
3219.0,0.12604034525664676
3218.0,0.12534426740189897
3217.0,0.1244757360506914
3216.0,0.12360893818081231
3215.0,0.12285911021517903
3214.0,0.12234075588839133
3213.0,0.12193801870998744
3212.0,0.12153565465853111
3211.0,0.12107626603243293
3210.0,0.12050271275057156
3209.0,0.11992991593593283
3208.0,0.11935787359571504
3207.0,0.11884367892443626
3206.0,0.11844417020668851
3205.0,0.11798803837334138
3204.0,0.11758931562603192
3203.0,0.11713408027837091
3202.0,0.11667932161702477
3201.0,0.11616828667054757
3200.0,0.1157145376603248
3199.0,0.11531789579397489
3198.0,0.1149782051377024
3197.0,0.11469533241103202
3196.0,0.11435612816423602
3195.0,0.11396072443355765
3194.0,0.1136220932414278
3193.0,0.11328372588352176
3192.0,0.11288929687511629
3191.0,0.11243895906999102
3190.0,0.11198908775497118
3189.0,0.1114835389250548
3188.0,0.11097857790477517
3187.0,0.11058623595729111
3186.0,0.11030620855581463
3185.0,0.11013827874181148
3184.0,0.10997041383658313
3183.0,0.10969078310005154
3182.0,0.10935546370475246
3181.0,0.10902040301031102
3180.0,0.10879717273970457
3179.0,0.10857405715200596
3178.0,0.10835105612944096
3177.0,0.10796107965870849
3176.0,0.1075158206353124
3175.0,0.10707101764479421
3174.0,0.10668218838388821
3173.0,0.1062937069352865
3172.0,0.10596099919539115
3171.0,0.10557316203581202
3170.0,0.10513034325474746
3169.0,0.1047432468551055
3168.0,0.10424605792627206
3167.0,0.10363915453068362
3166.0,0.10297804393963661
3165.0,0.10231793820358015
3164.0,0.1017686154869033
3163.0,0.1012199867101744
3162.0,0.10061729446673495
3161.0,0.09996076451267522
3160.0,0.09919606518963042
3159.0,0.09848719087006019
3158.0,0.09783387072894878
3157.0,0.09729018703012282
3156.0,0.09680145295702158
3155.0,0.09625905937846135
3154.0,0.09560907998763835
3153.0,0.09485199814398393
3152.0,0.09404230090757282
3151.0,0.09323411045927221
3150.0,0.09248115389337075
3149.0,0.09167586072382083
3148.0,0.0908185240221473
3147.0,0.0900697402471693
3146.0,0.08937559511079884
3145.0,0.08878910686244668
3144.0,0.08820340956274775
3143.0,0.08756536662442538
3142.0,0.08682216600953208
3141.0,0.08608023504853413
3140.0,0.08533956941077814
3139.0,0.08465293767580806
3138.0,0.08407278830288423
3137.0,0.08349341288484435
3136.0,0.08291480935943274
3135.0,0.0823369756726251
3134.0,0.08181233864107451
3133.0,0.0812883346176787
3132.0,0.08066036321258663
3131.0,0.07987667370927598
3130.0,0.07899019850296574
3129.0,0.07805354577058976
3128.0,0.07732643214144574
3127.0,0.07670415934449615
3126.0,0.07623803917129979
3125.0,0.07577241873988227
3124.0,0.07515236702446293
3123.0,0.07453319930846214
3122.0,0.07391491307485598
3121.0,0.07334892291111106
3120.0,0.07288638806623937
3119.0,0.07237303755504598
3118.0,0.07196279359311708
3117.0,0.07155293679081787
3116.0,0.07109230975604719
3115.0,0.07058107428570715
3114.0,0.06996838504902692
3113.0,0.06930561233546473
3112.0,0.06879647454924775
3111.0,0.06844043290919477
3110.0,0.06803388527182741
3109.0,0.0675769736232612
3108.0,0.06696850489759454
3107.0,0.0663102910421054
3106.0,0.06560255921901192
3105.0,0.06494641076893504
3104.0,0.06444235490698613
3103.0,0.06408986356949264
3102.0,0.06378795567975115
3101.0,0.06348625752110681
3100.0,0.0630843190547461
3099.0,0.06258241852286206
3098.0,0.06198090252378963
3097.0,0.06148027482350815
3096.0,0.06103020277710969
3095.0,0.06058059667068294
3094.0,0.0601813371786204
3093.0,0.05968277842578207
3092.0,0.059135024033278416
3091.0,0.05858795962645047
3090.0,0.05814087347462649
3089.0,0.057743849580535134
3088.0,0.05734718830678798
3087.0,0.056950888991593285
3086.0,0.05655495097496965
3085.0,0.056159373598738904
3084.0,0.055764156206519866
3083.0,0.05536929814372171
3082.0,0.05502409158795207
3081.0,0.05462990550969615
3080.0,0.05423607688882637
3079.0,0.05379344615721715
3078.0,0.053351266093323746
3077.0,0.05290953578037816
3076.0,0.05256627811294923
3075.0,0.05222329153526162
3074.0,0.05192951848105887
3073.0,0.0515870342213991
3072.0,0.05119595406718891
3071.0,0.05085404758005607
3070.0,0.05051241005349638
3069.0,0.05012229596312534
3068.0,0.04982994019179987
3067.0,0.04953778109440221
3066.0,0.049245818406496555
3065.0,0.048905443158337114
3064.0,0.04851676924770687
3063.0,0.04807992647970649
3062.0,0.047643522676209304
3061.0,0.04730440041308315
3060.0,0.04696554274964315
3059.0,0.04662694927330402
3058.0,0.04624030826677128
3057.0,0.045902279520810385
3056.0,0.045660991397539874
3055.0,0.045516282844447975
3054.0,0.04537162249272897
3053.0,0.0451788169482068
3052.0,0.04488976902944808
3051.0,0.04450467081587295
3050.0,0.044167989767578186
3049.0,0.04383156952463674
3048.0,0.04359142880416744
3047.0,0.0433514207947967
3046.0,0.0431115453499229
3045.0,0.04282386959515394
3044.0,0.04253638427006878
3043.0,0.04229695845116854
3042.0,0.04200982159316968
3041.0,0.04167506835594681
3040.0,0.041340572947066834
3039.0,0.041006334969674096
3038.0,0.040672354027829094
3037.0,0.04043395336207234
3036.0,0.04019568349166214
3035.0,0.040005161671583744
3034.0,0.03981472339538916
3033.0,0.03957679292217042
3032.0,0.039338992729018196
3031.0,0.03910132267333921
3030.0,0.03886378261277468
3029.0,0.03862637240519895
3028.0,0.038341651362284734
3027.0,0.038057116858612794
3026.0,0.03782014709123227
3025.0,0.037583306554248797
3024.0,0.037346595106788616
3023.0,0.0371573187987575
3022.0,0.03692083935817303
3021.0,0.03663723389626394
3020.0,0.03635381351515665
3019.0,0.036117771071222604
3018.0,0.03588185684851508
3017.0,0.035693217696063595
3016.0,0.03541041251009669
3015.0,0.03517488211661135
3014.0,0.0349394793888016
3013.0,0.03470420418834386
3012.0,0.034516075754861264
3011.0,0.03423403581731388
3010.0,0.03399914237121604
3009.0,0.03371743783253667
3008.0,0.033482823553208085
3007.0,0.033295223342125535
3006.0,0.03310770413286357
3005.0,0.032873418923587305
3004.0,0.03263926003405038
3003.0,0.03249882527715853
3002.0,0.03240522732811035
3001.0,0.03226486821611996
3000.0,0.03207779326948268
2999.0,0.03184406285002961
2998.0,0.03151705144606498
2997.0,0.031236951802751545
2996.0,0.030910397045078586
2995.0,0.03067729388779794
2994.0,0.030490901403433135
2993.0,0.03030458888152676
2992.0,0.030118356253500123
2991.0,0.029839156962686353
2990.0,0.02960662792039992
2989.0,0.02942069428514915
2988.0,0.029281296279810798
2987.0,0.029234840219232394
2986.0,0.029188389127482228
2985.0,0.029095501846216454
2984.0,0.028956208163971375
2983.0,0.028770552723758724
2982.0,0.028538594975413334
2981.0,0.02839947976994095
2980.0,0.028306761050139073
2979.0,0.028167720075074953
2978.0,0.02798240132598462
2977.0,0.027797161620935595
2976.0,0.027658283674251827
2975.0,0.027565723042634938
2974.0,0.02751945012352408
2973.0,0.02751945012352408
2972.0,0.027426919073445077
2971.0,0.027288159452933503
2970.0,0.02710321556345563
2969.0,0.02696455931306696
2968.0,0.02682594731702781
2967.0,0.026733563891471412
2966.0,0.026687379547098322
2965.0,0.026595025589939425
2964.0,0.026456531467510258
2963.0,0.026318081496016443
2962.0,0.02617967564731627
2961.0,0.026087429580295085
2960.0,0.026041313893296225
2959.0,0.025949097207122573
2958.0,0.025856900097785074
2957.0,0.025718641122169483
2956.0,0.02558042614771394
2955.0,0.025488307262671706
2954.0,0.02539620791296726
2953.0,0.025258095499050004
2952.0,0.025028005701930978
2951.0,0.024798037742147727
2950.0,0.024568191490736968
2949.0,0.024338466818941473
2948.0,0.024200690320592466
2947.0,0.02406295751688936
2946.0,0.024017056287453542
2945.0,0.023925268380126097
2944.0,0.023925268380126097
2943.0,0.023879381700184332
2942.0,0.023787622882622816
2941.0,0.023695883447997224
2940.0,0.02351246269481
2939.0,0.023374947949272418
2938.0,0.023283295636617574
2937.0,0.023191662661933732
2936.0,0.023191662661933732
2935.0,0.023191662661933732
2934.0,0.023191662661933732
2933.0,0.02314585342378117
2932.0,0.023054249440757957
2931.0,0.02291687968414724
2930.0,0.022871099419317753
2929.0,0.02277955336461468
2928.0,0.022733787572707387
2927.0,0.02259651912656535
2926.0,0.02245929405346514
2925.0,0.022322112326006227
2924.0,0.0221849739168134
2923.0,0.022093572362881675
2922.0,0.021956506090037076
2921.0,0.021819483062586187
2920.0,0.021636852916117055
2919.0,0.021499930688540836
2918.0,0.02140867317992523
2917.0,0.021317434843055594
2916.0,0.0211806132671577
2915.0,0.0209982515252789
2914.0,0.02081596632558158
2913.0,0.02058821736556471
2912.0,0.02045162529590483
2911.0,0.020315076172974234
2910.0,0.020178569969774962
2909.0,0.02004210665933459
2908.0,0.01990568621470623
2907.0,0.019814763052665052
2906.0,0.019769308608968306
2905.0,0.019678413991243593
2904.0,0.019632973815224997
2903.0,0.01958753839310856
2902.0,0.019451260640229506
2901.0,0.019315025636685412
2900.0,0.019178833355664393
2899.0,0.019042683770379876
2898.0,0.018906576854070378
2897.0,0.018725167293411005
2896.0,0.018543833477873584
2895.0,0.01845319495476394
2894.0,0.01840788278591865
2893.0,0.018362575344230914
2892.0,0.01831727262871463
2891.0,0.018181392829336396
2890.0,0.01809082990920774
2889.0,0.01800028587012159
2888.0,0.017955020928509757
2887.0,0.017955020928509757
2886.0,0.01800028587012159
2885.0,0.017955020928509757
2884.0,0.017864505196230507
2883.0,0.01768353030793479
2882.0,0.017547848615010242
2881.0,0.017457417697056554
2880.0,0.017457417697056554
2879.0,0.017412209298337533
2878.0,0.017367005605150476
2877.0,0.017231422748988034
2876.0,0.017095882207371904
2875.0,0.017050711425501408
2874.0,0.017095882207371904
2873.0,0.017186237868137555
2872.0,0.017231422748988034
2871.0,0.017231422748988034
2870.0,0.017186237868137555
2869.0,0.017095882207371904
2868.0,0.016915227262211507
2867.0,0.01677978535189717
2866.0,0.016689514205884493
2865.0,0.016689514205884493
2864.0,0.016689514205884493
2863.0,0.016734647433454652
2862.0,0.016734647433454652
2861.0,0.016734647433454652
2860.0,0.016734647433454652
2859.0,0.016689514205884493
2858.0,0.016599261819461697
2857.0,0.016509028184833463
2856.0,0.01646391839700767
2855.0,0.01646391839700767
2854.0,0.01646391839700767
2853.0,0.016509028184833463
2852.0,0.01646391839700767
2851.0,0.01628352608625061
2850.0,0.016103208673694303
2849.0,0.015877917138889863
2848.0,0.015697768020096703
2847.0,0.015562705203923999
2846.0,0.015427684378367834
2845.0,0.015292705517326866
2844.0,0.015202742910707112
2843.0,0.015157768594724175
2842.0,0.015202742910707112
2841.0,0.015157768594724175
2840.0,0.015067833932588037
2839.0,0.014977917890464765
2838.0,0.014843078722943437
2837.0,0.014753209197138295
2836.0,0.014708281407112
2835.0,0.014618439768003144
2834.0,0.0144837121472845
2833.0,0.014349026309051105
2832.0,0.014214382227394795
2831.0,0.014124642691606404
2830.0,0.01403492169512921
2829.0,0.01403492169512921
2828.0,0.014079779876432497
2827.0,0.014079779876432497
2826.0,0.01403492169512921
2825.0,0.013945219230304673
2824.0,0.01385553528947936
2823.0,0.013765869865004277
2822.0,0.013676222949234651
2821.0,0.013586594534531482
2820.0,0.013496984613259544
2819.0,0.013452186585275916
2818.0,0.013452186585275916
2817.0,0.013496984613259544
2816.0,0.013496984613259544
2815.0,0.013452186585275916
2814.0,0.013362604389846044
2813.0,0.013317820220494436
2812.0,0.01322826573375524
2811.0,0.013093968619278806
2810.0,0.012914970375878188
2809.0,0.012825498912458322
2808.0,0.012736045877764557
2807.0,0.012736045877764557
2806.0,0.012736045877764557
2805.0,0.012691326268817527
2804.0,0.01264661126420652
2803.0,0.01260190086298274
2802.0,0.012557195064198723
2801.0,0.01260190086298274
2800.0,0.012691326268817527
2799.0,0.012736045877764557
2798.0,0.012736045877764557
2797.0,0.01264661126420652
2796.0,0.012557195064198723
2795.0,0.012423105273012602
2794.0,0.012333735073725371
2793.0,0.012333735073725371
2792.0,0.012333735073725371
2791.0,0.012333735073725371
2790.0,0.012289056869694281
2789.0,0.012289056869694281
2788.0,0.012199714248127602
2787.0,0.01215504982870197
2786.0,0.012110390002254778
2785.0,0.012065734767841452
2784.0,0.0119764380713403
2783.0,0.011931796607364653
2782.0,0.011842527443247208
2781.0,0.011753276624621556
2780.0,0.011708658092512314
2779.0,0.011664044143949504
2778.0,0.011664044143949504
2777.0,0.011664044143949504
2776.0,0.011619434777991433
2775.0,0.011574829993696856
2774.0,0.011530229790124524
2773.0,0.011530229790124524
2772.0,0.011485634166333858
2771.0,0.011441043121384498
2770.0,0.011351874764248926
2769.0,0.011307297450183107
2768.0,0.01117359295472431
2767.0,0.011084479487313281
2766.0,0.011039929609661936
2765.0,0.011039929609661936
2764.0,0.011039929609661936
2763.0,0.011039929609661936
2762.0,0.011039929609661936
2761.0,0.010995384301463185
2760.0,0.010950843561779777
2759.0,0.010906307389674463
2758.0,0.010817248744452446
2757.0,0.010728208358306901
2756.0,0.010683695010048622
2755.0,0.010639186223752484
2754.0,0.010550182333308289
2753.0,0.010505687227290839
2752.0,0.01046119667949763
2751.0,0.010416710688994968
2750.0,0.010416710688994968
2749.0,0.010416710688994968
2748.0,0.010416710688994968
2747.0,0.01037222925484893
2746.0,0.010283280051895272
2745.0,0.010194349063173958
2744.0,0.010149890396819572
2743.0,0.010149890396819572
2742.0,0.010105436281226954
2741.0,0.010105436281226954
2740.0,0.010060986715464404
2739.0,0.01001654169860089
2738.0,0.01001654169860089
2737.0,0.010060986715464404
2736.0,0.010105436281226954
2735.0,0.010149890396819572
2734.0,0.010149890396819572
2733.0,0.010060986715464404
2732.0,0.009972101229705377
2731.0,0.009838807101520963
2730.0,0.009705553871561357
2729.0,0.009572341514736404
2728.0,0.009527946474380489
2727.0,0.009483555971770974
2726.0,0.009527946474380489
2725.0,0.009572341514736404
2724.0,0.00966114521239847
2723.0,0.00966114521239847
2722.0,0.00966114521239847
2721.0,0.009616741093766423
2720.0,0.009527946474380489
2719.0,0.009483555971770974
2718.0,0.009483555971770974
2717.0,0.009483555971770974
2716.0,0.009483555971770974
2715.0,0.009483555971770974
2714.0,0.009483555971770974
2713.0,0.009483555971770974
2712.0,0.009439170005980158
2711.0,0.00939478857608056
2710.0,0.009350411681145587
2709.0,0.009306039320248427
2708.0,0.009261671492462709
2707.0,0.009306039320248427
2706.0,0.009350411681145587
2705.0,0.009350411681145587
2704.0,0.009306039320248427
2703.0,0.009172949432521227
2702.0,0.009039900317800775
2701.0,0.008951223547323472
2700.0,0.008951223547323472
2699.0,0.009039900317800775
2698.0,0.009039900317800775
2697.0,0.008995559669244813
2696.0,0.008906891951112605
2695.0,0.008818242332126802
2694.0,0.008773924307505121
2693.0,0.008685301823389224
2692.0,0.008640997362049818
2691.0,0.008552401996197112
2690.0,0.00850811108984062
2689.0,0.00850811108984062
2688.0,0.008552401996197112
2687.0,0.008596697419959609
2686.0,0.008640997362049818
2685.0,0.008640997362049818
2684.0,0.008596697419959609
2683.0,0.008552401996197112
2682.0,0.008463824699968647
2681.0,0.008419542825660153
2680.0,0.008330992620051436
2679.0,0.008286724286910463
2678.0,0.008198201155356077
2677.0,0.008065450281052211
2676.0,0.007976972236149349
2675.0,0.007976972236149349
2674.0,0.007976972236149349
2673.0,0.008021209005416363
2672.0,0.008065450281052211
2671.0,0.008021209005416363
2670.0,0.008021209005416363
2669.0,0.007976972236149349
2668.0,0.007976972236149349
2667.0,0.007976972236149349
2666.0,0.007976972236149349
2665.0,0.007976972236149349
2664.0,0.007932739972333236
2663.0,0.007800070204414977
2662.0,0.00762324020119709
2661.0,0.007490664932224611
2660.0,0.007490664932224611
2659.0,0.007534852191956709
2658.0,0.00762324020119709
2657.0,0.0075790439479759275
2656.0,0.007534852191956709
2655.0,0.007490664932224611
2654.0,0.007490664932224611
2653.0,0.007490664932224611
2652.0,0.007490664932224611
2651.0,0.007534852191956709
2650.0,0.007534852191956709
2649.0,0.007534852191956709
2648.0,0.007534852191956709
2647.0,0.007534852191956709
2646.0,0.007534852191956709
2645.0,0.0074464821678643656
2644.0,0.007313960837872058
2643.0,0.007181479933320523
2642.0,0.007137328610972382
2641.0,0.007093181776687496
2640.0,0.007093181776687496
2639.0,0.007049039429553483
2638.0,0.007004901568658406
2637.0,0.00696076819309055
2636.0,0.00696076819309055
2635.0,0.006916639301937977
2634.0,0.006872514894289861
2633.0,0.006828394969235152
2632.0,0.006740168563263094
2631.0,0.006696062080525422
2630.0,0.006651960076740071
2629.0,0.006607862550997545
2628.0,0.006696062080525422
2627.0,0.006740168563263094
2626.0,0.006784279525863024
2625.0,0.006740168563263094
2624.0,0.006651960076740071
2623.0,0.006607862550997545
2622.0,0.00656376950238835
2621.0,0.006607862550997545
2620.0,0.006607862550997545
2619.0,0.006607862550997545
2618.0,0.00656376950238835
2617.0,0.006431517210272464
2616.0,0.00625524344553785
2615.0,0.00621118618129457
2614.0,0.00625524344553785
2613.0,0.006343371384537999
2612.0,0.006387442061109638
2611.0,0.006387442061109638
2610.0,0.006343371384537999
2609.0,0.006299305179649828
2608.0,0.00625524344553785
2607.0,0.00621118618129457
2606.0,0.00621118618129457
2605.0,0.006167133386013823
2604.0,0.00612308505878878
2603.0,0.00612308505878878
2602.0,0.006079041198713275
2601.0,0.006079041198713275
2600.0,0.006035001804881146
2599.0,0.005990966876386672
2598.0,0.005946936412324799
2597.0,0.005946936412324799
2596.0,0.005990966876386672
2595.0,0.006035001804881146
2594.0,0.005990966876386672
2593.0,0.005946936412324799
2592.0,0.005946936412324799
2591.0,0.005946936412324799
2590.0,0.005990966876386672
2589.0,0.005990966876386672
2588.0,0.006035001804881146
2587.0,0.006035001804881146
2586.0,0.006035001804881146
2585.0,0.005990966876386672
2584.0,0.00590291041179003
2583.0,0.005858888873877532
2582.0,0.005858888873877532
2581.0,0.005858888873877532
2580.0,0.005814871797682919
2579.0,0.005814871797682919
2578.0,0.00577085918230158
2577.0,0.00577085918230158
2576.0,0.00577085918230158
2575.0,0.005726851026829571
2574.0,0.005682847330363394
2573.0,0.005638848091999105
2572.0,0.005638848091999105
2571.0,0.005682847330363394
2570.0,0.005638848091999105
2569.0,0.005594853310833647
2568.0,0.005506877116487674
2567.0,0.00541891874010525
2566.0,0.005330978174470591
2565.0,0.0052870145684298375
2564.0,0.0052870145684298375
2563.0,0.005330978174470591
2562.0,0.00541891874010525
2561.0,0.005550862985963967
2560.0,0.005594853310833647
2559.0,0.005550862985963967
2558.0,0.00541891874010525
2557.0,0.005330978174470591
2556.0,0.005330978174470591
2555.0,0.00537494623139545
2554.0,0.00541891874010525
2553.0,0.005462895701502157
2552.0,0.00541891874010525
2551.0,0.00537494623139545
2550.0,0.005243055412371911
2549.0,0.005199100705396198
2548.0,0.005199100705396198
2547.0,0.005199100705396198
2546.0,0.005199100705396198
2545.0,0.005199100705396198
2544.0,0.005199100705396198
2543.0,0.005199100705396198
2542.0,0.005155150446602086
2541.0,0.005111204635089406
2540.0,0.005023326350308999
2539.0,0.004979393875242044
2538.0,0.005023326350308999
2537.0,0.005067263269958211
2536.0,0.005067263269958211
2535.0,0.005023326350308999
2534.0,0.005023326350308999
2533.0,0.005067263269958211
2532.0,0.005155150446602086
2531.0,0.005155150446602086
2530.0,0.005067263269958211
2529.0,0.004935465843858511
2528.0,0.00484762310854614
2527.0,0.004803708402820517
2526.0,0.004803708402820517
2525.0,0.00484762310854614
2524.0,0.00484762310854614
2523.0,0.00484762310854614
2522.0,0.004803708402820517
2521.0,0.004803708402820517
2520.0,0.004803708402820517
2519.0,0.004759798137184523
2518.0,0.004759798137184523
2517.0,0.004803708402820517
2516.0,0.00484762310854614
2515.0,0.00489154225525934
2514.0,0.00489154225525934
2513.0,0.004803708402820517
2512.0,0.004715892310740433
2511.0,0.004628093971837721
2510.0,0.004628093971837721
2509.0,0.004628093971837721
2508.0,0.004671990922590297
2507.0,0.004671990922590297
2506.0,0.004671990922590297
2505.0,0.004671990922590297
2504.0,0.004715892310740433
2503.0,0.004759798137184523
2502.0,0.004803708402820517
2501.0,0.004803708402820517
2500.0,0.004759798137184523
2499.0,0.004671990922590297
2498.0,0.004628093971837721
2497.0,0.004628093971837721
2496.0,0.004628093971837721
2495.0,0.004628093971837721
2494.0,0.004628093971837721
2493.0,0.004628093971837721
2492.0,0.004671990922590297
2491.0,0.004671990922590297
2490.0,0.004671990922590297
2489.0,0.004715892310740433
2488.0,0.004715892310740433
2487.0,0.004671990922590297
2486.0,0.00458420145758498
2485.0,0.0044964297349936455
2484.0,0.004408675747646695
2483.0,0.0043648054024501
2482.0,0.0043648054024501
2481.0,0.004408675747646695
2480.0,0.004408675747646695
2479.0,0.004408675747646695
2478.0,0.0043648054024501
2477.0,0.004320939488377862
2476.0,0.004277078004534696
2475.0,0.004277078004534696
2474.0,0.004320939488377862
2473.0,0.0043648054024501
2472.0,0.004408675747646695
2471.0,0.0043648054024501
2470.0,0.004277078004534696
2469.0,0.004233220950025984
2468.0,0.004189368323957332
2467.0,0.004145520125434121
2466.0,0.004145520125434121
2465.0,0.004145520125434121
2464.0,0.004145520125434121
2463.0,0.004145520125434121
2462.0,0.004101676353562844
2461.0,0.0040578370074493275
2460.0,0.00401400208620073
2459.0,0.0040578370074493275
2458.0,0.004101676353562844
2457.0,0.004189368323957332
2456.0,0.004277078004534696
2455.0,0.004320939488377862
2454.0,0.004320939488377862
2453.0,0.004277078004534696
2452.0,0.004189368323957332
2451.0,0.004101676353562844
2450.0,0.004101676353562844
2449.0,0.004145520125434121
2448.0,0.004189368323957332
2447.0,0.004189368323957332
2446.0,0.004189368323957332
2445.0,0.004189368323957332
2444.0,0.004145520125434121
2443.0,0.004189368323957332
2442.0,0.004189368323957332
2441.0,0.004233220950025984
2440.0,0.004233220950025984
2439.0,0.004189368323957332
2438.0,0.004145520125434121
2437.0,0.004101676353562844
2436.0,0.00401400208620073
2435.0,0.003970171588923321
2434.0,0.003970171588923321
2433.0,0.003970171588923321
2432.0,0.00401400208620073
2431.0,0.0040578370074493275
2430.0,0.004145520125434121
2429.0,0.004233220950025984
2428.0,0.004277078004534696
2427.0,0.004233220950025984
2426.0,0.004145520125434121
2425.0,0.00401400208620073
2424.0,0.003970171588923321
2423.0,0.00401400208620073
2422.0,0.004101676353562844
2421.0,0.004189368323957332
2420.0,0.004189368323957332
2419.0,0.004145520125434121
2418.0,0.0040578370074493275
2417.0,0.00401400208620073
2416.0,0.003970171588923321
2415.0,0.003970171588923321
2414.0,0.003970171588923321
2413.0,0.00401400208620073
2412.0,0.004101676353562844
2411.0,0.004101676353562844
2410.0,0.004145520125434121
2409.0,0.004145520125434121
2408.0,0.004145520125434121
2407.0,0.004101676353562844
2406.0,0.0040578370074493275
2405.0,0.00401400208620073
2404.0,0.00401400208620073
2403.0,0.004101676353562844
2402.0,0.004233220950025984
2401.0,0.0043648054024501
2400.0,0.004408675747646695
2399.0,0.004408675747646695
2398.0,0.004320939488377862
2397.0,0.004277078004534696
2396.0,0.004233220950025984
2395.0,0.004145520125434121
2394.0,0.004101676353562844
2393.0,0.004101676353562844
2392.0,0.004101676353562844
2391.0,0.004189368323957332
2390.0,0.004233220950025984
2389.0,0.004233220950025984
2388.0,0.004145520125434121
2387.0,0.003970171588923321
2386.0,0.0038387066319929275
2385.0,0.0037510854308679953
2384.0,0.0036634819042162814
2383.0,0.0037510854308679953
2382.0,0.003970171588923321
2381.0,0.0043648054024501
2380.0,0.004759798137184523
2379.0,0.005023326350308999
2378.0,0.005155150446602086
2377.0,0.005111204635089406
2376.0,0.00484762310854614
2375.0,0.004408675747646695
2374.0,0.0038825238627120395
2373.0,0.003619686766589858
2372.0,0.003619686766589858
2371.0,0.003794893821675638
2370.0,0.00401400208620073
2369.0,0.004277078004534696
2368.0,0.004320939488377862
2367.0,0.004101676353562844
2366.0,0.0036634819042162814
2365.0,0.0034445503666347133
2364.0,0.0036634819042162814
2363.0,0.004233220950025984
2362.0,0.004671990922590297
2361.0,0.004759798137184523
2360.0,0.004540313378935901
2359.0,0.004277078004534696
2358.0,0.004233220950025984
2357.0,0.004277078004534696
2356.0,0.004233220950025984
2355.0,0.004145520125434121
2354.0,0.004320939488377862
2353.0,0.004408675747646695
2352.0,0.0040578370074493275
2351.0,0.003488327845821315
2350.0,0.0032694845648473247
2349.0,0.003926345514724705
2348.0,0.004979393875242044
2347.0,0.005638848091999105
2346.0,0.00541891874010525
2345.0,0.0044964297349936455
2344.0,0.0035758960449088217
2343.0,0.0030070181092942683
2342.0,0.0032257291386954545
2341.0,0.004233220950025984
2340.0,0.005199100705396198
2339.0,0.005594853310833647
2338.0,0.00537494623139545
2337.0,0.005111204635089406
2336.0,0.004979393875242044
2335.0,0.005111204635089406
2334.0,0.005462895701502157
2333.0,0.00590291041179003
2332.0,0.006079041198713275
2331.0,0.005814871797682919
2330.0,0.005243055412371911
2329.0,0.004803708402820517
2328.0,0.00458420145758498
2327.0,0.004628093971837721
2326.0,0.004979393875242044
2325.0,0.005506877116487674
2324.0,0.00612308505878878
2323.0,0.006607862550997545
2322.0,0.006784279525863024
2321.0,0.006607862550997545
2320.0,0.006167133386013823
2319.0,0.005682847330363394
2318.0,0.00541891874010525
2317.0,0.005506877116487674
2316.0,0.005682847330363394
2315.0,0.005946936412324799
2314.0,0.006079041198713275
2313.0,0.00621118618129457
2312.0,0.00621118618129457
2311.0,0.00621118618129457
2310.0,0.006299305179649828
2309.0,0.006387442061109638
2308.0,0.006519680930003435
2307.0,0.006696062080525422
2306.0,0.006828394969235152
2305.0,0.006872514894289861
2304.0,0.006740168563263094
2303.0,0.006607862550997545
2302.0,0.00656376950238835
2301.0,0.006696062080525422
2300.0,0.006872514894289861
2299.0,0.007093181776687496
2298.0,0.007181479933320523
2297.0,0.007269796045857202
2296.0,0.007358130121602358
2295.0,0.007490664932224611
2294.0,0.007711646202907652
2293.0,0.007976972236149349
2292.0,0.008198201155356077
2291.0,0.008419542825660153
2290.0,0.008552401996197112
2289.0,0.008640997362049818
2288.0,0.0087296108049002
2287.0,0.008818242332126802
2286.0,0.008951223547323472
2285.0,0.008995559669244813
2284.0,0.00908424549391551
2283.0,0.009128595198514056
2282.0,0.009217308196862062
2281.0,0.009306039320248427
2280.0,0.00939478857608056
2279.0,0.009483555971770974
2278.0,0.009572341514736404
2277.0,0.00966114521239847
2276.0,0.009705553871561357
2275.0,0.009705553871561357
2274.0,0.009794384815193347
2273.0,0.009927665307847056
2272.0,0.01001654169860089
2271.0,0.010060986715464404
2270.0,0.010060986715464404
2269.0,0.010105436281226954
2268.0,0.010194349063173958
2267.0,0.01023881228122181
2266.0,0.01023881228122181
2265.0,0.010194349063173958
2264.0,0.010149890396819572
2263.0,0.010149890396819572
2262.0,0.01023881228122181
2261.0,0.01037222925484893
2260.0,0.010505687227290839
2259.0,0.010550182333308289
2258.0,0.010594681998483901
2257.0,0.010550182333308289
2256.0,0.01046119667949763
2255.0,0.01037222925484893
2254.0,0.01037222925484893
2253.0,0.01046119667949763
2252.0,0.010550182333308289
2251.0,0.010594681998483901
2250.0,0.010683695010048622
2249.0,0.010817248744452446
2248.0,0.01086177578421088
2247.0,0.010906307389674463
2246.0,0.010906307389674463
2245.0,0.010906307389674463
2244.0,0.010950843561779777
2243.0,0.010950843561779777
2242.0,0.010950843561779777
2241.0,0.010950843561779777
2240.0,0.010950843561779777
2239.0,0.010906307389674463
2238.0,0.010817248744452446
2237.0,0.010728208358306901
2236.0,0.010728208358306901
2235.0,0.010728208358306901
2234.0,0.010728208358306901
2233.0,0.01077272626946324
2232.0,0.010817248744452446
2231.0,0.010906307389674463
2230.0,0.010906307389674463
2229.0,0.010906307389674463
2228.0,0.01086177578421088
2227.0,0.01077272626946324
2226.0,0.010683695010048622
2225.0,0.010639186223752484
2224.0,0.010639186223752484
2223.0,0.010683695010048622
2222.0,0.010683695010048622
2221.0,0.010639186223752484
2220.0,0.010639186223752484
2219.0,0.010683695010048622
2218.0,0.010683695010048622
2217.0,0.010683695010048622
2216.0,0.010683695010048622
2215.0,0.010683695010048622
2214.0,0.010683695010048622
2213.0,0.010683695010048622
2212.0,0.010683695010048622
2211.0,0.010683695010048622
2210.0,0.010683695010048622
2209.0,0.010683695010048622
2208.0,0.010728208358306901
2207.0,0.010728208358306901
2206.0,0.01077272626946324
2205.0,0.010817248744452446
2204.0,0.01086177578421088
2203.0,0.01086177578421088
2202.0,0.01086177578421088
2201.0,0.010817248744452446
2200.0,0.01077272626946324
2199.0,0.010817248744452446
2198.0,0.010817248744452446
2197.0,0.01086177578421088
2196.0,0.010817248744452446
2195.0,0.01077272626946324
2194.0,0.010728208358306901
2193.0,0.010683695010048622
2192.0,0.010683695010048622
2191.0,0.010639186223752484
2190.0,0.010683695010048622
2189.0,0.010728208358306901
2188.0,0.01077272626946324
2187.0,0.01077272626946324
2186.0,0.01077272626946324
2185.0,0.010728208358306901
2184.0,0.010728208358306901
2183.0,0.01077272626946324
2182.0,0.010817248744452446
2181.0,0.01086177578421088
2180.0,0.010906307389674463
2179.0,0.010906307389674463
2178.0,0.010906307389674463
2177.0,0.010906307389674463
2176.0,0.010906307389674463
2175.0,0.010950843561779777
2174.0,0.010950843561779777
2173.0,0.010995384301463185
2172.0,0.010950843561779777
2171.0,0.010995384301463185
2170.0,0.010995384301463185
2169.0,0.011039929609661936
2168.0,0.011039929609661936
2167.0,0.011039929609661936
2166.0,0.011129033935354915
2165.0,0.011129033935354915
2164.0,0.011129033935354915
2163.0,0.011084479487313281
2162.0,0.011039929609661936
2161.0,0.011084479487313281
2160.0,0.011129033935354915
2159.0,0.011218156546359825
2158.0,0.011262724711199823
2157.0,0.011307297450183107
2156.0,0.011307297450183107
2155.0,0.011307297450183107
2154.0,0.011307297450183107
2153.0,0.011351874764248926
2152.0,0.011351874764248926
2151.0,0.011396456654336085
2150.0,0.011441043121384498
2149.0,0.011441043121384498
2148.0,0.011441043121384498
2147.0,0.011351874764248926
2146.0,0.011262724711199823
2145.0,0.011218156546359825
2144.0,0.011218156546359825
2143.0,0.011218156546359825
2142.0,0.011262724711199823
2141.0,0.011307297450183107
2140.0,0.011307297450183107
2139.0,0.011262724711199823
2138.0,0.011262724711199823
2137.0,0.011218156546359825
2136.0,0.011218156546359825
2135.0,0.011262724711199823
2134.0,0.011307297450183107
2133.0,0.011307297450183107
2132.0,0.011262724711199823
2131.0,0.011129033935354915
2130.0,0.011084479487313281
2129.0,0.011039929609661936
2128.0,0.011039929609661936
2127.0,0.011039929609661936
2126.0,0.011039929609661936
2125.0,0.011039929609661936
2124.0,0.011039929609661936
2123.0,0.010995384301463185
2122.0,0.010950843561779777
2121.0,0.010906307389674463
2120.0,0.010906307389674463
2119.0,0.010906307389674463
2118.0,0.010817248744452446
2117.0,0.01077272626946324
2116.0,0.010683695010048622
2115.0,0.010639186223752484
2114.0,0.010639186223752484
2113.0,0.010639186223752484
2112.0,0.010639186223752484
2111.0,0.010594681998483901
2110.0,0.010550182333308289
2109.0,0.01046119667949763
2108.0,0.010327752376126709
2107.0,0.010194349063173958
2106.0,0.010105436281226954
2105.0,0.010105436281226954
2104.0,0.010105436281226954
2103.0,0.010060986715464404
2102.0,0.010060986715464404
2101.0,0.01001654169860089
2100.0,0.01001654169860089
2099.0,0.009972101229705377
2098.0,0.01001654169860089
2097.0,0.01001654169860089
2096.0,0.009972101229705377
2095.0,0.009883233932095559
2094.0,0.009794384815193347
2093.0,0.009705553871561357
2092.0,0.009572341514736404
2091.0,0.00939478857608056
2090.0,0.009261671492462709
2089.0,0.009172949432521227
2088.0,0.009039900317800775
2087.0,0.008951223547323472
2086.0,0.008906891951112605
2085.0,0.008818242332126802
2084.0,0.008773924307505121
2083.0,0.0087296108049002
2082.0,0.008685301823389224
2081.0,0.008640997362049818
2080.0,0.008596697419959609
2079.0,0.008463824699968647
2078.0,0.008286724286910463
2077.0,0.008109696063975047
2076.0,0.007932739972333236
2075.0,0.007888512213050314
2074.0,0.007844288957383316
2073.0,0.007844288957383316
2072.0,0.007800070204414977
2071.0,0.007711646202907652
2070.0,0.007667440952535687
2069.0,0.0075790439479759275
2068.0,0.007534852191956709
2067.0,0.007402303897961815
2066.0,0.007313960837872058
2065.0,0.007225635744644521
2064.0,0.007093181776687496
2063.0,0.007049039429553483
2062.0,0.007004901568658406
2061.0,0.007004901568658406
2060.0,0.00696076819309055
2059.0,0.006872514894289861
2058.0,0.006784279525863024
2057.0,0.006696062080525422
2056.0,0.006651960076740071
2055.0,0.006651960076740071
2054.0,0.006651960076740071
2053.0,0.006607862550997545
2052.0,0.006519680930003435
2051.0,0.006343371384537999
2050.0,0.00612308505878878
2049.0,0.006035001804881146
2048.0,0.005990966876386672
2047.0,0.005990966876386672
2046.0,0.006035001804881146
2045.0,0.005990966876386672
2044.0,0.005946936412324799
2043.0,0.00590291041179003
2042.0,0.005858888873877532
2041.0,0.005858888873877532
2040.0,0.00577085918230158
2039.0,0.005682847330363394
2038.0,0.005550862985963967
2037.0,0.005462895701502157
2036.0,0.005462895701502157
2035.0,0.005462895701502157
2034.0,0.005506877116487674
2033.0,0.005462895701502157
2032.0,0.005330978174470591
2031.0,0.005243055412371911
2030.0,0.005155150446602086
2029.0,0.005155150446602086
2028.0,0.005111204635089406
2027.0,0.005023326350308999
2026.0,0.004935465843858511
2025.0,0.004935465843858511
2024.0,0.00489154225525934
2023.0,0.004803708402820517
2022.0,0.004671990922590297
2021.0,0.00458420145758498
2020.0,0.004452550524862486
2019.0,0.0043648054024501
2018.0,0.004277078004534696
2017.0,0.004189368323957332
2016.0,0.004145520125434121
2015.0,0.004101676353562844
2014.0,0.00401400208620073
2013.0,0.0038825238627120395
2012.0,0.003707281458678491
2011.0,0.0035321097382827737
2010.0,0.0034445503666347133
2009.0,0.0034445503666347133
2008.0,0.0034445503666347133
2007.0,0.0033570086445275926
2006.0,0.0032694845648473247
2005.0,0.0032257291386954545
2004.0,0.0031382315093266833
2003.0,0.0030944893043338695
2002.0,0.003050751504618754
2001.0,0.003050751504618754
2000.0,0.003050751504618754
1999.0,0.0030070181092942683
1998.0,0.0029632891174733444
1997.0,0.0028758443407954637
1996.0,0.0027884171674950053
1995.0,0.0026573093983774942
1994.0,0.002569926202528716
1993.0,0.002569926202528716
1992.0,0.0025262411970197185
1991.0,0.002482560585275184
1990.0,0.002351545103793873
1989.0,0.0022205691343961664
1988.0,0.0021332737608552588
1987.0,0.002089632653256679
1986.0,0.0020459959305969555
1985.0,0.0020459959305969555
1984.0,0.0020459959305969555
1983.0,0.0019587356365717845
1982.0,0.0018714928717336043
1981.0,0.0017842676290416026
1980.0,0.0017842676290416026
1979.0,0.0017842676290416026
1978.0,0.0018278780605593958
1977.0,0.0017842676290416026
1976.0,0.0017406615763013722
1975.0,0.0016534626036355249
1974.0,0.0015662811355310335
1973.0,0.0014791171649619628
1972.0,0.0014355417390583547
1971.0,0.0013919706849057079
1970.0,0.0013919706849057079
1969.0,0.0014355417390583547
1968.0,0.0014791171649619628
1967.0,0.0013919706849057079
1966.0,0.0012177301682640973
1965.0,0.0010435595295137379
1964.0,0.0009129773741116676
1963.0,0.0008259444115150671
1962.0,0.0007824344698965646
1961.0,0.0007824344698965646
1960.0,0.0007824344698965646
1959.0,0.0007389288868995258
1958.0,0.0007389288868995258
1957.0,0.0006954276616513155
1956.0,0.0006084382809090627
1955.0,0.0004779868710962365
1954.0,0.0003910410285830057
1953.0,0.00026065489343207737
1952.0,0.00021720154586435392
1951.0,0.00017375254558760211
1950.0,0.00021720154586435392
1949.0,0.00026065489343207737
1948.0,0.00030411258916074324
1947.0,0.00026065489343207737
1946.0,0.00026065489343207737
1945.0,0.00021720154586435392
1944.0,0.00021720154586435392
1943.0,8.686758342868472e-05
1942.0,-4.3427276862573194e-05
1941.0,-0.00013026880522692963
1940.0,-0.00021709297223004853
1939.0,-0.00030389978481260016
1938.0,-0.00030389978481260016
1937.0,-0.0002604985473904087
1936.0,-0.00021709297223004853
1935.0,-0.0002604985473904087
1934.0,-0.0003472966853634851
1933.0,-0.0003906892499099257
1932.0,-0.0004774613744551459
1931.0,-0.0005208409361854294
1930.0,-0.0005208409361854294
1929.0,-0.0005208409361854294
1928.0,-0.0005208409361854294
1927.0,-0.0005642161653756084
1926.0,-0.0005642161653756084
1925.0,-0.0005208409361854294
1924.0,-0.0005208409361854294
1923.0,-0.0004774613744551459
1922.0,-0.0004774613744551459
1921.0,-0.0004774613744551459
1920.0,-0.0005642161653756084
1919.0,-0.0006943158663546001
1918.0,-0.0008677215312267172
1917.0,-0.0009543984064577238
1916.0,-0.001041057986093552
1915.0,-0.001041057986093552
1914.0,-0.001041057986093552
1913.0,-0.0009977303577937136
1912.0,-0.0009543984064577238
1911.0,-0.0009543984064577238
1910.0,-0.0010843812922201046
1909.0,-0.0011710149414008164
1908.0,-0.00121432528617893
1907.0,-0.001257631312230778
1906.0,-0.0013009330204178937
1905.0,-0.0013009330204178937
1904.0,-0.001344230411601366
1903.0,-0.001344230411601366
1902.0,-0.0013875234866409514
1901.0,-0.0013875234866409514
1900.0,-0.001344230411601366
1899.0,-0.001257631312230778
1898.0,-0.0011277002770349043
1897.0,-0.0010843812922201046
1896.0,-0.0011277002770349043
1895.0,-0.001257631312230778
1894.0,-0.001344230411601366
1893.0,-0.001344230411601366
1892.0,-0.0013875234866409514
1891.0,-0.0013875234866409514
1890.0,-0.0013875234866409514
1889.0,-0.0013875234866409514
1888.0,-0.0014308122463981832
1887.0,-0.001474096691732818
1886.0,-0.001474096691732818
1885.0,-0.001474096691732818
1884.0,-0.0015606526425728795
1883.0,-0.0016904542321527494
1882.0,-0.001776967077439462
1881.0,-0.0018202170383281313
1880.0,-0.0018202170383281313
1879.0,-0.0018634626925240205
1878.0,-0.0018202170383281313
1877.0,-0.0018202170383281313
1876.0,-0.0018202170383281313
1875.0,-0.0018202170383281313
1874.0,-0.001776967077439462
1873.0,-0.0016039241497978196
1872.0,-0.0013875234866409514
1871.0,-0.00121432528617893
1870.0,-0.0011710149414008164
1869.0,-0.001257631312230778
1868.0,-0.0013875234866409514
1867.0,-0.0016039241497978196
1866.0,-0.001776967077439462
1865.0,-0.0018202170383281313
1864.0,-0.001776967077439462
1863.0,-0.001733712809000476
1862.0,-0.0016904542321527494
1861.0,-0.0016471913460383014
1860.0,-0.0016471913460383014
1859.0,-0.0016471913460383014
1858.0,-0.0016471913460383014
1857.0,-0.0016039241497978196
1856.0,-0.0016039241497978196
1855.0,-0.0016039241497978196
1854.0,-0.0016039241497978196
1853.0,-0.0016039241497978196
1852.0,-0.0015606526425728795
1851.0,-0.0015606526425728795
1850.0,-0.0015606526425728795
1849.0,-0.0015173768235041685
1848.0,-0.001474096691732818
1847.0,-0.0014308122463981832
1846.0,-0.001474096691732818
1845.0,-0.0015606526425728795
1844.0,-0.0015606526425728795
1843.0,-0.0015606526425728795
1842.0,-0.0015173768235041685
1841.0,-0.0014308122463981832
1840.0,-0.0013875234866409514
1839.0,-0.001344230411601366
1838.0,-0.0013009330204178937
1837.0,-0.0013009330204178937
1836.0,-0.001344230411601366
1835.0,-0.001344230411601366
1834.0,-0.00121432528617893
1833.0,-0.0009977303577937136
1832.0,-0.0007810273534953893
1831.0,-0.0006943158663546001
1830.0,-0.0006943158663546001
1829.0,-0.0006943158663546001
1828.0,-0.0007376737740329986
1827.0,-0.0007376737740329986
1826.0,-0.0007810273534953893
1825.0,-0.0008243766056055257
1824.0,-0.0008243766056055257
1823.0,-0.0009110621312231615
1822.0,-0.0009543984064577238
1821.0,-0.0009977303577937136
1820.0,-0.001041057986093552
1819.0,-0.001041057986093552
1818.0,-0.001041057986093552
1817.0,-0.0009110621312231615
1816.0,-0.0008243766056055257
1815.0,-0.0006943158663546001
1814.0,-0.0006075870628903246
1813.0,-0.0005208409361854294
1812.0,-0.0005642161653756084
1811.0,-0.0006943158663546001
1810.0,-0.0008677215312267172
1809.0,-0.0009977303577937136
1808.0,-0.0010843812922201046
1807.0,-0.0011710149414008164
1806.0,-0.0011277002770349043
1805.0,-0.0010843812922201046
1804.0,-0.0009977303577937136
1803.0,-0.0009543984064577238
1802.0,-0.0009543984064577238
1801.0,-0.0009110621312231615
1800.0,-0.0009543984064577238
1799.0,-0.0010843812922201046
1798.0,-0.001257631312230778
1797.0,-0.0013009330204178937
1796.0,-0.0013009330204178937
1795.0,-0.001344230411601366
1794.0,-0.0014308122463981832
1793.0,-0.0015606526425728795
1792.0,-0.0016904542321527494
1791.0,-0.001733712809000476
1790.0,-0.001733712809000476
1789.0,-0.0016904542321527494
1788.0,-0.0016904542321527494
1787.0,-0.0018202170383281313
1786.0,-0.0019931738235303698
1785.0,-0.0020796263931210923
1784.0,-0.0020796263931210923
1783.0,-0.0020796263931210923
1782.0,-0.0021660617565077978
1781.0,-0.0022956825549340643
1780.0,-0.0024252646779014952
1779.0,-0.0025116312849080558
1778.0,-0.0025116312849080558
1777.0,-0.0023820749327607693
1776.0,-0.0022092729880145434
1775.0,-0.0020364022595291686
1774.0,-0.0019067040408846658
1773.0,-0.0019067040408846658
1772.0,-0.0021228462251614566
1771.0,-0.0024252646779014952
1770.0,-0.002684312989729598
1769.0,-0.002856926061120646
1768.0,-0.0029432068763250996
1767.0,-0.0029863408567849525
1766.0,-0.0029432068763250996
1765.0,-0.002856926061120646
1764.0,-0.002856926061120646
1763.0,-0.0029432068763250996
1762.0,-0.0030725959676747294
1761.0,-0.0030725959676747294
1760.0,-0.0029863408567849525
1759.0,-0.0029432068763250996
1758.0,-0.0029863408567849525
1757.0,-0.0030725959676747294
1756.0,-0.003158833950862139
1755.0,-0.003201946521692367
1754.0,-0.003201946521692367
1753.0,-0.003115717099805959
1752.0,-0.0029432068763250996
1751.0,-0.0028137792246734072
1750.0,-0.0027706281011936618
1749.0,-0.0027706281011936618
1748.0,-0.0028137792246734072
1747.0,-0.002900068611387585
1746.0,-0.0029432068763250996
1745.0,-0.002900068611387585
1744.0,-0.0027706281011936618
1743.0,-0.0027706281011936618
1742.0,-0.0028137792246734072
1741.0,-0.002856926061120646
1740.0,-0.0029432068763250996
1739.0,-0.002900068611387585
1738.0,-0.0028137792246734072
1737.0,-0.0026411490000399773
1736.0,-0.0024684501283323
1735.0,-0.0024684501283323
1734.0,-0.002597980719908577
1733.0,-0.0026411490000399773
1732.0,-0.0025548081484823015
1731.0,-0.0024684501283323
1730.0,-0.0024252646779014952
1729.0,-0.002338880892056583
1728.0,-0.0022524799205383417
1727.0,-0.0021228462251614566
1726.0,-0.0020364022595291686
1725.0,-0.0018634626925240205
1724.0,-0.0016904542321527494
1723.0,-0.0015173768235041685
1722.0,-0.0013009330204178937
1721.0,-0.0009543984064577238
1720.0,-0.0005642161653756084
1719.0,-0.0003472966853634851
1718.0,-0.0002604985473904087
1717.0,-0.00017368305846510168
1716.0,-4.3427276862573194e-05
1715.0,0.0
1714.0,4.343161980746579e-05
1713.0,0.0001303078917322953
1712.0,0.00030411258916074324
1711.0,0.0004779868710962365
1710.0,0.0007389288868995258
1709.0,0.0010435595295137379
1708.0,0.0013919706849057079
1707.0,0.0016970599014589638
1706.0,0.0019587356365717845
1705.0,0.0023078820582733695
1704.0,0.002613615602686581
1703.0,0.0028321285541661467
1702.0,0.0030944893043338695
1701.0,0.0033570086445275926
1700.0,0.003619686766589858
1699.0,0.0038387066319929275
1698.0,0.0040578370074493275
1697.0,0.0043648054024501
1696.0,0.004671990922590297
1695.0,0.00484762310854614
1694.0,0.004935465843858511
1693.0,0.005199100705396198
1692.0,0.005550862985963967
1691.0,0.00590291041179003
1690.0,0.006387442061109638
1689.0,0.006916639301937977
1688.0,0.007490664932224611
1687.0,0.007976972236149349
1686.0,0.00850811108984062
1685.0,0.009217308196862062
1684.0,0.010105436281226954
1683.0,0.010505687227290839
1682.0,0.010639186223752484
1681.0,0.010817248744452446
1680.0,0.011084479487313281
1679.0,0.011396456654336085
1678.0,0.011708658092512314
1677.0,0.01215504982870197
1676.0,0.012780770091995297
1675.0,0.013496984613259544
1674.0,0.013990068146738865
1673.0,0.014349026309051105
1672.0,0.014753209197138295
1671.0,0.015202742910707112
1670.0,0.015742798294583915
1669.0,0.016238439713835096
1668.0,0.016644385668211692
1667.0,0.016870075265299933
1666.0,0.017095882207371904
1665.0,0.017457417697056554
1664.0,0.01800028587012159
1663.0,0.018634490921455527
1662.0,0.019178833355664393
1661.0,0.019723858922159776
1660.0,0.02022406727031445
1659.0,0.020724852408976924
1658.0,0.02122621566987748
1657.0,0.021636852916117055
1656.0,0.022093572362881675
1655.0,0.022642270454698687
1654.0,0.023604163388120325
1653.0,0.02544225514642018
1652.0,0.026687379547098322
1651.0,0.027195677663422346
1650.0,0.027612000892527133
1649.0,0.02826040911222183
1648.0,0.029374223311705583
1647.0,0.030863766403287585
1646.0,0.032031037121307726
1645.0,0.032873418923587305
1644.0,0.03357665405630694
1643.0,0.03437503289075727
1642.0,0.03526907894637077
1641.0,0.03644826642590382
1640.0,0.03767802727041558
1639.0,0.03876880295533702
1638.0,0.03995754427315856
1637.0,0.041914151478914974
1636.0,0.04488976902944808
1635.0,0.047595060422975566
1634.0,0.04919717703534143
1633.0,0.05051241005349638
1632.0,0.05207638016827354
1631.0,0.05394093961487645
1630.0,0.056456022846545606
1629.0,0.05998184499233683
1628.0,0.06434161389936577
1627.0,0.0685421293109949
1626.0,0.07252697900472405
1625.0,0.07748213975538865
1624.0,0.08496970974083906
1623.0,0.09436599867304518
1622.0,0.1028679566179056
1621.0,0.10924374808178183
1620.0,0.11469533241103202
1619.0,0.12096149476276286
1618.0,0.13053358991913355
1617.0,0.14490504884137811
1616.0,0.1600194423216572
1615.0,0.1705032502798176
1614.0,0.17672144304832926
1613.0,0.18203819546800593
1612.0,0.18815699382352258
1611.0,0.19436323369406505
1610.0,0.19935164463601196
1609.0,0.20280173016104097
1608.0,0.2049546295788751
1607.0,0.20509389348319607
1606.0,0.20266319922465015
1605.0,0.198596289982645
1604.0,0.19382002601611292
1603.0,0.18842499412940672
1602.0,0.1818401136028147
1601.0,0.17470373556903995
1600.0,0.1675549588258891
1599.0,0.1603334431175667
1598.0,0.15292113793428452
1597.0,0.1455724942121388
1596.0,0.1387643813659596
1595.0,0.13247358880025661
1594.0,0.12638880300353272
1593.0,0.12050271275057156
1592.0,0.11514801725400226
1591.0,0.11019424813191447
1590.0,0.10540705207704448
1589.0,0.10083635852278117
1588.0,0.09674718310604158
1587.0,0.09296504751658308
1586.0,0.08932224525729482
1585.0,0.08581556657675371
1584.0,0.08265206237222844
1583.0,0.07977228854307139
1582.0,0.07701518429111709
1581.0,0.07443009045662374
1580.0,0.0720140529005715
1579.0,0.06976434723371505
1578.0,0.0675769736232612
1577.0,0.06560255921901192
1576.0,0.06408986356949264
1575.0,0.0627329277885873
1574.0,0.06103020277710969
1573.0,0.05918479134919874
1572.0,0.05749589383191922
1571.0,0.05606053552778367
1570.0,0.054876229877880656
1569.0,0.05369514500652506
1568.0,0.052468254304406825
1567.0,0.05119595406718891
1566.0,0.04997609347667353
1565.0,0.04885683989244738
1564.0,0.0478374257855374
1563.0,0.04677202844014605
1562.0,0.045564513671517703
1561.0,0.044360346976747955
1560.0,0.04363944632667782
1559.0,0.04397571771932274
1558.0,0.04383156952463674
1557.0,0.04253638427006878
1556.0,0.041197296600497646
1555.0,0.0400527842915015
1554.0,0.03910132267333921
1553.0,0.03824678581321739
1552.0,0.037488606492403154
1551.0,0.03692083935817303
1550.0,0.036401037402758574
1549.0,0.03588185684851508
1548.0,0.03526907894637077
1547.0,0.03470420418834386
1546.0,0.03428102975577918
1545.0,0.03409308450480819
1544.0,0.034046110897937076
1543.0,0.033952178923546183
1542.0,0.03367050483612166
1541.0,0.03343591590268957
1540.0,0.03357665405630694
1539.0,0.03362357691107709
1538.0,0.0332483359486222
1537.0,0.03273290844021437
1536.0,0.03226486821611996
1535.0,0.032031037121307726
1534.0,0.032124554451966825
1533.0,0.03226486821611996
1532.0,0.032218091924200776
1531.0,0.03189079887180224
1530.0,0.03151705144606498
1529.0,0.031190286087141805
1528.0,0.030863766403287585
1527.0,0.0307239045110681
1526.0,0.03058408764601861
1525.0,0.03030458888152676
1524.0,0.029885677714903025
1523.0,0.029281296279810798
1522.0,0.02858497661500481
1521.0,0.027936083991977778
1520.0,0.027334407733889066
1519.0,0.02677975314776626
1518.0,0.026087429580295085
1517.0,0.02521206778644225
1516.0,0.024338466818941473
1515.0,0.02351246269481
1514.0,0.02282532397981263
1513.0,0.02227639471115217
1512.0,0.021910826943857264
1511.0,0.02168250325324883
1510.0,0.0214542995372613
1509.0,0.0211806132671577
1508.0,0.021135015652343103
1507.0,0.0211806132671577
1506.0,0.02081596632558158
1505.0,0.020178569969774962
1504.0,0.019723858922159776
1503.0,0.019360432556262852
1502.0,0.019133445417920836
1501.0,0.019042683770379876
1500.0,0.01899731005860028
1499.0,0.01899731005860028
1498.0,0.018815862601645694
1497.0,0.01858915983411169
1496.0,0.01840788278591865
1495.0,0.01831727262871463
1494.0,0.018226681372252695
1493.0,0.018181392829336396
1492.0,0.018136109008649592
1491.0,0.018271974638383703
1490.0,0.01840788278591865
1489.0,0.018498511851753108
1488.0,0.018498511851753108
1487.0,0.01845319495476394
1486.0,0.01840788278591865
1485.0,0.018362575344230914
1484.0,0.018362575344230914
1483.0,0.018362575344230914
1482.0,0.01845319495476394
1481.0,0.018543833477873584
1480.0,0.01858915983411169
1479.0,0.01858915983411169
1478.0,0.018543833477873584
1477.0,0.01858915983411169
1476.0,0.018634490921455527
1475.0,0.018634490921455527
1474.0,0.018634490921455527
1473.0,0.01858915983411169
1472.0,0.01840788278591865
1471.0,0.018136109008649592
1470.0,0.01781925440359733
1469.0,0.01759307113620534
1468.0,0.017412209298337533
1467.0,0.01727661233145472
1466.0,0.017186237868137555
1465.0,0.017186237868137555
1464.0,0.017186237868137555
1463.0,0.017141057687924732
1462.0,0.017095882207371904
1461.0,0.017050711425501408
1460.0,0.017005545341335804
1459.0,0.017005545341335804
1458.0,0.016960383953898095
1457.0,0.017095882207371904
1456.0,0.017231422748988034
1455.0,0.017321806616515723
1454.0,0.017367005605150476
1453.0,0.017457417697056554
1452.0,0.017547848615010242
1451.0,0.01768353030793479
1450.0,0.017909760704207134
1449.0,0.018181392829336396
1448.0,0.018498511851753108
1447.0,0.018815862601645694
1446.0,0.019042683770379876
1445.0,0.019269623464054586
1444.0,0.01954210772389997
1443.0,0.019814763052665052
1442.0,0.01995115493504329
1441.0,0.019996628416253603
1440.0,0.019860222254245663
1439.0,0.01954210772389997
1438.0,0.0190880622231564
1437.0,0.018634490921455527
1436.0,0.01831727262871463
1435.0,0.01800028587012159
1434.0,0.01768353030793479
1433.0,0.017367005605150476
1432.0,0.017050711425501408
1431.0,0.01677978535189717
1430.0,0.01646391839700767
1429.0,0.016148281008528276
1428.0,0.015832872853011715
1427.0,0.015652742414136167
1426.0,0.015517693597737248
1425.0,0.01538268676325183
1424.0,0.015292705517326866
1423.0,0.015157768594724175
1422.0,0.014932966849499074
1421.0,0.014708281407112
1420.0,0.01452861671041239
1419.0,0.014393916947563534
1418.0,0.014259258949925524
1417.0,0.01403492169512921
1416.0,0.01385553528947936
1415.0,0.01372104409400876
1414.0,0.013586594534531482
1413.0,0.013452186585275916
1412.0,0.013317820220494436
1411.0,0.01322826573375524
1410.0,0.013093968619278806
1409.0,0.012959713020733288
1408.0,0.012870232340102872
1407.0,0.012825498912458322
1406.0,0.012736045877764557
1405.0,0.01264661126420652
1404.0,0.012557195064198723
1403.0,0.012467797270160563
1402.0,0.012378417874516323
1401.0,0.012244383261476699
1400.0,0.012199714248127602
1399.0,0.012199714248127602
1398.0,0.01215504982870197
1397.0,0.012021084124518078
1396.0,0.011842527443247208
1395.0,0.011708658092512314
1394.0,0.011530229790124524
1393.0,0.011396456654336085
1392.0,0.011262724711199823
1391.0,0.011129033935354915
1390.0,0.010995384301463185
1389.0,0.010906307389674463
1388.0,0.01086177578421088
1387.0,0.010950843561779777
1386.0,0.011039929609661936
1385.0,0.011039929609661936
1384.0,0.010995384301463185
1383.0,0.010995384301463185
1382.0,0.010995384301463185
1381.0,0.010995384301463185
1380.0,0.011039929609661936
1379.0,0.011129033935354915
1378.0,0.011262724711199823
1377.0,0.011351874764248926
1376.0,0.011485634166333858
1375.0,0.011530229790124524
1374.0,0.011530229790124524
1373.0,0.011396456654336085
1372.0,0.011218156546359825
1371.0,0.011129033935354915
1370.0,0.011129033935354915
1369.0,0.01117359295472431
1368.0,0.01117359295472431
1367.0,0.01117359295472431
1366.0,0.011129033935354915
1365.0,0.011084479487313281
1364.0,0.011039929609661936
1363.0,0.010995384301463185
1362.0,0.010906307389674463
1361.0,0.010728208358306901
1360.0,0.010594681998483901
1359.0,0.01046119667949763
1358.0,0.010327752376126709
1357.0,0.01023881228122181
1356.0,0.010105436281226954
1355.0,0.01001654169860089
1354.0,0.009927665307847056
1353.0,0.009794384815193347
1352.0,0.00966114521239847
1351.0,0.009527946474380489
1350.0,0.00939478857608056
1349.0,0.009217308196862062
1348.0,0.00908424549391551
1347.0,0.008951223547323472
1346.0,0.008862564879688284
1345.0,0.0087296108049002
1344.0,0.008596697419959609
1343.0,0.00850811108984062
1342.0,0.008463824699968647
1341.0,0.008463824699968647
1340.0,0.008463824699968647
1339.0,0.008552401996197112
1338.0,0.008640997362049818
1337.0,0.008640997362049818
1336.0,0.008640997362049818
1335.0,0.008685301823389224
1334.0,0.008685301823389224
1333.0,0.008685301823389224
1332.0,0.008640997362049818
1331.0,0.008640997362049818
1330.0,0.008640997362049818
1329.0,0.008596697419959609
1328.0,0.008552401996197112
1327.0,0.008552401996197112
1326.0,0.00850811108984062
1325.0,0.008552401996197112
1324.0,0.008596697419959609
1323.0,0.008685301823389224
1322.0,0.008773924307505121
1321.0,0.008818242332126802
1320.0,0.008818242332126802
1319.0,0.008862564879688284
1318.0,0.008862564879688284
1317.0,0.008906891951112605
1316.0,0.008906891951112605
1315.0,0.008906891951112605
1314.0,0.008906891951112605
1313.0,0.008906891951112605
1312.0,0.008951223547323472
1311.0,0.008995559669244813
1310.0,0.009039900317800775
1309.0,0.008951223547323472
1308.0,0.008906891951112605
1307.0,0.008951223547323472
1306.0,0.008995559669244813
1305.0,0.00908424549391551
1304.0,0.009172949432521227
1303.0,0.009217308196862062
1302.0,0.009217308196862062
1301.0,0.009172949432521227
1300.0,0.009128595198514056
1299.0,0.009128595198514056
1298.0,0.009128595198514056
1297.0,0.00908424549391551
1296.0,0.009039900317800775
1295.0,0.008995559669244813
1294.0,0.008951223547323472
1293.0,0.008862564879688284
1292.0,0.008862564879688284
1291.0,0.008862564879688284
1290.0,0.008906891951112605
1289.0,0.008906891951112605
1288.0,0.008862564879688284
1287.0,0.008862564879688284
1286.0,0.008862564879688284
1285.0,0.008862564879688284
1284.0,0.008906891951112605
1283.0,0.008951223547323472
1282.0,0.008951223547323472
1281.0,0.008995559669244813
1280.0,0.009039900317800775
1279.0,0.009039900317800775
1278.0,0.00908424549391551
1277.0,0.009128595198514056
1276.0,0.009172949432521227
1275.0,0.009172949432521227
1274.0,0.009172949432521227
1273.0,0.009172949432521227
1272.0,0.009217308196862062
1271.0,0.009261671492462709
1270.0,0.00939478857608056
1269.0,0.009483555971770974
1268.0,0.009616741093766423
1267.0,0.00974996707218323
1266.0,0.009883233932095559
1265.0,0.010060986715464404
1264.0,0.01023881228122181
1263.0,0.010416710688994968
1262.0,0.010594681998483901
1261.0,0.010728208358306901
1260.0,0.01086177578421088
1259.0,0.010950843561779777
1258.0,0.011039929609661936
1257.0,0.011129033935354915
1256.0,0.011218156546359825
1255.0,0.011351874764248926
1254.0,0.011441043121384498
1253.0,0.011574829993696856
1252.0,0.011753276624621556
1251.0,0.0119764380713403
1250.0,0.012199714248127602
1249.0,0.012333735073725371
1248.0,0.012467797270160563
1247.0,0.01260190086298274
1246.0,0.012736045877764557
1245.0,0.012914970375878188
1244.0,0.013049212141483357
1243.0,0.01318349541446362
1242.0,0.013273040668781544
1241.0,0.013407393177789162
1240.0,0.013496984613259544
1239.0,0.013541787262693505
1238.0,0.013586594534531482
1237.0,0.013676222949234651
1236.0,0.01372104409400876
1235.0,0.013765869865004277
1234.0,0.01381070026317599
1233.0,0.013900374944870508
1232.0,0.013990068146738865
1231.0,0.014124642691606404
1230.0,0.014259258949925524
1229.0,0.014349026309051105
1228.0,0.014438812226654996
1227.0,0.014573525916998342
1226.0,0.014708281407112
1225.0,0.014798141635428141
1224.0,0.014888020460646079
1223.0,0.014977917890464765
1222.0,0.015157768594724175
1221.0,0.015337693809893471
1220.0,0.015517693597737248
1219.0,0.015652742414136167
1218.0,0.015742798294583915
1217.0,0.015832872853011715
1216.0,0.015922966097169144
1215.0,0.016103208673694303
1214.0,0.01632861713980338
1213.0,0.016509028184833463
1212.0,0.016734647433454652
1211.0,0.016960383953898095
1210.0,0.017231422748988034
1209.0,0.017457417697056554
1208.0,0.017638298366853045
1207.0,0.017864505196230507
1206.0,0.01809082990920774
1205.0,0.01831727262871463
1204.0,0.018543833477873584
1203.0,0.018815862601645694
1202.0,0.019042683770379876
1201.0,0.019315025636685412
1200.0,0.01958753839310856
1199.0,0.01990568621470623
1198.0,0.02022406727031445
1197.0,0.020542681902151694
1196.0,0.02081596632558158
1195.0,0.021089422824428272
1194.0,0.021317434843055594
1193.0,0.021545566634771474
1192.0,0.021773818325474092
1191.0,0.02204787879853809
1190.0,0.022367834754000393
1189.0,0.022642270454698687
1188.0,0.02291687968414724
1187.0,0.023237476732539397
1186.0,0.02355831062115543
1185.0,0.023879381700184332
1184.0,0.024200690320592466
1183.0,0.024476287039668643
1182.0,0.02475205875931885
1181.0,0.025028005701930978
1180.0,0.025304128090317013
1179.0,0.02562649291857677
1178.0,0.025902996205869
1177.0,0.02613355016462182
1176.0,0.026318081496016443
1175.0,0.026502691267936695
1174.0,0.026733563891471412
1173.0,0.02696455931306696
1172.0,0.027149444152769986
1171.0,0.027334407733889066
1170.0,0.02751945012352408
1169.0,0.027797161620935595
1168.0,0.028075050815808744
1167.0,0.028353117935693284
1166.0,0.02863136320857662
1165.0,0.02890978686288448
1164.0,0.029095501846216454
1163.0,0.02932775731028059
1162.0,0.029467170231675777
1161.0,0.029653123769906697
1160.0,0.029746130405213123
1159.0,0.029885677714903025
1158.0,0.030071810571884017
1157.0,0.03030458888152676
1156.0,0.03063068826647264
1155.0,0.030910397045078586
1154.0,0.031143625385307683
1153.0,0.03133029827960798
1152.0,0.031563752288295444
1151.0,0.03179733185715028
1150.0,0.03193753992355086
1149.0,0.032031037121307726
1148.0,0.032124554451966825
1147.0,0.03235843591698884
1146.0,0.032592443402527316
1145.0,0.03282657704446046
1144.0,0.0329671178412978
1143.0,0.03310770413286357
1142.0,0.0332483359486222
1141.0,0.03343591590268957
1140.0,0.03362357691107709
1139.0,0.03376437590141812
1138.0,0.03385826726096752
1137.0,0.033952178923546183
1136.0,0.03409308450480819
1135.0,0.03432802877989327
1134.0,0.034516075754861264
1133.0,0.03470420418834386
1132.0,0.03489241415094413
1131.0,0.03508070571335731
1130.0,0.03526907894637077
1129.0,0.03545753392086315
1128.0,0.03559892883726867
1127.0,0.035693217696063595
1126.0,0.035740369803151095
1125.0,0.03583468937826462
1124.0,0.03597620715996652
1123.0,0.03621217265444465
1122.0,0.03635381351515665
1121.0,0.03649550058570927
1120.0,0.03658998431977123
1119.0,0.036731748473764814
1118.0,0.036873558918095295
1117.0,0.037062711569998186
1116.0,0.037251946641359446
1115.0,0.037346595106788616
1114.0,0.03739392707587297
1113.0,0.03744126420403626
1112.0,0.037583306554248797
1111.0,0.03767802727041558
1110.0,0.03772539537668518
1109.0,0.03772539537668518
1108.0,0.03777276864991497
1107.0,0.03786753070176463
1106.0,0.03791491948264003
1105.0,0.03791491948264003
1104.0,0.03791491948264003
1103.0,0.03791491948264003
1102.0,0.03786753070176463
1101.0,0.03791491948264003
1100.0,0.03791491948264003
1099.0,0.03791491948264003
1098.0,0.03782014709123227
1097.0,0.03772539537668518
1096.0,0.03763066432997886
1095.0,0.03763066432997886
1094.0,0.03763066432997886
1093.0,0.03763066432997886
1092.0,0.037583306554248797
1091.0,0.037583306554248797
1090.0,0.037488606492403154
1089.0,0.037346595106788616
1088.0,0.037299268295658994
1087.0,0.037251946641359446
1086.0,0.037251946641359446
1085.0,0.0371573187987575
1084.0,0.03701541568300293
1083.0,0.036873558918095295
1082.0,0.03668448861388862
1081.0,0.036542739883292485
1080.0,0.03635381351515665
1079.0,0.03625938114211591
1078.0,0.03616496929785207
1077.0,0.03602339000339416
1076.0,0.03588185684851508
1075.0,0.035646070707806565
1074.0,0.03541041251009669
1073.0,0.03522197797762394
1072.0,0.03512779136222477
1071.0,0.03503362516890207
1070.0,0.03489241415094413
1069.0,0.03465716443937783
1068.0,0.03442204208947208
1067.0,0.03423403581731388
1066.0,0.03414006319292828
1065.0,0.03409308450480819
1064.0,0.03399914237121604
1063.0,0.033952178923546183
1062.0,0.0338113190438627
1061.0,0.03357665405630694
1060.0,0.03338901331806565
1059.0,0.033154576345083564
1058.0,0.032920265855503006
1057.0,0.032686081712916426
1056.0,0.03249882527715853
1055.0,0.032311649546687526
1054.0,0.03217132066984485
1053.0,0.032031037121307726
1052.0,0.03184406285002961
1051.0,0.03170388495374454
1050.0,0.03161045815293173
1049.0,0.03151705144606498
1048.0,0.03142366482450232
1047.0,0.03133029827960798
1046.0,0.031143625385307683
1045.0,0.030957032694186815
1044.0,0.0307239045110681
1043.0,0.03058408764601861
1042.0,0.03058408764601861
1041.0,0.03063068826647264
1040.0,0.03067729388779794
1039.0,0.03067729388779794
1038.0,0.0307239045110681
1037.0,0.0307239045110681
1036.0,0.030770520137356927
1035.0,0.030770520137356927
1034.0,0.0307239045110681
1033.0,0.03063068826647264
1032.0,0.030537492025363155
1031.0,0.030397735151460825
1030.0,0.03025802323714588
1029.0,0.03002526987828502
1028.0,0.029839156962686353
1027.0,0.029746130405213123
1026.0,0.02969962459782227
1025.0,0.02960662792039992
1024.0,0.029513651152349718
1023.0,0.02942069428514915
1022.0,0.029281296279810798
1021.0,0.029188389127482228
1020.0,0.029095501846216454
1019.0,0.028956208163971375
1018.0,0.028816959143838528
1017.0,0.02872415126189476
1016.0,0.02858497661500481
1015.0,0.02849221828874393
1014.0,0.028353117935693284
1013.0,0.02826040911222183
1012.0,0.028167720075074953
1011.0,0.02812138297373412
1010.0,0.028167720075074953
1009.0,0.028214062120885508
1008.0,0.02812138297373412
1007.0,0.028028723600243666
1006.0,0.027889771597169544
1005.0,0.027797161620935595
1004.0,0.027750864037404455
1003.0,0.027658283674251827
1002.0,0.02747318213414429
1001.0,0.02724191609646076
1000.0,0.027056991894431892
999.0,0.02696455931306696
998.0,0.02696455931306696
997.0,0.027010773144651168
996.0,0.02696455931306696
995.0,0.02677975314776626
994.0,0.026595025589939425
993.0,0.026410376572743033
992.0,0.026271941311972746
991.0,0.02613355016462182
990.0,0.025949097207122573
989.0,0.025810808881832736
988.0,0.025718641122169483
987.0,0.025810808881832736
986.0,0.025949097207122573
985.0,0.026087429580295085
984.0,0.026225806029419818
983.0,0.026225806029419818
982.0,0.026087429580295085
981.0,0.025856900097785074
980.0,0.02553436426275746
979.0,0.025304128090317013
978.0,0.02512002699306959
977.0,0.025028005701930978
976.0,0.024936003904763915
975.0,0.024798037742147727
974.0,0.024660115394541604
973.0,0.024522236834125355
972.0,0.024430342106337877
971.0,0.024430342106337877
970.0,0.024430342106337877
969.0,0.02438440203310499
968.0,0.024246610963712723
967.0,0.024108863598207186
966.0,0.024017056287453542
965.0,0.023925268380126097
964.0,0.023879381700184332
963.0,0.023741750742954926
962.0,0.02365002099672653
961.0,0.02355831062115543
960.0,0.02351246269481
959.0,0.023466619608062178
958.0,0.02342078135989012
957.0,0.023283295636617574
956.0,0.02314585342378117
955.0,0.02296266477531872
954.0,0.02282532397981263
953.0,0.02282532397981263
952.0,0.022871099419317753
951.0,0.02291687968414724
950.0,0.02291687968414724
949.0,0.022871099419317753
948.0,0.02277955336461468
947.0,0.022733787572707387
946.0,0.022642270454698687
945.0,0.022505030926963654
944.0,0.022367834754000393
943.0,0.02227639471115217
942.0,0.02227639471115217
941.0,0.022322112326006227
940.0,0.022322112326006227
939.0,0.02227639471115217
938.0,0.022230681908425698
937.0,0.02227639471115217
936.0,0.022367834754000393
935.0,0.022322112326006227
934.0,0.022230681908425698
933.0,0.022230681908425698
932.0,0.022230681908425698
931.0,0.02227639471115217
930.0,0.022322112326006227
929.0,0.022322112326006227
928.0,0.022322112326006227
927.0,0.02227639471115217
926.0,0.022230681908425698
925.0,0.022230681908425698
924.0,0.0221849739168134
923.0,0.022139270735302752
922.0,0.02204787879853809
921.0,0.02200219004126036
920.0,0.02200219004126036
919.0,0.02204787879853809
918.0,0.022093572362881675
917.0,0.022093572362881675
916.0,0.022093572362881675
915.0,0.022093572362881675
914.0,0.022139270735302752
913.0,0.022139270735302752
912.0,0.022093572362881675
911.0,0.02200219004126036
910.0,0.021910826943857264
909.0,0.021773818325474092
908.0,0.021636852916117055
907.0,0.021499930688540836
906.0,0.021363051615525652
905.0,0.021271822861508305
904.0,0.021271822861508305
903.0,0.021363051615525652
902.0,0.021499930688540836
901.0,0.02159120737696063
900.0,0.021545566634771474
899.0,0.0214542995372613
898.0,0.021363051615525652
897.0,0.021271822861508305
896.0,0.0211806132671577
895.0,0.021089422824428272
894.0,0.0209982515252789
893.0,0.020861530453190058
892.0,0.02067930261797568
891.0,0.020542681902151694
890.0,0.020497151212598652
889.0,0.02045162529590483
888.0,0.02036058777709271
887.0,0.02013307743509718
886.0,0.01990568621470623
885.0,0.019723858922159776
884.0,0.019632973815224997
883.0,0.019678413991243593
882.0,0.019723858922159776
881.0,0.019814763052665052
880.0,0.019769308608968306
879.0,0.019678413991243593
878.0,0.01954210772389997
877.0,0.019451260640229506
876.0,0.019451260640229506
875.0,0.019678413991243593
874.0,0.01995115493504329
873.0,0.02022406727031445
872.0,0.02036058777709271
871.0,0.020315076172974234
870.0,0.02026956933771462
869.0,0.02026956933771462
868.0,0.02036058777709271
867.0,0.020406104151069693
866.0,0.020406104151069693
865.0,0.020315076172974234
864.0,0.02026956933771462
863.0,0.020315076172974234
862.0,0.02045162529590483
861.0,0.020633757603838898
860.0,0.020770406977844713
859.0,0.020861530453190058
858.0,0.020907099361673565
857.0,0.020907099361673565
856.0,0.020861530453190058
855.0,0.020907099361673565
854.0,0.021089422824428272
853.0,0.02140867317992523
852.0,0.021728158389364705
851.0,0.02200219004126036
850.0,0.02227639471115217
849.0,0.022642270454698687
848.0,0.02296266477531872
847.0,0.02314585342378117
846.0,0.02314585342378117
845.0,0.02314585342378117
844.0,0.023100049017062307
843.0,0.02300845469384938
842.0,0.02277955336461468
841.0,0.02245929405346514
840.0,0.022093572362881675
839.0,0.021773818325474092
838.0,0.02159120737696063
837.0,0.0214542995372613
836.0,0.021363051615525652
835.0,0.021317434843055594
834.0,0.021317434843055594
833.0,0.02122621566987748
832.0,0.0209982515252789
831.0,0.02067930261797568
830.0,0.020542681902151694
829.0,0.020542681902151694
828.0,0.020633757603838898
827.0,0.02058821736556471
826.0,0.020542681902151694
825.0,0.02058821736556471
824.0,0.020633757603838898
823.0,0.02067930261797568
822.0,0.02067930261797568
821.0,0.020633757603838898
820.0,0.02058821736556471
819.0,0.020542681902151694
818.0,0.020542681902151694
817.0,0.020497151212598652
816.0,0.020497151212598652
815.0,0.02045162529590483
814.0,0.020542681902151694
813.0,0.020770406977844713
812.0,0.021135015652343103
811.0,0.021545566634771474
810.0,0.021819483062586187
809.0,0.021910826943857264
808.0,0.021956506090037076
807.0,0.021956506090037076
806.0,0.02200219004126036
805.0,0.0221849739168134
804.0,0.022505030926963654
803.0,0.022871099419317753
802.0,0.02314585342378117
801.0,0.023283295636617574
800.0,0.02342078135989012
799.0,0.023604163388120325
798.0,0.023925268380126097
797.0,0.024338466818941473
796.0,0.024706084643793647
795.0,0.024936003904763915
794.0,0.025028005701930978
793.0,0.025028005701930978
792.0,0.02498200236711723
791.0,0.02512002699306959
790.0,0.02539620791296726
789.0,0.025672564576383117
788.0,0.025995203102585407
787.0,0.026318081496016443
786.0,0.026687379547098322
785.0,0.027056991894431892
784.0,0.027334407733889066
783.0,0.02747318213414429
782.0,0.02738066094037661
781.0,0.027334407733889066
780.0,0.02747318213414429
779.0,0.027797161620935595
778.0,0.028214062120885508
777.0,0.02858497661500481
776.0,0.028863370523193765
775.0,0.029095501846216454
774.0,0.029234840219232394
773.0,0.029281296279810798
772.0,0.02932775731028059
771.0,0.029374223311705583
770.0,0.029513651152349718
769.0,0.02960662792039992
768.0,0.029653123769906697
767.0,0.02969962459782227
766.0,0.029932203450862893
765.0,0.03030458888152676
764.0,0.030770520137356927
763.0,0.031236951802751545
762.0,0.03161045815293173
761.0,0.03193753992355086
760.0,0.032124554451966825
759.0,0.03226486821611996
758.0,0.03245202378113787
757.0,0.03263926003405038
756.0,0.03282657704446046
755.0,0.03301397488206215
754.0,0.033295223342125535
753.0,0.03376437590141812
752.0,0.034469056377139484
751.0,0.035363296211498474
750.0,0.03625938114211591
749.0,0.0371100126082089
748.0,0.03772539537668518
747.0,0.038057116858612794
746.0,0.03829421599749461
745.0,0.038531444649213764
744.0,0.03886378261277468
743.0,0.03929144831144349
742.0,0.039909932095080425
741.0,0.04076775094900409
740.0,0.04167506835594681
739.0,0.042392712939904875
738.0,0.042775942156833
737.0,0.0431115453499229
736.0,0.04359142880416744
735.0,0.04440844959427559
734.0,0.045516282844447975
733.0,0.04672366333269573
732.0,0.047982909952573705
731.0,0.04919717703534143
730.0,0.050414848673348
729.0,0.05153812993871654
728.0,0.05237025261564554
727.0,0.05295859474477971
726.0,0.0534986094304124
725.0,0.05433450056786593
724.0,0.05546797900801881
723.0,0.05670338543334519
722.0,0.05799194697768684
721.0,0.05938391766259232
720.0,0.060880282351513104
719.0,0.06218131530164395
718.0,0.06323500239005853
717.0,0.06403953101083348
716.0,0.06464390705442691
715.0,0.06519865825346338
714.0,0.0658551882075229
713.0,0.06701917807680191
712.0,0.06864384953207203
711.0,0.07022356719509815
710.0,0.07129697256940304
709.0,0.07196279359311708
708.0,0.07268097504034388
707.0,0.07365755337434488
706.0,0.07489427319033615
705.0,0.07618627890881036
704.0,0.07743023101428781
703.0,0.07857365898473456
702.0,0.07961575782164254
701.0,0.08071265949561734
700.0,0.08175990977858505
699.0,0.08259953204474924
698.0,0.08317771540408803
697.0,0.08370400543686918
696.0,0.08465293767580806
695.0,0.08618614761628329
694.0,0.08804381092731295
693.0,0.08985603893548699
692.0,0.09151498112135026
691.0,0.09296504751658308
690.0,0.09393445524476318
689.0,0.09404230090757282
688.0,0.0935572061829677
687.0,0.09323411045927221
686.0,0.09415017335768128
685.0,0.09663866374468144
684.0,0.09979678698310646
683.0,0.10259286033841963
682.0,0.10452220372428545
681.0,0.10579474085791629
680.0,0.10651565378151395
679.0,0.10662666975397506
678.0,0.10640466618011679
677.0,0.10673771411200872
676.0,0.10807246577932506
675.0,0.10974669484546551
674.0,0.11053021603049262
673.0,0.10980261378997125
672.0,0.10823959854332843
671.0,0.10723776538418317
670.0,0.10823959854332843
669.0,0.11266406960083297
668.0,0.11855827805860697
667.0,0.1207320431753871
666.0,0.1201016756699902
665.0,0.11918640771920863
664.0,0.11810202642698875
663.0,0.1169634899723202
662.0,0.11633856484638239
661.0,0.11713408027837091
660.0,0.11884367892443626
659.0,0.1203880929341492
658.0,0.12119106764079435
657.0,0.12159311241900439
656.0,0.1219955297319748
655.0,0.12251347193039863
654.0,0.12308968865537295
653.0,0.12378215940835768
652.0,0.12464930342071079
651.0,0.12586622117202761
650.0,0.12737762097471172
649.0,0.12889429901441463
648.0,0.12988884463559924
647.0,0.13024040521758962
646.0,0.1302990263261221
645.0,0.1304749371427727
644.0,0.13094438129809216
643.0,0.1314731132317961
642.0,0.1322379753497993
641.0,0.13347637446715632
640.0,0.13531096586314884
639.0,0.1374512304752069
638.0,0.13984173868172167
637.0,0.14260718907909875
636.0,0.14587621789883287
635.0,0.148864004988426
634.0,0.15058058620310066
633.0,0.15051916275601385
632.0,0.14929251462546267
631.0,0.1480693213597324
630.0,0.14776406058811253
629.0,0.14843591773651155
628.0,0.14984407757790774
627.0,0.1515645446685292
626.0,0.1532918545439932
625.0,0.1548399223480541
624.0,0.15570925674565683
623.0,0.1559579579589836
622.0,0.15614457737683884
621.0,0.15682953548010214
620.0,0.1582027011256446
619.0,0.160145015398115
618.0,0.16228533171508874
617.0,0.16430942850757435
616.0,0.16564288728159493
615.0,0.16634300310712757
614.0,0.16723569505946845
613.0,0.16877030613293664
612.0,0.1704389437006073
611.0,0.1714689933548985
610.0,0.17192040944325404
609.0,0.17256610459922084
608.0,0.17392519729917355
607.0,0.17593928258134706
606.0,0.17815907279954568
605.0,0.17992996568767428
604.0,0.18078520011761579
603.0,0.1809828013109407
602.0,0.18164212204164532
601.0,0.18302996224270052
600.0,0.18342730397389695
