cm-1,A
4000.0,0.00656376950238835
3999.0,0.00656376950238835
3998.0,0.006607862550997545
3997.0,0.006607862550997545
3996.0,0.006651960076740071
3995.0,0.006607862550997545
3994.0,0.006475596832934416
3993.0,0.006343371384537999
3992.0,0.00625524344553785
3991.0,0.00621118618129457
3990.0,0.006299305179649828
3989.0,0.006431517210272464
3988.0,0.006519680930003435
3987.0,0.00656376950238835
3986.0,0.00656376950238835
3985.0,0.00656376950238835
3984.0,0.006607862550997545
3983.0,0.006696062080525422
3982.0,0.006740168563263094
3981.0,0.006828394969235152
3980.0,0.006828394969235152
3979.0,0.006828394969235152
3978.0,0.006740168563263094
3977.0,0.006651960076740071
3976.0,0.00656376950238835
3975.0,0.006519680930003435
3974.0,0.00656376950238835
3973.0,0.006651960076740071
3972.0,0.006740168563263094
3971.0,0.006828394969235152
3970.0,0.006872514894289861
3969.0,0.006828394969235152
3968.0,0.006828394969235152
3967.0,0.006828394969235152
3966.0,0.006828394969235152
3965.0,0.006916639301937977
3964.0,0.007004901568658406
3963.0,0.007049039429553483
3962.0,0.007004901568658406
3961.0,0.00696076819309055
3960.0,0.006916639301937977
3959.0,0.006872514894289861
3958.0,0.006872514894289861
3957.0,0.006872514894289861
3956.0,0.00696076819309055
3955.0,0.007049039429553483
3954.0,0.007093181776687496
3953.0,0.007049039429553483
3952.0,0.00696076819309055
3951.0,0.006828394969235152
3950.0,0.006784279525863024
3949.0,0.006872514894289861
3948.0,0.00696076819309055
3947.0,0.007004901568658406
3946.0,0.00696076819309055
3945.0,0.006784279525863024
3944.0,0.006651960076740071
3943.0,0.006651960076740071
3942.0,0.006740168563263094
3941.0,0.006872514894289861
3940.0,0.006916639301937977
3939.0,0.006828394969235152
3938.0,0.006784279525863024
3937.0,0.006784279525863024
3936.0,0.00696076819309055
3935.0,0.007093181776687496
3934.0,0.007137328610972382
3933.0,0.007093181776687496
3932.0,0.007049039429553483
3931.0,0.007137328610972382
3930.0,0.007269796045857202
3929.0,0.0074464821678643656
3928.0,0.0075790439479759275
3927.0,0.00762324020119709
3926.0,0.007534852191956709
3925.0,0.007358130121602358
3924.0,0.007269796045857202
3923.0,0.007225635744644521
3922.0,0.007269796045857202
3921.0,0.007313960837872058
3920.0,0.007313960837872058
3919.0,0.007313960837872058
3918.0,0.007225635744644521
3917.0,0.007093181776687496
3916.0,0.00696076819309055
3915.0,0.006916639301937977
3914.0,0.006916639301937977
3913.0,0.006916639301937977
3912.0,0.006916639301937977
3911.0,0.006916639301937977
3910.0,0.00696076819309055
3909.0,0.007004901568658406
3908.0,0.007049039429553483
3907.0,0.007093181776687496
3906.0,0.007137328610972382
3905.0,0.007225635744644521
3904.0,0.0074464821678643656
3903.0,0.007667440952535687
3902.0,0.007844288957383316
3901.0,0.007888512213050314
3900.0,0.007800070204414977
3899.0,0.00762324020119709
3898.0,0.007490664932224611
3897.0,0.007313960837872058
3896.0,0.007269796045857202
3895.0,0.007313960837872058
3894.0,0.007490664932224611
3893.0,0.0075790439479759275
3892.0,0.00762324020119709
3891.0,0.007534852191956709
3890.0,0.0074464821678643656
3889.0,0.0074464821678643656
3888.0,0.007402303897961815
3887.0,0.007181479933320523
3886.0,0.007004901568658406
3885.0,0.007049039429553483
3884.0,0.007269796045857202
3883.0,0.007490664932224611
3882.0,0.007490664932224611
3881.0,0.007402303897961815
3880.0,0.007402303897961815
3879.0,0.007534852191956709
3878.0,0.007667440952535687
3877.0,0.007800070204414977
3876.0,0.007667440952535687
3875.0,0.007490664932224611
3874.0,0.007402303897961815
3873.0,0.0074464821678643656
3872.0,0.007490664932224611
3871.0,0.007269796045857202
3870.0,0.007093181776687496
3869.0,0.007093181776687496
3868.0,0.007269796045857202
3867.0,0.007358130121602358
3866.0,0.007181479933320523
3865.0,0.007004901568658406
3864.0,0.007181479933320523
3863.0,0.0074464821678643656
3862.0,0.0075790439479759275
3861.0,0.007490664932224611
3860.0,0.007269796045857202
3859.0,0.007049039429553483
3858.0,0.007049039429553483
3857.0,0.007225635744644521
3856.0,0.007402303897961815
3855.0,0.007137328610972382
3854.0,0.006784279525863024
3853.0,0.006828394969235152
3852.0,0.007093181776687496
3851.0,0.007313960837872058
3850.0,0.007358130121602358
3849.0,0.007358130121602358
3848.0,0.007358130121602358
3847.0,0.007402303897961815
3846.0,0.007402303897961815
3845.0,0.007358130121602358
3844.0,0.007269796045857202
3843.0,0.007225635744644521
3842.0,0.007269796045857202
3841.0,0.007313960837872058
3840.0,0.007402303897961815
3839.0,0.007534852191956709
3838.0,0.007755855953228474
3837.0,0.007888512213050314
3836.0,0.007976972236149349
3835.0,0.007976972236149349
3834.0,0.007888512213050314
3833.0,0.007711646202907652
3832.0,0.007534852191956709
3831.0,0.0074464821678643656
3830.0,0.0075790439479759275
3829.0,0.007711646202907652
3828.0,0.007755855953228474
3827.0,0.007711646202907652
3826.0,0.00762324020119709
3825.0,0.007711646202907652
3824.0,0.007844288957383316
3823.0,0.007667440952535687
3822.0,0.007313960837872058
3821.0,0.007225635744644521
3820.0,0.007358130121602358
3819.0,0.0075790439479759275
3818.0,0.007534852191956709
3817.0,0.007358130121602358
3816.0,0.007225635744644521
3815.0,0.007358130121602358
3814.0,0.007534852191956709
3813.0,0.007534852191956709
3812.0,0.007402303897961815
3811.0,0.007313960837872058
3810.0,0.007358130121602358
3809.0,0.007402303897961815
3808.0,0.007313960837872058
3807.0,0.007269796045857202
3806.0,0.007358130121602358
3805.0,0.0075790439479759275
3804.0,0.007755855953228474
3803.0,0.00762324020119709
3802.0,0.007402303897961815
3801.0,0.007358130121602358
3800.0,0.007490664932224611
3799.0,0.007534852191956709
3798.0,0.0074464821678643656
3797.0,0.007313960837872058
3796.0,0.007313960837872058
3795.0,0.0074464821678643656
3794.0,0.0075790439479759275
3793.0,0.0075790439479759275
3792.0,0.007490664932224611
3791.0,0.007402303897961815
3790.0,0.007313960837872058
3789.0,0.007269796045857202
3788.0,0.007313960837872058
3787.0,0.007313960837872058
3786.0,0.007313960837872058
3785.0,0.007313960837872058
3784.0,0.007402303897961815
3783.0,0.007534852191956709
3782.0,0.00762324020119709
3781.0,0.007534852191956709
3780.0,0.007402303897961815
3779.0,0.007269796045857202
3778.0,0.007181479933320523
3777.0,0.007093181776687496
3776.0,0.00696076819309055
3775.0,0.006872514894289861
3774.0,0.007004901568658406
3773.0,0.007358130121602358
3772.0,0.007711646202907652
3771.0,0.007932739972333236
3770.0,0.008021209005416363
3769.0,0.008021209005416363
3768.0,0.008021209005416363
3767.0,0.007888512213050314
3766.0,0.007711646202907652
3765.0,0.00762324020119709
3764.0,0.007800070204414977
3763.0,0.008065450281052211
3762.0,0.008198201155356077
3761.0,0.008198201155356077
3760.0,0.008153946355103248
3759.0,0.008065450281052211
3758.0,0.007976972236149349
3757.0,0.007800070204414977
3756.0,0.007667440952535687
3755.0,0.0075790439479759275
3754.0,0.007402303897961815
3753.0,0.007225635744644521
3752.0,0.007225635744644521
3751.0,0.007490664932224611
3750.0,0.007755855953228474
3749.0,0.007844288957383316
3748.0,0.008109696063975047
3747.0,0.008463824699968647
3746.0,0.00850811108984062
3745.0,0.008153946355103248
3744.0,0.007888512213050314
3743.0,0.007800070204414977
3742.0,0.007844288957383316
3741.0,0.007800070204414977
3740.0,0.007800070204414977
3739.0,0.007932739972333236
3738.0,0.008198201155356077
3737.0,0.008375265465994541
3736.0,0.008596697419959609
3735.0,0.008773924307505121
3734.0,0.0087296108049002
3733.0,0.008463824699968647
3732.0,0.008153946355103248
3731.0,0.007932739972333236
3730.0,0.007932739972333236
3729.0,0.007976972236149349
3728.0,0.008021209005416363
3727.0,0.008065450281052211
3726.0,0.008242460465651913
3725.0,0.008375265465994541
3724.0,0.008419542825660153
3723.0,0.008286724286910463
3722.0,0.008153946355103248
3721.0,0.008065450281052211
3720.0,0.007976972236149349
3719.0,0.007932739972333236
3718.0,0.007888512213050314
3717.0,0.007888512213050314
3716.0,0.008065450281052211
3715.0,0.008198201155356077
3714.0,0.008242460465651913
3713.0,0.008109696063975047
3712.0,0.008153946355103248
3711.0,0.008419542825660153
3710.0,0.008596697419959609
3709.0,0.008552401996197112
3708.0,0.008286724286910463
3707.0,0.008065450281052211
3706.0,0.007976972236149349
3705.0,0.008021209005416363
3704.0,0.008065450281052211
3703.0,0.008109696063975047
3702.0,0.008065450281052211
3701.0,0.008021209005416363
3700.0,0.008021209005416363
3699.0,0.007976972236149349
3698.0,0.007932739972333236
3697.0,0.007844288957383316
3696.0,0.007844288957383316
3695.0,0.007932739972333236
3694.0,0.007976972236149349
3693.0,0.007976972236149349
3692.0,0.007976972236149349
3691.0,0.007932739972333236
3690.0,0.007888512213050314
3689.0,0.007800070204414977
3688.0,0.007711646202907652
3687.0,0.007755855953228474
3686.0,0.007844288957383316
3685.0,0.007888512213050314
3684.0,0.007844288957383316
3683.0,0.007711646202907652
3682.0,0.0075790439479759275
3681.0,0.007358130121602358
3680.0,0.007181479933320523
3679.0,0.007269796045857202
3678.0,0.0075790439479759275
3677.0,0.007888512213050314
3676.0,0.008330992620051436
3675.0,0.008685301823389224
3674.0,0.008818242332126802
3673.0,0.008818242332126802
3672.0,0.008640997362049818
3671.0,0.008286724286910463
3670.0,0.008198201155356077
3669.0,0.008286724286910463
3668.0,0.008375265465994541
3667.0,0.008286724286910463
3666.0,0.008153946355103248
3665.0,0.008021209005416363
3664.0,0.007888512213050314
3663.0,0.007755855953228474
3662.0,0.007667440952535687
3661.0,0.00762324020119709
3660.0,0.007667440952535687
3659.0,0.007755855953228474
3658.0,0.007755855953228474
3657.0,0.007755855953228474
3656.0,0.007800070204414977
3655.0,0.008021209005416363
3654.0,0.008375265465994541
3653.0,0.008685301823389224
3652.0,0.008773924307505121
3651.0,0.008818242332126802
3650.0,0.009128595198514056
3649.0,0.00939478857608056
3648.0,0.009306039320248427
3647.0,0.008995559669244813
3646.0,0.0087296108049002
3645.0,0.008640997362049818
3644.0,0.008552401996197112
3643.0,0.008419542825660153
3642.0,0.008242460465651913
3641.0,0.008153946355103248
3640.0,0.008109696063975047
3639.0,0.008109696063975047
3638.0,0.008242460465651913
3637.0,0.008375265465994541
3636.0,0.008463824699968647
3635.0,0.008463824699968647
3634.0,0.008463824699968647
3633.0,0.008596697419959609
3632.0,0.008862564879688284
3631.0,0.008906891951112605
3630.0,0.0087296108049002
3629.0,0.008685301823389224
3628.0,0.008862564879688284
3627.0,0.008995559669244813
3626.0,0.009039900317800775
3625.0,0.008951223547323472
3624.0,0.008906891951112605
3623.0,0.008906891951112605
3622.0,0.009039900317800775
3621.0,0.00908424549391551
3620.0,0.009172949432521227
3619.0,0.009261671492462709
3618.0,0.00939478857608056
3617.0,0.009483555971770974
3616.0,0.009527946474380489
3615.0,0.009439170005980158
3614.0,0.009306039320248427
3613.0,0.009261671492462709
3612.0,0.009261671492462709
3611.0,0.009306039320248427
3610.0,0.009261671492462709
3609.0,0.009261671492462709
3608.0,0.009306039320248427
3607.0,0.009306039320248427
3606.0,0.009217308196862062
3605.0,0.009172949432521227
3604.0,0.009172949432521227
3603.0,0.009261671492462709
3602.0,0.009350411681145587
3601.0,0.009350411681145587
3600.0,0.009261671492462709
3599.0,0.009172949432521227
3598.0,0.00908424549391551
3597.0,0.00908424549391551
3596.0,0.00908424549391551
3595.0,0.00908424549391551
3594.0,0.009039900317800775
3593.0,0.008995559669244813
3592.0,0.008906891951112605
3591.0,0.008906891951112605
3590.0,0.008862564879688284
3589.0,0.008906891951112605
3588.0,0.009128595198514056
3587.0,0.009527946474380489
3586.0,0.009794384815193347
3585.0,0.009794384815193347
3584.0,0.009572341514736404
3583.0,0.009306039320248427
3582.0,0.00908424549391551
3581.0,0.008951223547323472
3580.0,0.008951223547323472
3579.0,0.008995559669244813
3578.0,0.00908424549391551
3577.0,0.009172949432521227
3576.0,0.009217308196862062
3575.0,0.009217308196862062
3574.0,0.009172949432521227
3573.0,0.009172949432521227
3572.0,0.009261671492462709
3571.0,0.009350411681145587
3570.0,0.009439170005980158
3569.0,0.009350411681145587
3568.0,0.009306039320248427
3567.0,0.009350411681145587
3566.0,0.009527946474380489
3565.0,0.00974996707218323
3564.0,0.009838807101520963
3563.0,0.009883233932095559
3562.0,0.009838807101520963
3561.0,0.00974996707218323
3560.0,0.009616741093766423
3559.0,0.009527946474380489
3558.0,0.009483555971770974
3557.0,0.009439170005980158
3556.0,0.009483555971770974
3555.0,0.00966114521239847
3554.0,0.009838807101520963
3553.0,0.009927665307847056
3552.0,0.009927665307847056
3551.0,0.009794384815193347
3550.0,0.00966114521239847
3549.0,0.009616741093766423
3548.0,0.009616741093766423
3547.0,0.009705553871561357
3546.0,0.009794384815193347
3545.0,0.009972101229705377
3544.0,0.010060986715464404
3543.0,0.010105436281226954
3542.0,0.01001654169860089
3541.0,0.009794384815193347
3540.0,0.009527946474380489
3539.0,0.009306039320248427
3538.0,0.009306039320248427
3537.0,0.009483555971770974
3536.0,0.00974996707218323
3535.0,0.009927665307847056
3534.0,0.009972101229705377
3533.0,0.009927665307847056
3532.0,0.009838807101520963
3531.0,0.009883233932095559
3530.0,0.009972101229705377
3529.0,0.010149890396819572
3528.0,0.010327752376126709
3527.0,0.01046119667949763
3526.0,0.01046119667949763
3525.0,0.010416710688994968
3524.0,0.010283280051895272
3523.0,0.01023881228122181
3522.0,0.01023881228122181
3521.0,0.010283280051895272
3520.0,0.01023881228122181
3519.0,0.010105436281226954
3518.0,0.01001654169860089
3517.0,0.009972101229705377
3516.0,0.009972101229705377
3515.0,0.01001654169860089
3514.0,0.010105436281226954
3513.0,0.010194349063173958
3512.0,0.01023881228122181
3511.0,0.010283280051895272
3510.0,0.010283280051895272
3509.0,0.010194349063173958
3508.0,0.01001654169860089
3507.0,0.009927665307847056
3506.0,0.009927665307847056
3505.0,0.010060986715464404
3504.0,0.010194349063173958
3503.0,0.010283280051895272
3502.0,0.010327752376126709
3501.0,0.010283280051895272
3500.0,0.010283280051895272
3499.0,0.010327752376126709
3498.0,0.010327752376126709
3497.0,0.010327752376126709
3496.0,0.01037222925484893
3495.0,0.01037222925484893
3494.0,0.01037222925484893
3493.0,0.010327752376126709
3492.0,0.010194349063173958
3491.0,0.010105436281226954
3490.0,0.01001654169860089
3489.0,0.01001654169860089
3488.0,0.010060986715464404
3487.0,0.010149890396819572
3486.0,0.010283280051895272
3485.0,0.01037222925484893
3484.0,0.010416710688994968
3483.0,0.01037222925484893
3482.0,0.010283280051895272
3481.0,0.010194349063173958
3480.0,0.010194349063173958
3479.0,0.01023881228122181
3478.0,0.010327752376126709
3477.0,0.010416710688994968
3476.0,0.01046119667949763
3475.0,0.010505687227290839
3474.0,0.010505687227290839
3473.0,0.010505687227290839
3472.0,0.01046119667949763
3471.0,0.01037222925484893
3470.0,0.01023881228122181
3469.0,0.010194349063173958
3468.0,0.01023881228122181
3467.0,0.010327752376126709
3466.0,0.010416710688994968
3465.0,0.01046119667949763
3464.0,0.01046119667949763
3463.0,0.01037222925484893
3462.0,0.010327752376126709
3461.0,0.010283280051895272
3460.0,0.01023881228122181
3459.0,0.010283280051895272
3458.0,0.010327752376126709
3457.0,0.01046119667949763
3456.0,0.010594681998483901
3455.0,0.010683695010048622
3454.0,0.010728208358306901
3453.0,0.010683695010048622
3452.0,0.010639186223752484
3451.0,0.010594681998483901
3450.0,0.010550182333308289
3449.0,0.01046119667949763
3448.0,0.010505687227290839
3447.0,0.010594681998483901
3446.0,0.01077272626946324
3445.0,0.010906307389674463
3444.0,0.010950843561779777
3443.0,0.010906307389674463
3442.0,0.01086177578421088
3441.0,0.010906307389674463
3440.0,0.010906307389674463
3439.0,0.010906307389674463
3438.0,0.01086177578421088
3437.0,0.010817248744452446
3436.0,0.010817248744452446
3435.0,0.01086177578421088
3434.0,0.010906307389674463
3433.0,0.010906307389674463
3432.0,0.010906307389674463
3431.0,0.010950843561779777
3430.0,0.010995384301463185
3429.0,0.011039929609661936
3428.0,0.010950843561779777
3427.0,0.01086177578421088
3426.0,0.01077272626946324
3425.0,0.010683695010048622
3424.0,0.010683695010048622
3423.0,0.010683695010048622
3422.0,0.010728208358306901
3421.0,0.010728208358306901
3420.0,0.010728208358306901
3419.0,0.010683695010048622
3418.0,0.010683695010048622
3417.0,0.010817248744452446
3416.0,0.010950843561779777
3415.0,0.010995384301463185
3414.0,0.010950843561779777
3413.0,0.01086177578421088
3412.0,0.01086177578421088
3411.0,0.010906307389674463
3410.0,0.010950843561779777
3409.0,0.010950843561779777
3408.0,0.01086177578421088
3407.0,0.010817248744452446
3406.0,0.010817248744452446
3405.0,0.01086177578421088
3404.0,0.010906307389674463
3403.0,0.010906307389674463
3402.0,0.010906307389674463
3401.0,0.010906307389674463
3400.0,0.010950843561779777
3399.0,0.010995384301463185
3398.0,0.010995384301463185
3397.0,0.011039929609661936
3396.0,0.010995384301463185
3395.0,0.010995384301463185
3394.0,0.010995384301463185
3393.0,0.011084479487313281
3392.0,0.011129033935354915
3391.0,0.011129033935354915
3390.0,0.011084479487313281
3389.0,0.010995384301463185
3388.0,0.010906307389674463
3387.0,0.01077272626946324
3386.0,0.010728208358306901
3385.0,0.010728208358306901
3384.0,0.01077272626946324
3383.0,0.01086177578421088
3382.0,0.010906307389674463
3381.0,0.010950843561779777
3380.0,0.010906307389674463
3379.0,0.010906307389674463
3378.0,0.010906307389674463
3377.0,0.010950843561779777
3376.0,0.010995384301463185
3375.0,0.010995384301463185
3374.0,0.010995384301463185
3373.0,0.010906307389674463
3372.0,0.010817248744452446
3371.0,0.010728208358306901
3370.0,0.010683695010048622
3369.0,0.010683695010048622
3368.0,0.01077272626946324
3367.0,0.01086177578421088
3366.0,0.01086177578421088
3365.0,0.01086177578421088
3364.0,0.01086177578421088
3363.0,0.010995384301463185
3362.0,0.011129033935354915
3361.0,0.011218156546359825
3360.0,0.011262724711199823
3359.0,0.011218156546359825
3358.0,0.011218156546359825
3357.0,0.01117359295472431
3356.0,0.011084479487313281
3355.0,0.010995384301463185
3354.0,0.01086177578421088
3353.0,0.01077272626946324
3352.0,0.010817248744452446
3351.0,0.010906307389674463
3350.0,0.010995384301463185
3349.0,0.011039929609661936
3348.0,0.011039929609661936
3347.0,0.011129033935354915
3346.0,0.011218156546359825
3345.0,0.011351874764248926
3344.0,0.011396456654336085
3343.0,0.011396456654336085
3342.0,0.011351874764248926
3341.0,0.011262724711199823
3340.0,0.011218156546359825
3339.0,0.011218156546359825
3338.0,0.011129033935354915
3337.0,0.011084479487313281
3336.0,0.011084479487313281
3335.0,0.011129033935354915
3334.0,0.011218156546359825
3333.0,0.011307297450183107
3332.0,0.011351874764248926
3331.0,0.011262724711199823
3330.0,0.011084479487313281
3329.0,0.010950843561779777
3328.0,0.010817248744452446
3327.0,0.010817248744452446
3326.0,0.01086177578421088
3325.0,0.010995384301463185
3324.0,0.011129033935354915
3323.0,0.01117359295472431
3322.0,0.011129033935354915
3321.0,0.011039929609661936
3320.0,0.010906307389674463
3319.0,0.01086177578421088
3318.0,0.01086177578421088
3317.0,0.010950843561779777
3316.0,0.011129033935354915
3315.0,0.011218156546359825
3314.0,0.01117359295472431
3313.0,0.010995384301463185
3312.0,0.010817248744452446
3311.0,0.010728208358306901
3310.0,0.010728208358306901
3309.0,0.010728208358306901
3308.0,0.010728208358306901
3307.0,0.010817248744452446
3306.0,0.010995384301463185
3305.0,0.01117359295472431
3304.0,0.011307297450183107
3303.0,0.011262724711199823
3302.0,0.01117359295472431
3301.0,0.011084479487313281
3300.0,0.010995384301463185
3299.0,0.010995384301463185
3298.0,0.010995384301463185
3297.0,0.011039929609661936
3296.0,0.011039929609661936
3295.0,0.010950843561779777
3294.0,0.010817248744452446
3293.0,0.010683695010048622
3292.0,0.010639186223752484
3291.0,0.010683695010048622
3290.0,0.01077272626946324
3289.0,0.01086177578421088
3288.0,0.010995384301463185
3287.0,0.011084479487313281
3286.0,0.011129033935354915
3285.0,0.01117359295472431
3284.0,0.011262724711199823
3283.0,0.011307297450183107
3282.0,0.011307297450183107
3281.0,0.011218156546359825
3280.0,0.011129033935354915
3279.0,0.011084479487313281
3278.0,0.010995384301463185
3277.0,0.010950843561779777
3276.0,0.010950843561779777
3275.0,0.010995384301463185
3274.0,0.011039929609661936
3273.0,0.011039929609661936
3272.0,0.010995384301463185
3271.0,0.010950843561779777
3270.0,0.010995384301463185
3269.0,0.011039929609661936
3268.0,0.011039929609661936
3267.0,0.010995384301463185
3266.0,0.010950843561779777
3265.0,0.010950843561779777
3264.0,0.010950843561779777
3263.0,0.010950843561779777
3262.0,0.010950843561779777
3261.0,0.010950843561779777
3260.0,0.010950843561779777
3259.0,0.010906307389674463
3258.0,0.01086177578421088
3257.0,0.01086177578421088
3256.0,0.010906307389674463
3255.0,0.010950843561779777
3254.0,0.011039929609661936
3253.0,0.011039929609661936
3252.0,0.010995384301463185
3251.0,0.01086177578421088
3250.0,0.010817248744452446
3249.0,0.01086177578421088
3248.0,0.010950843561779777
3247.0,0.011039929609661936
3246.0,0.011039929609661936
3245.0,0.011039929609661936
3244.0,0.011039929609661936
3243.0,0.010995384301463185
3242.0,0.010950843561779777
3241.0,0.010906307389674463
3240.0,0.010906307389674463
3239.0,0.01086177578421088
3238.0,0.01077272626946324
3237.0,0.010683695010048622
3236.0,0.010683695010048622
3235.0,0.010817248744452446
3234.0,0.010950843561779777
3233.0,0.011039929609661936
3232.0,0.011084479487313281
3231.0,0.011039929609661936
3230.0,0.010950843561779777
3229.0,0.010817248744452446
3228.0,0.010639186223752484
3227.0,0.010550182333308289
3226.0,0.010550182333308289
3225.0,0.010639186223752484
3224.0,0.010683695010048622
3223.0,0.010683695010048622
3222.0,0.010683695010048622
3221.0,0.010728208358306901
3220.0,0.01086177578421088
3219.0,0.010950843561779777
3218.0,0.010995384301463185
3217.0,0.010950843561779777
3216.0,0.01086177578421088
3215.0,0.010817248744452446
3214.0,0.010817248744452446
3213.0,0.01086177578421088
3212.0,0.01086177578421088
3211.0,0.01086177578421088
3210.0,0.01077272626946324
3209.0,0.010728208358306901
3208.0,0.010728208358306901
3207.0,0.010728208358306901
3206.0,0.01077272626946324
3205.0,0.010817248744452446
3204.0,0.010817248744452446
3203.0,0.010728208358306901
3202.0,0.010683695010048622
3201.0,0.010683695010048622
3200.0,0.010683695010048622
3199.0,0.010683695010048622
3198.0,0.010639186223752484
3197.0,0.010550182333308289
3196.0,0.01046119667949763
3195.0,0.010416710688994968
3194.0,0.01046119667949763
3193.0,0.010594681998483901
3192.0,0.010728208358306901
3191.0,0.01086177578421088
3190.0,0.01086177578421088
3189.0,0.010817248744452446
3188.0,0.010683695010048622
3187.0,0.010550182333308289
3186.0,0.010416710688994968
3185.0,0.010416710688994968
3184.0,0.010505687227290839
3183.0,0.010594681998483901
3182.0,0.010594681998483901
3181.0,0.010505687227290839
3180.0,0.010416710688994968
3179.0,0.010416710688994968
3178.0,0.01046119667949763
3177.0,0.010594681998483901
3176.0,0.010639186223752484
3175.0,0.010594681998483901
3174.0,0.010550182333308289
3173.0,0.010505687227290839
3172.0,0.010505687227290839
3171.0,0.01046119667949763
3170.0,0.01037222925484893
3169.0,0.010327752376126709
3168.0,0.010327752376126709
3167.0,0.01037222925484893
3166.0,0.010416710688994968
3165.0,0.010416710688994968
3164.0,0.01037222925484893
3163.0,0.010327752376126709
3162.0,0.01023881228122181
3161.0,0.010194349063173958
3160.0,0.01023881228122181
3159.0,0.010283280051895272
3158.0,0.010327752376126709
3157.0,0.010327752376126709
3156.0,0.010283280051895272
3155.0,0.01023881228122181
3154.0,0.01023881228122181
3153.0,0.010283280051895272
3152.0,0.010416710688994968
3151.0,0.010594681998483901
3150.0,0.010683695010048622
3149.0,0.010683695010048622
3148.0,0.010550182333308289
3147.0,0.01046119667949763
3146.0,0.01037222925484893
3145.0,0.010327752376126709
3144.0,0.010327752376126709
3143.0,0.010283280051895272
3142.0,0.01023881228122181
3141.0,0.010194349063173958
3140.0,0.010105436281226954
3139.0,0.01001654169860089
3138.0,0.009972101229705377
3137.0,0.009972101229705377
3136.0,0.009972101229705377
3135.0,0.009927665307847056
3134.0,0.009838807101520963
3133.0,0.009794384815193347
3132.0,0.009794384815193347
3131.0,0.009794384815193347
3130.0,0.009794384815193347
3129.0,0.009838807101520963
3128.0,0.009838807101520963
3127.0,0.009838807101520963
3126.0,0.009838807101520963
3125.0,0.009794384815193347
3124.0,0.009705553871561357
3123.0,0.00966114521239847
3122.0,0.009616741093766423
3121.0,0.009616741093766423
3120.0,0.009616741093766423
3119.0,0.009616741093766423
3118.0,0.009616741093766423
3117.0,0.009705553871561357
3116.0,0.009838807101520963
3115.0,0.009927665307847056
3114.0,0.009972101229705377
3113.0,0.009972101229705377
3112.0,0.009927665307847056
3111.0,0.009883233932095559
3110.0,0.009927665307847056
3109.0,0.01001654169860089
3108.0,0.010149890396819572
3107.0,0.010283280051895272
3106.0,0.01037222925484893
3105.0,0.01046119667949763
3104.0,0.01046119667949763
3103.0,0.01046119667949763
3102.0,0.01046119667949763
3101.0,0.010505687227290839
3100.0,0.01046119667949763
3099.0,0.010327752376126709
3098.0,0.010149890396819572
3097.0,0.01001654169860089
3096.0,0.01001654169860089
3095.0,0.010060986715464404
3094.0,0.010194349063173958
3093.0,0.010283280051895272
3092.0,0.010327752376126709
3091.0,0.01037222925484893
3090.0,0.010416710688994968
3089.0,0.010594681998483901
3088.0,0.01086177578421088
3087.0,0.011262724711199823
3086.0,0.011797899741219142
3085.0,0.012333735073725371
3084.0,0.012825498912458322
3083.0,0.013093968619278806
3082.0,0.013138729709955221
3081.0,0.013004460275618523
3080.0,0.012825498912458322
3079.0,0.01260190086298274
3078.0,0.012378417874516323
3077.0,0.012110390002254778
3076.0,0.011887159731648111
3075.0,0.011708658092512314
3074.0,0.011574829993696856
3073.0,0.011530229790124524
3072.0,0.011574829993696856
3071.0,0.011664044143949504
3070.0,0.011842527443247208
3069.0,0.012021084124518078
3068.0,0.012199714248127602
3067.0,0.012467797270160563
3066.0,0.012780770091995297
3065.0,0.01322826573375524
3064.0,0.01372104409400876
3063.0,0.014214382227394795
3062.0,0.014663358264387139
3061.0,0.015022873584506602
3060.0,0.015292705517326866
3059.0,0.01538268676325183
3058.0,0.015337693809893471
3057.0,0.015157768594724175
3056.0,0.014888020460646079
3055.0,0.014573525916998342
3054.0,0.014259258949925524
3053.0,0.013900374944870508
3052.0,0.013541787262693505
3051.0,0.01322826573375524
3050.0,0.012959713020733288
3049.0,0.012736045877764557
3048.0,0.012557195064198723
3047.0,0.012378417874516323
3046.0,0.012244383261476699
3045.0,0.012110390002254778
3044.0,0.012021084124518078
3043.0,0.0119764380713403
3042.0,0.011887159731648111
3041.0,0.011842527443247208
3040.0,0.011887159731648111
3039.0,0.012021084124518078
3038.0,0.01215504982870197
3037.0,0.012378417874516323
3036.0,0.012691326268817527
3035.0,0.013093968619278806
3034.0,0.013676222949234651
3033.0,0.0144837121472845
3032.0,0.015427684378367834
3031.0,0.016554142658660398
3030.0,0.017728766960431575
3029.0,0.018906576854070378
3028.0,0.01995115493504329
3027.0,0.020861530453190058
3026.0,0.0214542995372613
3025.0,0.021773818325474092
3024.0,0.021773818325474092
3023.0,0.02140867317992523
3022.0,0.020724852408976924
3021.0,0.019814763052665052
3020.0,0.018906576854070378
3019.0,0.018045555530026514
3018.0,0.017231422748988034
3017.0,0.016509028184833463
3016.0,0.015832872853011715
3015.0,0.015157768594724175
3014.0,0.014573525916998342
3013.0,0.014079779876432497
3012.0,0.01372104409400876
3011.0,0.013452186585275916
3010.0,0.01322826573375524
3009.0,0.013004460275618523
3008.0,0.012780770091995297
3007.0,0.01260190086298274
3006.0,0.012467797270160563
3005.0,0.012467797270160563
3004.0,0.012512493866907004
3003.0,0.01260190086298274
3002.0,0.012736045877764557
3001.0,0.012825498912458322
3000.0,0.012870232340102872
2999.0,0.012780770091995297
2998.0,0.012512493866907004
2997.0,0.012244383261476699
2996.0,0.011887159731648111
2995.0,0.011574829993696856
2994.0,0.011262724711199823
2993.0,0.010995384301463185
2992.0,0.01077272626946324
2991.0,0.010550182333308289
2990.0,0.01037222925484893
2989.0,0.010283280051895272
2988.0,0.01023881228122181
2987.0,0.01023881228122181
2986.0,0.01023881228122181
2985.0,0.010194349063173958
2984.0,0.010060986715464404
2983.0,0.009927665307847056
2982.0,0.009794384815193347
2981.0,0.009705553871561357
2980.0,0.009705553871561357
2979.0,0.009705553871561357
2978.0,0.009616741093766423
2977.0,0.009527946474380489
2976.0,0.009483555971770974
2975.0,0.009439170005980158
2974.0,0.00939478857608056
2973.0,0.00939478857608056
2972.0,0.009483555971770974
2971.0,0.009616741093766423
2970.0,0.00974996707218323
2969.0,0.009794384815193347
2968.0,0.00974996707218323
2967.0,0.009794384815193347
2966.0,0.009838807101520963
2965.0,0.009972101229705377
2964.0,0.010105436281226954
2963.0,0.010149890396819572
2962.0,0.010194349063173958
2961.0,0.010194349063173958
2960.0,0.010194349063173958
2959.0,0.010283280051895272
2958.0,0.010416710688994968
2957.0,0.010639186223752484
2956.0,0.01086177578421088
2955.0,0.011039929609661936
2954.0,0.01117359295472431
2953.0,0.011262724711199823
2952.0,0.011307297450183107
2951.0,0.011351874764248926
2950.0,0.011441043121384498
2949.0,0.011619434777991433
2948.0,0.011931796607364653
2947.0,0.012244383261476699
2946.0,0.012557195064198723
2945.0,0.012825498912458322
2944.0,0.013049212141483357
2943.0,0.013362604389846044
2942.0,0.01372104409400876
2941.0,0.014214382227394795
2940.0,0.014708281407112
2939.0,0.015247721884586563
2938.0,0.015832872853011715
2937.0,0.01646391839700767
2936.0,0.017095882207371904
2935.0,0.017728766960431575
2934.0,0.01840788278591865
2933.0,0.0192242260373785
2932.0,0.02004210665933459
2931.0,0.020907099361673565
2930.0,0.021773818325474092
2929.0,0.02255077261765881
2928.0,0.023283295636617574
2927.0,0.023971159908874107
2926.0,0.024568191490736968
2925.0,0.025074013910237447
2924.0,0.02544225514642018
2923.0,0.025718641122169483
2922.0,0.025995203102585407
2921.0,0.02617967564731627
2920.0,0.026318081496016443
2919.0,0.02636422658259252
2918.0,0.026318081496016443
2917.0,0.02617967564731627
2916.0,0.025995203102585407
2915.0,0.025718641122169483
2914.0,0.02544225514642018
2913.0,0.02512002699306959
2912.0,0.02484402159331056
2911.0,0.02461415101053266
2910.0,0.024338466818941473
2909.0,0.024017056287453542
2908.0,0.023695883447997224
2907.0,0.023374947949272418
2906.0,0.023100049017062307
2905.0,0.02277955336461468
2904.0,0.022367834754000393
2903.0,0.021910826943857264
2902.0,0.0214542995372613
2901.0,0.021135015652343103
2900.0,0.020861530453190058
2899.0,0.02058821736556471
2898.0,0.02036058777709271
2897.0,0.02013307743509718
2896.0,0.019860222254245663
2895.0,0.01958753839310856
2894.0,0.019315025636685412
2893.0,0.019133445417920836
2892.0,0.01899731005860028
2891.0,0.018861217359339655
2890.0,0.018679826740892747
2889.0,0.01845319495476394
2888.0,0.018181392829336396
2887.0,0.01800028587012159
2886.0,0.017864505196230507
2885.0,0.017728766960431575
2884.0,0.017638298366853045
2883.0,0.017502630802287644
2882.0,0.017412209298337533
2881.0,0.017321806616515723
2880.0,0.01727661233145472
2879.0,0.017141057687924732
2878.0,0.017005545341335804
2877.0,0.016870075265299933
2876.0,0.01677978535189717
2875.0,0.016689514205884493
2874.0,0.016599261819461697
2873.0,0.016554142658660398
2872.0,0.016509028184833463
2871.0,0.016373712875465518
2870.0,0.016238439713835096
2869.0,0.016193358021584725
2868.0,0.016193358021584725
2867.0,0.016238439713835096
2866.0,0.016373712875465518
2865.0,0.016509028184833463
2864.0,0.016689514205884493
2863.0,0.01677978535189717
2862.0,0.016915227262211507
2861.0,0.017095882207371904
2860.0,0.017321806616515723
2859.0,0.017638298366853045
2858.0,0.018045555530026514
2857.0,0.01845319495476394
2856.0,0.018951941086827073
2855.0,0.019360432556262852
2854.0,0.019769308608968306
2853.0,0.020087589665283012
2852.0,0.02036058777709271
2851.0,0.02058821736556471
2850.0,0.020724852408976924
2849.0,0.02081596632558158
2848.0,0.02081596632558158
2847.0,0.020724852408976924
2846.0,0.020633757603838898
2845.0,0.02045162529590483
2844.0,0.020178569969774962
2843.0,0.01990568621470623
2842.0,0.019632973815224997
2841.0,0.019360432556262852
2840.0,0.019042683770379876
2839.0,0.018634490921455527
2838.0,0.018226681372252695
2837.0,0.017774008325325275
2836.0,0.017367005605150476
2835.0,0.017005545341335804
2834.0,0.016734647433454652
2833.0,0.016554142658660398
2832.0,0.016418813294209356
2831.0,0.01632861713980338
2830.0,0.016238439713835096
2829.0,0.016103208673694303
2828.0,0.01596801972881945
2827.0,0.015832872853011715
2826.0,0.015742798294583915
2825.0,0.015697768020096703
2824.0,0.015652742414136167
2823.0,0.015607721475734415
2822.0,0.015517693597737248
2821.0,0.015337693809893471
2820.0,0.015202742910707112
2819.0,0.015112798935672522
2818.0,0.015157768594724175
2817.0,0.015202742910707112
2816.0,0.015202742910707112
2815.0,0.015112798935672522
2814.0,0.014977917890464765
2813.0,0.014843078722943437
2812.0,0.014798141635428141
2811.0,0.014798141635428141
2810.0,0.014888020460646079
2809.0,0.014932966849499074
2808.0,0.014932966849499074
2807.0,0.014888020460646079
2806.0,0.014798141635428141
2805.0,0.014708281407112
2804.0,0.014663358264387139
2803.0,0.014618439768003144
2802.0,0.014573525916998342
2801.0,0.014618439768003144
2800.0,0.014663358264387139
2799.0,0.014708281407112
2798.0,0.014708281407112
2797.0,0.014663358264387139
2796.0,0.014573525916998342
2795.0,0.01452861671041239
2794.0,0.01452861671041239
2793.0,0.014573525916998342
2792.0,0.014573525916998342
2791.0,0.014573525916998342
2790.0,0.01452861671041239
2789.0,0.01452861671041239
2788.0,0.0144837121472845
2787.0,0.0144837121472845
2786.0,0.01452861671041239
2785.0,0.01452861671041239
2784.0,0.0144837121472845
2783.0,0.014438812226654996
2782.0,0.014393916947563534
2781.0,0.014393916947563534
2780.0,0.014393916947563534
2779.0,0.014438812226654996
2778.0,0.0144837121472845
2777.0,0.01452861671041239
2776.0,0.0144837121472845
2775.0,0.014438812226654996
2774.0,0.014393916947563534
2773.0,0.014349026309051105
2772.0,0.014304140310157809
2771.0,0.014259258949925524
2770.0,0.014214382227394795
2769.0,0.014124642691606404
2768.0,0.014079779876432497
2767.0,0.014079779876432497
2766.0,0.014079779876432497
2765.0,0.014169510141607944
2764.0,0.014214382227394795
2763.0,0.014259258949925524
2762.0,0.014259258949925524
2761.0,0.014214382227394795
2760.0,0.014169510141607944
2759.0,0.014079779876432497
2758.0,0.013990068146738865
2757.0,0.013945219230304673
2756.0,0.013900374944870508
2755.0,0.01385553528947936
2754.0,0.01381070026317599
2753.0,0.01381070026317599
2752.0,0.01385553528947936
2751.0,0.013900374944870508
2750.0,0.013945219230304673
2749.0,0.013945219230304673
2748.0,0.013900374944870508
2747.0,0.013900374944870508
2746.0,0.01385553528947936
2745.0,0.01385553528947936
2744.0,0.013900374944870508
2743.0,0.013945219230304673
2742.0,0.013990068146738865
2741.0,0.01403492169512921
2740.0,0.013990068146738865
2739.0,0.013945219230304673
2738.0,0.013900374944870508
2737.0,0.013900374944870508
2736.0,0.013900374944870508
2735.0,0.013900374944870508
2734.0,0.013900374944870508
2733.0,0.013945219230304673
2732.0,0.013945219230304673
2731.0,0.013990068146738865
2730.0,0.013990068146738865
2729.0,0.013990068146738865
2728.0,0.013990068146738865
2727.0,0.013990068146738865
2726.0,0.01403492169512921
2725.0,0.01403492169512921
2724.0,0.013990068146738865
2723.0,0.013900374944870508
2722.0,0.01381070026317599
2721.0,0.01381070026317599
2720.0,0.013900374944870508
2719.0,0.013990068146738865
2718.0,0.013990068146738865
2717.0,0.013945219230304673
2716.0,0.01381070026317599
2715.0,0.01372104409400876
2714.0,0.013676222949234651
2713.0,0.01372104409400876
2712.0,0.013765869865004277
2711.0,0.01381070026317599
2710.0,0.01381070026317599
2709.0,0.01381070026317599
2708.0,0.01381070026317599
2707.0,0.01385553528947936
2706.0,0.013945219230304673
2705.0,0.013990068146738865
2704.0,0.014079779876432497
2703.0,0.014079779876432497
2702.0,0.01403492169512921
2701.0,0.013945219230304673
2700.0,0.01385553528947936
2699.0,0.01381070026317599
2698.0,0.013765869865004277
2697.0,0.013765869865004277
2696.0,0.01385553528947936
2695.0,0.013900374944870508
2694.0,0.013990068146738865
2693.0,0.013990068146738865
2692.0,0.013990068146738865
2691.0,0.013990068146738865
2690.0,0.013990068146738865
2689.0,0.013990068146738865
2688.0,0.013990068146738865
2687.0,0.013945219230304673
2686.0,0.013945219230304673
2685.0,0.013945219230304673
2684.0,0.013990068146738865
2683.0,0.01403492169512921
2682.0,0.01403492169512921
2681.0,0.01403492169512921
2680.0,0.01403492169512921
2679.0,0.013990068146738865
2678.0,0.013945219230304673
2677.0,0.01381070026317599
2676.0,0.013765869865004277
2675.0,0.01372104409400876
2674.0,0.01381070026317599
2673.0,0.013945219230304673
2672.0,0.014124642691606404
2671.0,0.014214382227394795
2670.0,0.014259258949925524
2669.0,0.014169510141607944
2668.0,0.014079779876432497
2667.0,0.013990068146738865
2666.0,0.013900374944870508
2665.0,0.013900374944870508
2664.0,0.013945219230304673
2663.0,0.01403492169512921
2662.0,0.014169510141607944
2661.0,0.014259258949925524
2660.0,0.014259258949925524
2659.0,0.014169510141607944
2658.0,0.014079779876432497
2657.0,0.013945219230304673
2656.0,0.013900374944870508
2655.0,0.013900374944870508
2654.0,0.013900374944870508
2653.0,0.01385553528947936
2652.0,0.013765869865004277
2651.0,0.01372104409400876
2650.0,0.01372104409400876
2649.0,0.01385553528947936
2648.0,0.014079779876432497
2647.0,0.014214382227394795
2646.0,0.014259258949925524
2645.0,0.014169510141607944
2644.0,0.014079779876432497
2643.0,0.013990068146738865
2642.0,0.013945219230304673
2641.0,0.013945219230304673
2640.0,0.013945219230304673
2639.0,0.013900374944870508
2638.0,0.01385553528947936
2637.0,0.01385553528947936
2636.0,0.013900374944870508
2635.0,0.013945219230304673
2634.0,0.013990068146738865
2633.0,0.01403492169512921
2632.0,0.01403492169512921
2631.0,0.014079779876432497
2630.0,0.014079779876432497
2629.0,0.013990068146738865
2628.0,0.01385553528947936
2627.0,0.01372104409400876
2626.0,0.013631406429727155
2625.0,0.013586594534531482
2624.0,0.013631406429727155
2623.0,0.013765869865004277
2622.0,0.013900374944870508
2621.0,0.013990068146738865
2620.0,0.013990068146738865
2619.0,0.013945219230304673
2618.0,0.01385553528947936
2617.0,0.01381070026317599
2616.0,0.01381070026317599
2615.0,0.01381070026317599
2614.0,0.013900374944870508
2613.0,0.013990068146738865
2612.0,0.013990068146738865
2611.0,0.013945219230304673
2610.0,0.01381070026317599
2609.0,0.013676222949234651
2608.0,0.013631406429727155
2607.0,0.013631406429727155
2606.0,0.01372104409400876
2605.0,0.01385553528947936
2604.0,0.013990068146738865
2603.0,0.014169510141607944
2602.0,0.014214382227394795
2601.0,0.014214382227394795
2600.0,0.014124642691606404
2599.0,0.01403492169512921
2598.0,0.013945219230304673
2597.0,0.013945219230304673
2596.0,0.013990068146738865
2595.0,0.013990068146738865
2594.0,0.013990068146738865
2593.0,0.013945219230304673
2592.0,0.01385553528947936
2591.0,0.01381070026317599
2590.0,0.01381070026317599
2589.0,0.01385553528947936
2588.0,0.013900374944870508
2587.0,0.013990068146738865
2586.0,0.014079779876432497
2585.0,0.014124642691606404
2584.0,0.014169510141607944
2583.0,0.014169510141607944
2582.0,0.014079779876432497
2581.0,0.013990068146738865
2580.0,0.013900374944870508
2579.0,0.01381070026317599
2578.0,0.01381070026317599
2577.0,0.01381070026317599
2576.0,0.013900374944870508
2575.0,0.013945219230304673
2574.0,0.013990068146738865
2573.0,0.013990068146738865
2572.0,0.013900374944870508
2571.0,0.01381070026317599
2570.0,0.013676222949234651
2569.0,0.013586594534531482
2568.0,0.013586594534531482
2567.0,0.013631406429727155
2566.0,0.013765869865004277
2565.0,0.01385553528947936
2564.0,0.013900374944870508
2563.0,0.01385553528947936
2562.0,0.01385553528947936
2561.0,0.01385553528947936
2560.0,0.013900374944870508
2559.0,0.013900374944870508
2558.0,0.01385553528947936
2557.0,0.013765869865004277
2556.0,0.013676222949234651
2555.0,0.013631406429727155
2554.0,0.013586594534531482
2553.0,0.013541787262693505
2552.0,0.013586594534531482
2551.0,0.013631406429727155
2550.0,0.013676222949234651
2549.0,0.013765869865004277
2548.0,0.01385553528947936
2547.0,0.013945219230304673
2546.0,0.014079779876432497
2545.0,0.014214382227394795
2544.0,0.014259258949925524
2543.0,0.014214382227394795
2542.0,0.014079779876432497
2541.0,0.013945219230304673
2540.0,0.013945219230304673
2539.0,0.01403492169512921
2538.0,0.014079779876432497
2537.0,0.014124642691606404
2536.0,0.01403492169512921
2535.0,0.013900374944870508
2534.0,0.013765869865004277
2533.0,0.013676222949234651
2532.0,0.01372104409400876
2531.0,0.013765869865004277
2530.0,0.013765869865004277
2529.0,0.01381070026317599
2528.0,0.01385553528947936
2527.0,0.013945219230304673
2526.0,0.013990068146738865
2525.0,0.013990068146738865
2524.0,0.013990068146738865
2523.0,0.013900374944870508
2522.0,0.01385553528947936
2521.0,0.013765869865004277
2520.0,0.013765869865004277
2519.0,0.013765869865004277
2518.0,0.01381070026317599
2517.0,0.01385553528947936
2516.0,0.01385553528947936
2515.0,0.01385553528947936
2514.0,0.013900374944870508
2513.0,0.013945219230304673
2512.0,0.013990068146738865
2511.0,0.013990068146738865
2510.0,0.013990068146738865
2509.0,0.01403492169512921
2508.0,0.01403492169512921
2507.0,0.01403492169512921
2506.0,0.01403492169512921
2505.0,0.01403492169512921
2504.0,0.01403492169512921
2503.0,0.013945219230304673
2502.0,0.01385553528947936
2501.0,0.013765869865004277
2500.0,0.013765869865004277
2499.0,0.01381070026317599
2498.0,0.01385553528947936
2497.0,0.01381070026317599
2496.0,0.013765869865004277
2495.0,0.01372104409400876
2494.0,0.01372104409400876
2493.0,0.01381070026317599
2492.0,0.013945219230304673
2491.0,0.014079779876432497
2490.0,0.014169510141607944
2489.0,0.014124642691606404
2488.0,0.014079779876432497
2487.0,0.013990068146738865
2486.0,0.013900374944870508
2485.0,0.013900374944870508
2484.0,0.013900374944870508
2483.0,0.013900374944870508
2482.0,0.01385553528947936
2481.0,0.01372104409400876
2480.0,0.013676222949234651
2479.0,0.01372104409400876
2478.0,0.013900374944870508
2477.0,0.013990068146738865
2476.0,0.01403492169512921
2475.0,0.013990068146738865
2474.0,0.013945219230304673
2473.0,0.013945219230304673
2472.0,0.013945219230304673
2471.0,0.013990068146738865
2470.0,0.01403492169512921
2469.0,0.014079779876432497
2468.0,0.014124642691606404
2467.0,0.014079779876432497
2466.0,0.01403492169512921
2465.0,0.013900374944870508
2464.0,0.01381070026317599
2463.0,0.01372104409400876
2462.0,0.01372104409400876
2461.0,0.01381070026317599
2460.0,0.013945219230304673
2459.0,0.014079779876432497
2458.0,0.014124642691606404
2457.0,0.014124642691606404
2456.0,0.014079779876432497
2455.0,0.014079779876432497
2454.0,0.014124642691606404
2453.0,0.014169510141607944
2452.0,0.014169510141607944
2451.0,0.014124642691606404
2450.0,0.014079779876432497
2449.0,0.01403492169512921
2448.0,0.01403492169512921
2447.0,0.013990068146738865
2446.0,0.013990068146738865
2445.0,0.013945219230304673
2444.0,0.01385553528947936
2443.0,0.013765869865004277
2442.0,0.013676222949234651
2441.0,0.01372104409400876
2440.0,0.01381070026317599
2439.0,0.013990068146738865
2438.0,0.014124642691606404
2437.0,0.014214382227394795
2436.0,0.014169510141607944
2435.0,0.014079779876432497
2434.0,0.01403492169512921
2433.0,0.01403492169512921
2432.0,0.01403492169512921
2431.0,0.014079779876432497
2430.0,0.014124642691606404
2429.0,0.014124642691606404
2428.0,0.01403492169512921
2427.0,0.013990068146738865
2426.0,0.013990068146738865
2425.0,0.013990068146738865
2424.0,0.013945219230304673
2423.0,0.01385553528947936
2422.0,0.01385553528947936
2421.0,0.01385553528947936
2420.0,0.013900374944870508
2419.0,0.013945219230304673
2418.0,0.013990068146738865
2417.0,0.014079779876432497
2416.0,0.014169510141607944
2415.0,0.014169510141607944
2414.0,0.014079779876432497
2413.0,0.013990068146738865
2412.0,0.013945219230304673
2411.0,0.013990068146738865
2410.0,0.01403492169512921
2409.0,0.014079779876432497
2408.0,0.01403492169512921
2407.0,0.01403492169512921
2406.0,0.014079779876432497
2405.0,0.014124642691606404
2404.0,0.014169510141607944
2403.0,0.014124642691606404
2402.0,0.014079779876432497
2401.0,0.01403492169512921
2400.0,0.013990068146738865
2399.0,0.013945219230304673
2398.0,0.013900374944870508
2397.0,0.01385553528947936
2396.0,0.01385553528947936
2395.0,0.013900374944870508
2394.0,0.013945219230304673
2393.0,0.013945219230304673
2392.0,0.013945219230304673
2391.0,0.013900374944870508
2390.0,0.01385553528947936
2389.0,0.01385553528947936
2388.0,0.013765869865004277
2387.0,0.013631406429727155
2386.0,0.013496984613259544
2385.0,0.013362604389846044
2384.0,0.013273040668781544
2383.0,0.01322826573375524
2382.0,0.013317820220494436
2381.0,0.013541787262693505
2380.0,0.013900374944870508
2379.0,0.014124642691606404
2378.0,0.014214382227394795
2377.0,0.014169510141607944
2376.0,0.014124642691606404
2375.0,0.014124642691606404
2374.0,0.014124642691606404
2373.0,0.014124642691606404
2372.0,0.013990068146738865
2371.0,0.01381070026317599
2370.0,0.013765869865004277
2369.0,0.01403492169512921
2368.0,0.01452861671041239
2367.0,0.014798141635428141
2366.0,0.014798141635428141
2365.0,0.014573525916998342
2364.0,0.013990068146738865
2363.0,0.012780770091995297
2362.0,0.011307297450183107
2361.0,0.010683695010048622
2360.0,0.011351874764248926
2359.0,0.012736045877764557
2358.0,0.014214382227394795
2357.0,0.015337693809893471
2356.0,0.016058141016111804
2355.0,0.016193358021584725
2354.0,0.016058141016111804
2353.0,0.01596801972881945
2352.0,0.01578783323856614
2351.0,0.015247721884586563
2350.0,0.014663358264387139
2349.0,0.014349026309051105
2348.0,0.0144837121472845
2347.0,0.014618439768003144
2346.0,0.014618439768003144
2345.0,0.0144837121472845
2344.0,0.014573525916998342
2343.0,0.014932966849499074
2342.0,0.015337693809893471
2341.0,0.015562705203923999
2340.0,0.015427684378367834
2339.0,0.015157768594724175
2338.0,0.014932966849499074
2337.0,0.014843078722943437
2336.0,0.014977917890464765
2335.0,0.015247721884586563
2334.0,0.015562705203923999
2333.0,0.015742798294583915
2332.0,0.015562705203923999
2331.0,0.015022873584506602
2330.0,0.0144837121472845
2329.0,0.014304140310157809
2328.0,0.014438812226654996
2327.0,0.014573525916998342
2326.0,0.01452861671041239
2325.0,0.014304140310157809
2324.0,0.014124642691606404
2323.0,0.014259258949925524
2322.0,0.0144837121472845
2321.0,0.014573525916998342
2320.0,0.0144837121472845
2319.0,0.014259258949925524
2318.0,0.014079779876432497
2317.0,0.014079779876432497
2316.0,0.014169510141607944
2315.0,0.014393916947563534
2314.0,0.014618439768003144
2313.0,0.014708281407112
2312.0,0.014708281407112
2311.0,0.014618439768003144
2310.0,0.01452861671041239
2309.0,0.0144837121472845
2308.0,0.0144837121472845
2307.0,0.014573525916998342
2306.0,0.014573525916998342
2305.0,0.01452861671041239
2304.0,0.014393916947563534
2303.0,0.014214382227394795
2302.0,0.014079779876432497
2301.0,0.013990068146738865
2300.0,0.013945219230304673
2299.0,0.013945219230304673
2298.0,0.013945219230304673
2297.0,0.013945219230304673
2296.0,0.013900374944870508
2295.0,0.013900374944870508
2294.0,0.013945219230304673
2293.0,0.01403492169512921
2292.0,0.014079779876432497
2291.0,0.014169510141607944
2290.0,0.014214382227394795
2289.0,0.014349026309051105
2288.0,0.014393916947563534
2287.0,0.014438812226654996
2286.0,0.014393916947563534
2285.0,0.014349026309051105
2284.0,0.014304140310157809
2283.0,0.014259258949925524
2282.0,0.014214382227394795
2281.0,0.014214382227394795
2280.0,0.014169510141607944
2279.0,0.014169510141607944
2278.0,0.014124642691606404
2277.0,0.014169510141607944
2276.0,0.014259258949925524
2275.0,0.014304140310157809
2274.0,0.014393916947563534
2273.0,0.014393916947563534
2272.0,0.014393916947563534
2271.0,0.014349026309051105
2270.0,0.014214382227394795
2269.0,0.014169510141607944
2268.0,0.014169510141607944
2267.0,0.014214382227394795
2266.0,0.014349026309051105
2265.0,0.014438812226654996
2264.0,0.014438812226654996
2263.0,0.014393916947563534
2262.0,0.014438812226654996
2261.0,0.01452861671041239
2260.0,0.014573525916998342
2259.0,0.014573525916998342
2258.0,0.01452861671041239
2257.0,0.014393916947563534
2256.0,0.014349026309051105
2255.0,0.014304140310157809
2254.0,0.014349026309051105
2253.0,0.014438812226654996
2252.0,0.0144837121472845
2251.0,0.0144837121472845
2250.0,0.014438812226654996
2249.0,0.014393916947563534
2248.0,0.014349026309051105
2247.0,0.014349026309051105
2246.0,0.014349026309051105
2245.0,0.014438812226654996
2244.0,0.014573525916998342
2243.0,0.014663358264387139
2242.0,0.014708281407112
2241.0,0.014753209197138295
2240.0,0.014708281407112
2239.0,0.014663358264387139
2238.0,0.014618439768003144
2237.0,0.014618439768003144
2236.0,0.014663358264387139
2235.0,0.014708281407112
2234.0,0.014753209197138295
2233.0,0.014708281407112
2232.0,0.014573525916998342
2231.0,0.0144837121472845
2230.0,0.014393916947563534
2229.0,0.014393916947563534
2228.0,0.014438812226654996
2227.0,0.0144837121472845
2226.0,0.014438812226654996
2225.0,0.014393916947563534
2224.0,0.014349026309051105
2223.0,0.014304140310157809
2222.0,0.014349026309051105
2221.0,0.014393916947563534
2220.0,0.014393916947563534
2219.0,0.014438812226654996
2218.0,0.0144837121472845
2217.0,0.0144837121472845
2216.0,0.01452861671041239
2215.0,0.01452861671041239
2214.0,0.0144837121472845
2213.0,0.0144837121472845
2212.0,0.014438812226654996
2211.0,0.014438812226654996
2210.0,0.014438812226654996
2209.0,0.014393916947563534
2208.0,0.014438812226654996
2207.0,0.014438812226654996
2206.0,0.014438812226654996
2205.0,0.0144837121472845
2204.0,0.0144837121472845
2203.0,0.01452861671041239
2202.0,0.01452861671041239
2201.0,0.0144837121472845
2200.0,0.014438812226654996
2199.0,0.014438812226654996
2198.0,0.014438812226654996
2197.0,0.0144837121472845
2196.0,0.014438812226654996
2195.0,0.014393916947563534
2194.0,0.014349026309051105
2193.0,0.014349026309051105
2192.0,0.014393916947563534
2191.0,0.0144837121472845
2190.0,0.014573525916998342
2189.0,0.014573525916998342
2188.0,0.014573525916998342
2187.0,0.014663358264387139
2186.0,0.014753209197138295
2185.0,0.014843078722943437
2184.0,0.014798141635428141
2183.0,0.014663358264387139
2182.0,0.01452861671041239
2181.0,0.014438812226654996
2180.0,0.014438812226654996
2179.0,0.0144837121472845
2178.0,0.014573525916998342
2177.0,0.014618439768003144
2176.0,0.014663358264387139
2175.0,0.014663358264387139
2174.0,0.014753209197138295
2173.0,0.014798141635428141
2172.0,0.014798141635428141
2171.0,0.014708281407112
2170.0,0.014573525916998342
2169.0,0.0144837121472845
2168.0,0.014438812226654996
2167.0,0.014438812226654996
2166.0,0.01452861671041239
2165.0,0.014618439768003144
2164.0,0.014708281407112
2163.0,0.014708281407112
2162.0,0.014663358264387139
2161.0,0.014618439768003144
2160.0,0.014573525916998342
2159.0,0.014618439768003144
2158.0,0.014663358264387139
2157.0,0.014708281407112
2156.0,0.014753209197138295
2155.0,0.014798141635428141
2154.0,0.014798141635428141
2153.0,0.014753209197138295
2152.0,0.014708281407112
2151.0,0.014618439768003144
2150.0,0.014573525916998342
2149.0,0.014573525916998342
2148.0,0.014573525916998342
2147.0,0.014573525916998342
2146.0,0.014573525916998342
2145.0,0.014573525916998342
2144.0,0.014573525916998342
2143.0,0.01452861671041239
2142.0,0.01452861671041239
2141.0,0.0144837121472845
2140.0,0.0144837121472845
2139.0,0.01452861671041239
2138.0,0.014573525916998342
2137.0,0.014618439768003144
2136.0,0.014663358264387139
2135.0,0.014663358264387139
2134.0,0.014618439768003144
2133.0,0.014573525916998342
2132.0,0.01452861671041239
2131.0,0.0144837121472845
2130.0,0.014393916947563534
2129.0,0.014349026309051105
2128.0,0.014304140310157809
2127.0,0.014259258949925524
2126.0,0.014349026309051105
2125.0,0.0144837121472845
2124.0,0.014618439768003144
2123.0,0.014753209197138295
2122.0,0.014798141635428141
2121.0,0.014753209197138295
2120.0,0.014753209197138295
2119.0,0.014753209197138295
2118.0,0.014753209197138295
2117.0,0.014753209197138295
2116.0,0.014663358264387139
2115.0,0.014573525916998342
2114.0,0.0144837121472845
2113.0,0.014438812226654996
2112.0,0.014438812226654996
2111.0,0.0144837121472845
2110.0,0.014573525916998342
2109.0,0.014708281407112
2108.0,0.014798141635428141
2107.0,0.014888020460646079
2106.0,0.014888020460646079
2105.0,0.014798141635428141
2104.0,0.014708281407112
2103.0,0.014618439768003144
2102.0,0.014573525916998342
2101.0,0.014618439768003144
2100.0,0.014663358264387139
2099.0,0.014663358264387139
2098.0,0.014618439768003144
2097.0,0.014573525916998342
2096.0,0.014573525916998342
2095.0,0.014618439768003144
2094.0,0.014663358264387139
2093.0,0.014708281407112
2092.0,0.014753209197138295
2091.0,0.014843078722943437
2090.0,0.014843078722943437
2089.0,0.014843078722943437
2088.0,0.014798141635428141
2087.0,0.014708281407112
2086.0,0.014708281407112
2085.0,0.014753209197138295
2084.0,0.014798141635428141
2083.0,0.014798141635428141
2082.0,0.014753209197138295
2081.0,0.014663358264387139
2080.0,0.014573525916998342
2079.0,0.01452861671041239
2078.0,0.01452861671041239
2077.0,0.0144837121472845
2076.0,0.0144837121472845
2075.0,0.0144837121472845
2074.0,0.0144837121472845
2073.0,0.01452861671041239
2072.0,0.014573525916998342
2071.0,0.014618439768003144
2070.0,0.014663358264387139
2069.0,0.014708281407112
2068.0,0.014663358264387139
2067.0,0.014618439768003144
2066.0,0.01452861671041239
2065.0,0.01452861671041239
2064.0,0.014573525916998342
2063.0,0.014573525916998342
2062.0,0.014573525916998342
2061.0,0.014618439768003144
2060.0,0.014663358264387139
2059.0,0.014753209197138295
2058.0,0.014798141635428141
2057.0,0.014798141635428141
2056.0,0.014798141635428141
2055.0,0.014753209197138295
2054.0,0.014753209197138295
2053.0,0.014753209197138295
2052.0,0.014753209197138295
2051.0,0.014663358264387139
2050.0,0.014573525916998342
2049.0,0.014438812226654996
2048.0,0.014438812226654996
2047.0,0.0144837121472845
2046.0,0.014618439768003144
2045.0,0.014708281407112
2044.0,0.014663358264387139
2043.0,0.014618439768003144
2042.0,0.01452861671041239
2041.0,0.01452861671041239
2040.0,0.014573525916998342
2039.0,0.014618439768003144
2038.0,0.014618439768003144
2037.0,0.014618439768003144
2036.0,0.014618439768003144
2035.0,0.014618439768003144
2034.0,0.014663358264387139
2033.0,0.014708281407112
2032.0,0.014708281407112
2031.0,0.014708281407112
2030.0,0.014753209197138295
2029.0,0.014843078722943437
2028.0,0.014888020460646079
2027.0,0.014888020460646079
2026.0,0.014843078722943437
2025.0,0.014753209197138295
2024.0,0.014708281407112
2023.0,0.014663358264387139
2022.0,0.014663358264387139
2021.0,0.014753209197138295
2020.0,0.014798141635428141
2019.0,0.014888020460646079
2018.0,0.014932966849499074
2017.0,0.014888020460646079
2016.0,0.014843078722943437
2015.0,0.014753209197138295
2014.0,0.014663358264387139
2013.0,0.014618439768003144
2012.0,0.014573525916998342
2011.0,0.014573525916998342
2010.0,0.014618439768003144
2009.0,0.014663358264387139
2008.0,0.014708281407112
2007.0,0.014708281407112
2006.0,0.014753209197138295
2005.0,0.014753209197138295
2004.0,0.014798141635428141
2003.0,0.014753209197138295
2002.0,0.014753209197138295
2001.0,0.014708281407112
2000.0,0.014618439768003144
1999.0,0.01452861671041239
1998.0,0.0144837121472845
1997.0,0.014438812226654996
1996.0,0.0144837121472845
1995.0,0.01452861671041239
1994.0,0.014618439768003144
1993.0,0.014663358264387139
1992.0,0.014708281407112
1991.0,0.014708281407112
1990.0,0.014753209197138295
1989.0,0.014798141635428141
1988.0,0.014843078722943437
1987.0,0.014798141635428141
1986.0,0.014753209197138295
1985.0,0.014708281407112
1984.0,0.014708281407112
1983.0,0.014708281407112
1982.0,0.014708281407112
1981.0,0.014663358264387139
1980.0,0.014573525916998342
1979.0,0.01452861671041239
1978.0,0.01452861671041239
1977.0,0.01452861671041239
1976.0,0.01452861671041239
1975.0,0.014573525916998342
1974.0,0.014573525916998342
1973.0,0.014618439768003144
1972.0,0.014663358264387139
1971.0,0.014798141635428141
1970.0,0.014932966849499074
1969.0,0.015067833932588037
1968.0,0.015157768594724175
1967.0,0.015247721884586563
1966.0,0.015337693809893471
1965.0,0.01538268676325183
1964.0,0.01538268676325183
1963.0,0.01538268676325183
1962.0,0.01538268676325183
1961.0,0.015427684378367834
1960.0,0.015517693597737248
1959.0,0.015652742414136167
1958.0,0.01578783323856614
1957.0,0.015922966097169144
1956.0,0.01596801972881945
1955.0,0.01596801972881945
1954.0,0.015922966097169144
1953.0,0.015877917138889863
1952.0,0.01596801972881945
1951.0,0.016058141016111804
1950.0,0.016193358021584725
1949.0,0.016373712875465518
1948.0,0.016509028184833463
1947.0,0.016644385668211692
1946.0,0.016734647433454652
1945.0,0.016734647433454652
1944.0,0.01677978535189717
1943.0,0.016870075265299933
1942.0,0.016960383953898095
1941.0,0.017005545341335804
1940.0,0.016915227262211507
1939.0,0.016824927962187042
1938.0,0.016734647433454652
1937.0,0.016644385668211692
1936.0,0.016599261819461697
1935.0,0.016509028184833463
1934.0,0.016418813294209356
1933.0,0.01632861713980338
1932.0,0.016193358021584725
1931.0,0.016103208673694303
1930.0,0.016058141016111804
1929.0,0.016013078034810446
1928.0,0.015922966097169144
1927.0,0.01578783323856614
1926.0,0.015652742414136167
1925.0,0.015562705203923999
1924.0,0.015517693597737248
1923.0,0.01547268665620738
1922.0,0.015427684378367834
1921.0,0.015427684378367834
1920.0,0.01538268676325183
1919.0,0.015292705517326866
1918.0,0.015247721884586563
1917.0,0.015157768594724175
1916.0,0.015112798935672522
1915.0,0.015112798935672522
1914.0,0.015067833932588037
1913.0,0.015067833932588037
1912.0,0.015067833932588037
1911.0,0.015067833932588037
1910.0,0.015112798935672522
1909.0,0.015202742910707112
1908.0,0.015247721884586563
1907.0,0.015202742910707112
1906.0,0.015112798935672522
1905.0,0.015067833932588037
1904.0,0.015022873584506602
1903.0,0.014977917890464765
1902.0,0.014977917890464765
1901.0,0.014977917890464765
1900.0,0.014932966849499074
1899.0,0.014843078722943437
1898.0,0.014843078722943437
1897.0,0.014977917890464765
1896.0,0.015112798935672522
1895.0,0.015247721884586563
1894.0,0.015337693809893471
1893.0,0.015337693809893471
1892.0,0.015292705517326866
1891.0,0.015292705517326866
1890.0,0.015427684378367834
1889.0,0.015652742414136167
1888.0,0.01578783323856614
1887.0,0.015877917138889863
1886.0,0.015877917138889863
1885.0,0.015922966097169144
1884.0,0.01596801972881945
1883.0,0.016013078034810446
1882.0,0.016013078034810446
1881.0,0.016013078034810446
1880.0,0.016103208673694303
1879.0,0.016238439713835096
1878.0,0.01632861713980338
1877.0,0.016418813294209356
1876.0,0.016418813294209356
1875.0,0.016418813294209356
1874.0,0.01632861713980338
1873.0,0.01632861713980338
1872.0,0.01632861713980338
1871.0,0.016418813294209356
1870.0,0.016509028184833463
1869.0,0.016689514205884493
1868.0,0.016870075265299933
1867.0,0.017005545341335804
1866.0,0.017005545341335804
1865.0,0.016915227262211507
1864.0,0.01677978535189717
1863.0,0.016644385668211692
1862.0,0.016554142658660398
1861.0,0.01646391839700767
1860.0,0.016373712875465518
1859.0,0.01628352608625061
1858.0,0.016193358021584725
1857.0,0.016103208673694303
1856.0,0.016013078034810446
1855.0,0.015877917138889863
1854.0,0.015742798294583915
1853.0,0.015652742414136167
1852.0,0.015607721475734415
1851.0,0.015562705203923999
1850.0,0.015517693597737248
1849.0,0.01547268665620738
1848.0,0.01538268676325183
1847.0,0.015337693809893471
1846.0,0.015247721884586563
1845.0,0.015157768594724175
1844.0,0.015112798935672522
1843.0,0.015067833932588037
1842.0,0.015022873584506602
1841.0,0.015067833932588037
1840.0,0.015067833932588037
1839.0,0.015022873584506602
1838.0,0.014977917890464765
1837.0,0.014932966849499074
1836.0,0.014888020460646079
1835.0,0.014843078722943437
1834.0,0.014843078722943437
1833.0,0.014843078722943437
1832.0,0.014888020460646079
1831.0,0.014932966849499074
1830.0,0.015022873584506602
1829.0,0.015157768594724175
1828.0,0.015247721884586563
1827.0,0.015292705517326866
1826.0,0.015292705517326866
1825.0,0.015337693809893471
1824.0,0.01538268676325183
1823.0,0.015427684378367834
1822.0,0.015427684378367834
1821.0,0.01538268676325183
1820.0,0.01538268676325183
1819.0,0.01538268676325183
1818.0,0.01547268665620738
1817.0,0.015562705203923999
1816.0,0.015697768020096703
1815.0,0.01578783323856614
1814.0,0.015877917138889863
1813.0,0.01596801972881945
1812.0,0.016058141016111804
1811.0,0.016103208673694303
1810.0,0.016103208673694303
1809.0,0.016148281008528276
1808.0,0.016193358021584725
1807.0,0.01628352608625061
1806.0,0.016418813294209356
1805.0,0.016554142658660398
1804.0,0.016644385668211692
1803.0,0.016644385668211692
1802.0,0.016644385668211692
1801.0,0.016734647433454652
1800.0,0.01677978535189717
1799.0,0.016734647433454652
1798.0,0.016689514205884493
1797.0,0.016644385668211692
1796.0,0.016599261819461697
1795.0,0.016509028184833463
1794.0,0.01628352608625061
1793.0,0.016058141016111804
1792.0,0.015922966097169144
1791.0,0.015877917138889863
1790.0,0.015832872853011715
1789.0,0.01578783323856614
1788.0,0.015742798294583915
1787.0,0.015697768020096703
1786.0,0.015652742414136167
1785.0,0.015607721475734415
1784.0,0.015607721475734415
1783.0,0.015562705203923999
1782.0,0.015562705203923999
1781.0,0.015562705203923999
1780.0,0.015607721475734415
1779.0,0.015607721475734415
1778.0,0.015517693597737248
1777.0,0.015427684378367834
1776.0,0.01538268676325183
1775.0,0.01538268676325183
1774.0,0.015337693809893471
1773.0,0.015202742910707112
1772.0,0.015157768594724175
1771.0,0.015157768594724175
1770.0,0.015112798935672522
1769.0,0.015067833932588037
1768.0,0.015067833932588037
1767.0,0.015112798935672522
1766.0,0.015202742910707112
1765.0,0.015247721884586563
1764.0,0.015247721884586563
1763.0,0.015247721884586563
1762.0,0.015247721884586563
1761.0,0.015292705517326866
1760.0,0.01538268676325183
1759.0,0.01547268665620738
1758.0,0.015607721475734415
1757.0,0.015652742414136167
1756.0,0.015697768020096703
1755.0,0.015652742414136167
1754.0,0.015652742414136167
1753.0,0.015697768020096703
1752.0,0.01578783323856614
1751.0,0.016058141016111804
1750.0,0.01628352608625061
1749.0,0.016509028184833463
1748.0,0.016599261819461697
1747.0,0.016689514205884493
1746.0,0.016734647433454652
1745.0,0.016824927962187042
1744.0,0.016870075265299933
1743.0,0.016870075265299933
1742.0,0.016734647433454652
1741.0,0.016644385668211692
1740.0,0.016554142658660398
1739.0,0.016509028184833463
1738.0,0.01646391839700767
1737.0,0.016418813294209356
1736.0,0.01632861713980338
1735.0,0.016058141016111804
1734.0,0.015922966097169144
1733.0,0.015922966097169144
1732.0,0.01596801972881945
1731.0,0.016103208673694303
1730.0,0.016193358021584725
1729.0,0.016193358021584725
1728.0,0.016103208673694303
1727.0,0.016013078034810446
1726.0,0.015922966097169144
1725.0,0.015877917138889863
1724.0,0.015832872853011715
1723.0,0.015742798294583915
1722.0,0.015697768020096703
1721.0,0.015697768020096703
1720.0,0.015697768020096703
1719.0,0.015562705203923999
1718.0,0.015337693809893471
1717.0,0.015247721884586563
1716.0,0.015202742910707112
1715.0,0.015247721884586563
1714.0,0.015337693809893471
1713.0,0.015427684378367834
1712.0,0.015427684378367834
1711.0,0.015427684378367834
1710.0,0.01538268676325183
1709.0,0.01538268676325183
1708.0,0.015337693809893471
1707.0,0.015292705517326866
1706.0,0.015202742910707112
1705.0,0.015202742910707112
1704.0,0.015247721884586563
1703.0,0.015292705517326866
1702.0,0.015247721884586563
1701.0,0.015112798935672522
1700.0,0.015067833932588037
1699.0,0.015112798935672522
1698.0,0.015292705517326866
1697.0,0.015562705203923999
1696.0,0.015697768020096703
1695.0,0.015607721475734415
1694.0,0.015427684378367834
1693.0,0.015337693809893471
1692.0,0.015292705517326866
1691.0,0.015292705517326866
1690.0,0.01538268676325183
1689.0,0.015562705203923999
1688.0,0.015742798294583915
1687.0,0.015877917138889863
1686.0,0.015922966097169144
1685.0,0.015922966097169144
1684.0,0.016148281008528276
1683.0,0.01628352608625061
1682.0,0.01632861713980338
1681.0,0.016373712875465518
1680.0,0.016373712875465518
1679.0,0.01628352608625061
1678.0,0.016103208673694303
1677.0,0.01596801972881945
1676.0,0.015877917138889863
1675.0,0.016013078034810446
1674.0,0.016103208673694303
1673.0,0.016238439713835096
1672.0,0.01632861713980338
1671.0,0.01646391839700767
1670.0,0.016689514205884493
1669.0,0.016870075265299933
1668.0,0.016870075265299933
1667.0,0.016870075265299933
1666.0,0.016824927962187042
1665.0,0.016824927962187042
1664.0,0.016824927962187042
1663.0,0.01677978535189717
1662.0,0.016689514205884493
1661.0,0.016509028184833463
1660.0,0.016418813294209356
1659.0,0.01632861713980338
1658.0,0.01628352608625061
1657.0,0.016193358021584725
1656.0,0.016193358021584725
1655.0,0.016238439713835096
1654.0,0.016103208673694303
1653.0,0.016193358021584725
1652.0,0.016103208673694303
1651.0,0.015877917138889863
1650.0,0.015832872853011715
1649.0,0.015832872853011715
1648.0,0.015697768020096703
1647.0,0.015652742414136167
1646.0,0.015742798294583915
1645.0,0.015742798294583915
1644.0,0.015652742414136167
1643.0,0.015607721475734415
1642.0,0.015517693597737248
1641.0,0.015427684378367834
1640.0,0.015337693809893471
1639.0,0.015337693809893471
1638.0,0.015337693809893471
1637.0,0.015337693809893471
1636.0,0.01538268676325183
1635.0,0.01547268665620738
1634.0,0.015427684378367834
1633.0,0.01538268676325183
1632.0,0.015337693809893471
1631.0,0.015247721884586563
1630.0,0.015202742910707112
1629.0,0.015157768594724175
1628.0,0.015157768594724175
1627.0,0.015202742910707112
1626.0,0.015247721884586563
1625.0,0.015247721884586563
1624.0,0.015202742910707112
1623.0,0.015157768594724175
1622.0,0.015022873584506602
1621.0,0.014843078722943437
1620.0,0.014753209197138295
1619.0,0.014708281407112
1618.0,0.014708281407112
1617.0,0.014708281407112
1616.0,0.014663358264387139
1615.0,0.014708281407112
1614.0,0.014798141635428141
1613.0,0.014932966849499074
1612.0,0.015067833932588037
1611.0,0.015292705517326866
1610.0,0.015652742414136167
1609.0,0.016373712875465518
1608.0,0.017502630802287644
1607.0,0.019042683770379876
1606.0,0.020907099361673565
1605.0,0.02300845469384938
1604.0,0.025304128090317013
1603.0,0.027565723042634938
1602.0,0.029374223311705583
1601.0,0.03030458888152676
1600.0,0.030211462585061133
1599.0,0.029374223311705583
1598.0,0.028028723600243666
1597.0,0.026456531467510258
1596.0,0.024936003904763915
1595.0,0.02365002099672653
1594.0,0.02259651912656535
1593.0,0.021773818325474092
1592.0,0.021089422824428272
1591.0,0.020542681902151694
1590.0,0.02004210665933459
1589.0,0.019723858922159776
1588.0,0.01958753839310856
1587.0,0.019769308608968306
1586.0,0.02022406727031445
1585.0,0.02081596632558158
1584.0,0.021363051615525652
1583.0,0.021636852916117055
1582.0,0.0214542995372613
1581.0,0.020907099361673565
1580.0,0.02022406727031445
1579.0,0.019632973815224997
1578.0,0.0190880622231564
1577.0,0.018543833477873584
1576.0,0.018045555530026514
1575.0,0.01768353030793479
1574.0,0.017367005605150476
1573.0,0.017095882207371904
1572.0,0.016915227262211507
1571.0,0.016689514205884493
1570.0,0.016509028184833463
1569.0,0.016418813294209356
1568.0,0.016373712875465518
1567.0,0.01628352608625061
1566.0,0.016193358021584725
1565.0,0.016013078034810446
1564.0,0.015832872853011715
1563.0,0.015697768020096703
1562.0,0.015697768020096703
1561.0,0.015652742414136167
1560.0,0.015652742414136167
1559.0,0.016058141016111804
1558.0,0.016193358021584725
1557.0,0.015832872853011715
1556.0,0.015697768020096703
1555.0,0.015652742414136167
1554.0,0.015607721475734415
1553.0,0.015517693597737248
1552.0,0.015517693597737248
1551.0,0.015607721475734415
1550.0,0.015697768020096703
1549.0,0.015742798294583915
1548.0,0.015742798294583915
1547.0,0.015697768020096703
1546.0,0.015652742414136167
1545.0,0.015697768020096703
1544.0,0.015877917138889863
1543.0,0.016058141016111804
1542.0,0.016013078034810446
1541.0,0.015922966097169144
1540.0,0.016058141016111804
1539.0,0.016103208673694303
1538.0,0.015922966097169144
1537.0,0.01578783323856614
1536.0,0.01578783323856614
1535.0,0.015697768020096703
1534.0,0.01547268665620738
1533.0,0.015202742910707112
1532.0,0.014932966849499074
1531.0,0.014708281407112
1530.0,0.01452861671041239
1529.0,0.014438812226654996
1528.0,0.014393916947563534
1527.0,0.014349026309051105
1526.0,0.014214382227394795
1525.0,0.014079779876432497
1524.0,0.01403492169512921
1523.0,0.01403492169512921
1522.0,0.013990068146738865
1521.0,0.01385553528947936
1520.0,0.013676222949234651
1519.0,0.013541787262693505
1518.0,0.013496984613259544
1517.0,0.013452186585275916
1516.0,0.013362604389846044
1515.0,0.01322826573375524
1514.0,0.013049212141483357
1513.0,0.012914970375878188
1512.0,0.012870232340102872
1511.0,0.012780770091995297
1510.0,0.012691326268817527
1509.0,0.012467797270160563
1508.0,0.012199714248127602
1507.0,0.012110390002254778
1506.0,0.012065734767841452
1505.0,0.011887159731648111
1504.0,0.011931796607364653
1503.0,0.012065734767841452
1502.0,0.012333735073725371
1501.0,0.012825498912458322
1500.0,0.013765869865004277
1499.0,0.015697768020096703
1498.0,0.01954210772389997
1497.0,0.026456531467510258
1496.0,0.03550466044490741
1495.0,0.04383156952463674
1494.0,0.04987865248862655
1493.0,0.05340037498486727
1492.0,0.05403929642243144
1491.0,0.05129369109514803
1490.0,0.04575749056067524
1489.0,0.03995754427315856
1488.0,0.03545753392086315
1487.0,0.032124554451966825
1486.0,0.02960662792039992
1485.0,0.027612000892527133
1484.0,0.025902996205869
1483.0,0.02438440203310499
1482.0,0.02300845469384938
1481.0,0.021819483062586187
1480.0,0.020861530453190058
1479.0,0.020087589665283012
1478.0,0.01940584422377989
1477.0,0.018906576854070378
1476.0,0.01845319495476394
1475.0,0.01800028587012159
1474.0,0.017638298366853045
1473.0,0.017547848615010242
1472.0,0.017547848615010242
1471.0,0.017412209298337533
1470.0,0.017141057687924732
1469.0,0.016960383953898095
1468.0,0.016824927962187042
1467.0,0.016644385668211692
1466.0,0.016509028184833463
1465.0,0.016509028184833463
1464.0,0.016599261819461697
1463.0,0.016509028184833463
1462.0,0.01632861713980338
1461.0,0.01628352608625061
1460.0,0.016509028184833463
1459.0,0.017457417697056554
1458.0,0.020861530453190058
1457.0,0.028214062120885508
1456.0,0.036542739883292485
1455.0,0.04325545471730896
1454.0,0.048905443158337114
1453.0,0.0534986094304124
1452.0,0.05606053552778367
1451.0,0.05606053552778367
1450.0,0.054186873412661596
1449.0,0.0515870342213991
1448.0,0.04900266601119507
1447.0,0.04677202844014605
1446.0,0.04488976902944808
1445.0,0.04315950984076644
1444.0,0.04138834223512067
1443.0,0.039719535563357944
1442.0,0.03810452633214956
1441.0,0.03668448861388862
1440.0,0.035363296211498474
1439.0,0.03399914237121604
1438.0,0.032686081712916426
1437.0,0.03133029827960798
1436.0,0.03002526987828502
1435.0,0.028863370523193765
1434.0,0.027843464140506313
1433.0,0.026872146400301444
1432.0,0.025949097207122573
1431.0,0.025074013910237447
1430.0,0.024430342106337877
1429.0,0.023879381700184332
1428.0,0.023283295636617574
1427.0,0.02277955336461468
1426.0,0.022367834754000393
1425.0,0.021956506090037076
1424.0,0.021636852916117055
1423.0,0.021363051615525652
1422.0,0.021043834782408455
1421.0,0.02067930261797568
1420.0,0.02036058777709271
1419.0,0.02026956933771462
1418.0,0.02026956933771462
1417.0,0.02013307743509718
1416.0,0.01995115493504329
1415.0,0.019678413991243593
1414.0,0.019360432556262852
1413.0,0.019042683770379876
1412.0,0.018815862601645694
1411.0,0.018725167293411005
1410.0,0.018679826740892747
1409.0,0.01858915983411169
1408.0,0.01840788278591865
1407.0,0.018271974638383703
1406.0,0.018136109008649592
1405.0,0.01809082990920774
1404.0,0.018045555530026514
1403.0,0.017909760704207134
1402.0,0.017774008325325275
1401.0,0.01768353030793479
1400.0,0.017638298366853045
1399.0,0.01768353030793479
1398.0,0.017638298366853045
1397.0,0.017547848615010242
1396.0,0.017457417697056554
1395.0,0.017502630802287644
1394.0,0.017638298366853045
1393.0,0.017864505196230507
1392.0,0.01809082990920774
1391.0,0.018362575344230914
1390.0,0.018679826740892747
1389.0,0.018951941086827073
1388.0,0.019315025636685412
1387.0,0.019678413991243593
1386.0,0.02004210665933459
1385.0,0.020315076172974234
1384.0,0.02058821736556471
1383.0,0.020861530453190058
1382.0,0.0211806132671577
1381.0,0.021545566634771474
1380.0,0.021910826943857264
1379.0,0.022322112326006227
1378.0,0.022642270454698687
1377.0,0.02291687968414724
1376.0,0.02314585342378117
1375.0,0.023466619608062178
1374.0,0.023833499868024743
1373.0,0.024017056287453542
1372.0,0.024017056287453542
1371.0,0.023971159908874107
1370.0,0.023925268380126097
1369.0,0.023971159908874107
1368.0,0.023971159908874107
1367.0,0.023925268380126097
1366.0,0.023833499868024743
1365.0,0.023741750742954926
1364.0,0.023741750742954926
1363.0,0.023741750742954926
1362.0,0.023695883447997224
1361.0,0.02351246269481
1360.0,0.023329119375188556
1359.0,0.02314585342378117
1358.0,0.023054249440757957
1357.0,0.02296266477531872
1356.0,0.022871099419317753
1355.0,0.022733787572707387
1354.0,0.022642270454698687
1353.0,0.02259651912656535
1352.0,0.02259651912656535
1351.0,0.02259651912656535
1350.0,0.02255077261765881
1349.0,0.02255077261765881
1348.0,0.022505030926963654
1347.0,0.022413561996148967
1346.0,0.022367834754000393
1345.0,0.022230681908425698
1344.0,0.02200219004126036
1343.0,0.021773818325474092
1342.0,0.021545566634771474
1341.0,0.02140867317992523
1340.0,0.02140867317992523
1339.0,0.02140867317992523
1338.0,0.021363051615525652
1337.0,0.021363051615525652
1336.0,0.021363051615525652
1335.0,0.02140867317992523
1334.0,0.02159120737696063
1333.0,0.021819483062586187
1332.0,0.022093572362881675
1331.0,0.022322112326006227
1330.0,0.02245929405346514
1329.0,0.02255077261765881
1328.0,0.02259651912656535
1327.0,0.02259651912656535
1326.0,0.022642270454698687
1325.0,0.02259651912656535
1324.0,0.022505030926963654
1323.0,0.022367834754000393
1322.0,0.022230681908425698
1321.0,0.022139270735302752
1320.0,0.0221849739168134
1319.0,0.02227639471115217
1318.0,0.022367834754000393
1317.0,0.02245929405346514
1316.0,0.022505030926963654
1315.0,0.02255077261765881
1314.0,0.02259651912656535
1313.0,0.022688026603074007
1312.0,0.022733787572707387
1311.0,0.022733787572707387
1310.0,0.022733787572707387
1309.0,0.022688026603074007
1308.0,0.02259651912656535
1307.0,0.02255077261765881
1306.0,0.02245929405346514
1305.0,0.022322112326006227
1304.0,0.022139270735302752
1303.0,0.021956506090037076
1302.0,0.021773818325474092
1301.0,0.02159120737696063
1300.0,0.02140867317992523
1299.0,0.021271822861508305
1298.0,0.0211806132671577
1297.0,0.021089422824428272
1296.0,0.0209982515252789
1295.0,0.020952673052035298
1294.0,0.020952673052035298
1293.0,0.020952673052035298
1292.0,0.020952673052035298
1291.0,0.020952673052035298
1290.0,0.020907099361673565
1289.0,0.020861530453190058
1288.0,0.02081596632558158
1287.0,0.020770406977844713
1286.0,0.02067930261797568
1285.0,0.02058821736556471
1284.0,0.020542681902151694
1283.0,0.02045162529590483
1282.0,0.02036058777709271
1281.0,0.02026956933771462
1280.0,0.020178569969774962
1279.0,0.02013307743509718
1278.0,0.02004210665933459
1277.0,0.01995115493504329
1276.0,0.019860222254245663
1275.0,0.019769308608968306
1274.0,0.019678413991243593
1273.0,0.019632973815224997
1272.0,0.01954210772389997
1271.0,0.01940584422377989
1270.0,0.019269623464054586
1269.0,0.019178833355664393
1268.0,0.019133445417920836
1267.0,0.0190880622231564
1266.0,0.0190880622231564
1265.0,0.019042683770379876
1264.0,0.018951941086827073
1263.0,0.018861217359339655
1262.0,0.018770512579999288
1261.0,0.018679826740892747
1260.0,0.018634490921455527
1259.0,0.01858915983411169
1258.0,0.018543833477873584
1257.0,0.01845319495476394
1256.0,0.01840788278591865
1255.0,0.018362575344230914
1254.0,0.01831727262871463
1253.0,0.01831727262871463
1252.0,0.018271974638383703
1251.0,0.018271974638383703
1250.0,0.018271974638383703
1249.0,0.01831727262871463
1248.0,0.01840788278591865
1247.0,0.01845319495476394
1246.0,0.018498511851753108
1245.0,0.018498511851753108
1244.0,0.01845319495476394
1243.0,0.01845319495476394
1242.0,0.01840788278591865
1241.0,0.018362575344230914
1240.0,0.01831727262871463
1239.0,0.018226681372252695
1238.0,0.018136109008649592
1237.0,0.018136109008649592
1236.0,0.01809082990920774
1235.0,0.01809082990920774
1234.0,0.01800028587012159
1233.0,0.017864505196230507
1232.0,0.01768353030793479
1231.0,0.017547848615010242
1230.0,0.017457417697056554
1229.0,0.017457417697056554
1228.0,0.017547848615010242
1227.0,0.017638298366853045
1226.0,0.017774008325325275
1225.0,0.017864505196230507
1224.0,0.017864505196230507
1223.0,0.017864505196230507
1222.0,0.017774008325325275
1221.0,0.01768353030793479
1220.0,0.017638298366853045
1219.0,0.017638298366853045
1218.0,0.01768353030793479
1217.0,0.017728766960431575
1216.0,0.017774008325325275
1215.0,0.017774008325325275
1214.0,0.017728766960431575
1213.0,0.017728766960431575
1212.0,0.017774008325325275
1211.0,0.01781925440359733
1210.0,0.017909760704207134
1209.0,0.017955020928509757
1208.0,0.01800028587012159
1207.0,0.01809082990920774
1206.0,0.018226681372252695
1205.0,0.018362575344230914
1204.0,0.018543833477873584
1203.0,0.018725167293411005
1202.0,0.01899731005860028
1201.0,0.019269623464054586
1200.0,0.01949668180660491
1199.0,0.019678413991243593
1198.0,0.019814763052665052
1197.0,0.019860222254245663
1196.0,0.01990568621470623
1195.0,0.01995115493504329
1194.0,0.02004210665933459
1193.0,0.02013307743509718
1192.0,0.020178569969774962
1191.0,0.020178569969774962
1190.0,0.02013307743509718
1189.0,0.020178569969774962
1188.0,0.020315076172974234
1187.0,0.02058821736556471
1186.0,0.0209982515252789
1185.0,0.021499930688540836
1184.0,0.022093572362881675
1183.0,0.022733787572707387
1182.0,0.023283295636617574
1181.0,0.02355831062115543
1180.0,0.023466619608062178
1179.0,0.02300845469384938
1178.0,0.022322112326006227
1177.0,0.02159120737696063
1176.0,0.0209982515252789
1175.0,0.02058821736556471
1174.0,0.02036058777709271
1173.0,0.02022406727031445
1172.0,0.020087589665283012
1171.0,0.01990568621470623
1170.0,0.019723858922159776
1169.0,0.019632973815224997
1168.0,0.019678413991243593
1167.0,0.019769308608968306
1166.0,0.019860222254245663
1165.0,0.01990568621470623
1164.0,0.01995115493504329
1163.0,0.019996628416253603
1162.0,0.02013307743509718
1161.0,0.02036058777709271
1160.0,0.020724852408976924
1159.0,0.021271822861508305
1158.0,0.021956506090037076
1157.0,0.022688026603074007
1156.0,0.023466619608062178
1155.0,0.02406295751688936
1154.0,0.024338466818941473
1153.0,0.024200690320592466
1152.0,0.023741750742954926
1151.0,0.023054249440757957
1150.0,0.02227639471115217
1149.0,0.02159120737696063
1148.0,0.021043834782408455
1147.0,0.02058821736556471
1146.0,0.02022406727031445
1145.0,0.019814763052665052
1144.0,0.01954210772389997
1143.0,0.019315025636685412
1142.0,0.019178833355664393
1141.0,0.018951941086827073
1140.0,0.018679826740892747
1139.0,0.01845319495476394
1138.0,0.018271974638383703
1137.0,0.018181392829336396
1136.0,0.018045555530026514
1135.0,0.017955020928509757
1134.0,0.017864505196230507
1133.0,0.01781925440359733
1132.0,0.01781925440359733
1131.0,0.017774008325325275
1130.0,0.017774008325325275
1129.0,0.017774008325325275
1128.0,0.01781925440359733
1127.0,0.017909760704207134
1126.0,0.017955020928509757
1125.0,0.017909760704207134
1124.0,0.017909760704207134
1123.0,0.017909760704207134
1122.0,0.017909760704207134
1121.0,0.017909760704207134
1120.0,0.017909760704207134
1119.0,0.017909760704207134
1118.0,0.017955020928509757
1117.0,0.018136109008649592
1116.0,0.01831727262871463
1115.0,0.018543833477873584
1114.0,0.018725167293411005
1113.0,0.018815862601645694
1112.0,0.018770512579999288
1111.0,0.018679826740892747
1110.0,0.018543833477873584
1109.0,0.018543833477873584
1108.0,0.01858915983411169
1107.0,0.018634490921455527
1106.0,0.018634490921455527
1105.0,0.01858915983411169
1104.0,0.018543833477873584
1103.0,0.018498511851753108
1102.0,0.01840788278591865
1101.0,0.018226681372252695
1100.0,0.018045555530026514
1099.0,0.017955020928509757
1098.0,0.017955020928509757
1097.0,0.01800028587012159
1096.0,0.018045555530026514
1095.0,0.01809082990920774
1094.0,0.018136109008649592
1093.0,0.018181392829336396
1092.0,0.01831727262871463
1091.0,0.01845319495476394
1090.0,0.018543833477873584
1089.0,0.01858915983411169
1088.0,0.018634490921455527
1087.0,0.018634490921455527
1086.0,0.018725167293411005
1085.0,0.018861217359339655
1084.0,0.01899731005860028
1083.0,0.019178833355664393
1082.0,0.019269623464054586
1081.0,0.019451260640229506
1080.0,0.019678413991243593
1079.0,0.02004210665933459
1078.0,0.020497151212598652
1077.0,0.020952673052035298
1076.0,0.0214542995372613
1075.0,0.021956506090037076
1074.0,0.022505030926963654
1073.0,0.02314585342378117
1072.0,0.023879381700184332
1071.0,0.024522236834125355
1070.0,0.024936003904763915
1069.0,0.02521206778644225
1068.0,0.025350165561278004
1067.0,0.025304128090317013
1066.0,0.02512002699306959
1065.0,0.02475205875931885
1064.0,0.02438440203310499
1063.0,0.023879381700184332
1062.0,0.023374947949272418
1061.0,0.02277955336461468
1060.0,0.022230681908425698
1059.0,0.021773818325474092
1058.0,0.0214542995372613
1057.0,0.02122621566987748
1056.0,0.021135015652343103
1055.0,0.0209982515252789
1054.0,0.020907099361673565
1053.0,0.02067930261797568
1052.0,0.020497151212598652
1051.0,0.020315076172974234
1050.0,0.02022406727031445
1049.0,0.020087589665283012
1048.0,0.019860222254245663
1047.0,0.019451260640229506
1046.0,0.01899731005860028
1045.0,0.018543833477873584
1044.0,0.018226681372252695
1043.0,0.018136109008649592
1042.0,0.018181392829336396
1041.0,0.018271974638383703
1040.0,0.01831727262871463
1039.0,0.01840788278591865
1038.0,0.018770512579999288
1037.0,0.01949668180660491
1036.0,0.020770406977844713
1035.0,0.022505030926963654
1034.0,0.02475205875931885
1033.0,0.02738066094037661
1032.0,0.030118356253500123
1031.0,0.032686081712916426
1030.0,0.03470420418834386
1029.0,0.036117771071222604
1028.0,0.03692083935817303
1027.0,0.037062711569998186
1026.0,0.03658998431977123
1025.0,0.03550466044490741
1024.0,0.03399914237121604
1023.0,0.03249882527715853
1022.0,0.031143625385307683
1021.0,0.03002526987828502
1020.0,0.029095501846216454
1019.0,0.028306761050139073
1018.0,0.027612000892527133
1017.0,0.02691835039863255
1016.0,0.026225806029419818
1015.0,0.02558042614771394
1014.0,0.02512002699306959
1013.0,0.02475205875931885
1012.0,0.02438440203310499
1011.0,0.024017056287453542
1010.0,0.02365002099672653
1009.0,0.02342078135989012
1008.0,0.02351246269481
1007.0,0.023833499868024743
1006.0,0.024246610963712723
1005.0,0.024706084643793647
1004.0,0.02498200236711723
1003.0,0.02498200236711723
1002.0,0.024660115394541604
1001.0,0.024154774532432866
1000.0,0.023604163388120325
999.0,0.023100049017062307
998.0,0.022688026603074007
997.0,0.022413561996148967
996.0,0.022230681908425698
995.0,0.02204787879853809
994.0,0.021865152601710403
993.0,0.021728158389364705
992.0,0.02159120737696063
991.0,0.021499930688540836
990.0,0.021499930688540836
989.0,0.021636852916117055
988.0,0.021773818325474092
987.0,0.021910826943857264
986.0,0.022093572362881675
985.0,0.022367834754000393
984.0,0.022733787572707387
983.0,0.02314585342378117
982.0,0.023466619608062178
981.0,0.02365002099672653
980.0,0.02365002099672653
979.0,0.023604163388120325
978.0,0.02342078135989012
977.0,0.023054249440757957
976.0,0.022642270454698687
975.0,0.0221849739168134
974.0,0.021865152601710403
973.0,0.021728158389364705
972.0,0.02168250325324883
971.0,0.021773818325474092
970.0,0.021956506090037076
969.0,0.022230681908425698
968.0,0.02259651912656535
967.0,0.02300845469384938
966.0,0.023374947949272418
965.0,0.02365002099672653
964.0,0.023833499868024743
963.0,0.023971159908874107
962.0,0.023971159908874107
961.0,0.02365002099672653
960.0,0.023100049017062307
959.0,0.02245929405346514
958.0,0.021865152601710403
957.0,0.0214542995372613
956.0,0.02122621566987748
955.0,0.0211806132671577
954.0,0.0211806132671577
953.0,0.021089422824428272
952.0,0.020952673052035298
951.0,0.020861530453190058
950.0,0.020952673052035298
949.0,0.021135015652343103
948.0,0.021317434843055594
947.0,0.0214542995372613
946.0,0.021636852916117055
945.0,0.021865152601710403
944.0,0.022139270735302752
943.0,0.022322112326006227
942.0,0.022322112326006227
941.0,0.02227639471115217
940.0,0.022230681908425698
939.0,0.0221849739168134
938.0,0.022139270735302752
937.0,0.02200219004126036
936.0,0.021728158389364705
935.0,0.02140867317992523
934.0,0.021135015652343103
933.0,0.020907099361673565
932.0,0.02067930261797568
931.0,0.020497151212598652
930.0,0.020406104151069693
929.0,0.020406104151069693
928.0,0.020497151212598652
927.0,0.020497151212598652
926.0,0.020406104151069693
925.0,0.02026956933771462
924.0,0.02022406727031445
923.0,0.02026956933771462
922.0,0.020315076172974234
921.0,0.02036058777709271
920.0,0.02045162529590483
919.0,0.020633757603838898
918.0,0.020907099361673565
917.0,0.021363051615525652
916.0,0.021956506090037076
915.0,0.022688026603074007
914.0,0.023604163388120325
913.0,0.02475205875931885
912.0,0.026087429580295085
911.0,0.02751945012352408
910.0,0.02890978686288448
909.0,0.030118356253500123
908.0,0.031096969696171817
907.0,0.03184406285002961
906.0,0.03217132066984485
905.0,0.03207779326948268
904.0,0.03151705144606498
903.0,0.03063068826647264
902.0,0.029513651152349718
901.0,0.028214062120885508
900.0,0.02691835039863255
899.0,0.02562649291857677
898.0,0.024430342106337877
897.0,0.023374947949272418
896.0,0.02259651912656535
895.0,0.022093572362881675
894.0,0.021728158389364705
893.0,0.02140867317992523
892.0,0.0211806132671577
891.0,0.020952673052035298
890.0,0.020724852408976924
889.0,0.020497151212598652
888.0,0.020315076172974234
887.0,0.02022406727031445
886.0,0.020087589665283012
885.0,0.01990568621470623
884.0,0.019723858922159776
883.0,0.01954210772389997
882.0,0.01940584422377989
881.0,0.019269623464054586
880.0,0.019178833355664393
879.0,0.0192242260373785
878.0,0.019269623464054586
877.0,0.019269623464054586
876.0,0.019178833355664393
875.0,0.019133445417920836
874.0,0.0192242260373785
873.0,0.019315025636685412
872.0,0.019360432556262852
871.0,0.019269623464054586
870.0,0.0190880622231564
869.0,0.018906576854070378
868.0,0.018861217359339655
867.0,0.018861217359339655
866.0,0.018815862601645694
865.0,0.018725167293411005
864.0,0.018634490921455527
863.0,0.01858915983411169
862.0,0.01858915983411169
861.0,0.01858915983411169
860.0,0.018634490921455527
859.0,0.018679826740892747
858.0,0.018725167293411005
857.0,0.018770512579999288
856.0,0.018770512579999288
855.0,0.018770512579999288
854.0,0.018815862601645694
853.0,0.018815862601645694
852.0,0.018906576854070378
851.0,0.01899731005860028
850.0,0.019178833355664393
849.0,0.01940584422377989
848.0,0.019678413991243593
847.0,0.02004210665933459
846.0,0.020542681902151694
845.0,0.021135015652343103
844.0,0.021773818325474092
843.0,0.022230681908425698
842.0,0.02259651912656535
841.0,0.02282532397981263
840.0,0.02277955336461468
839.0,0.02255077261765881
838.0,0.022139270735302752
837.0,0.02159120737696063
836.0,0.021043834782408455
835.0,0.02036058777709271
834.0,0.019678413991243593
833.0,0.01899731005860028
832.0,0.018362575344230914
831.0,0.017864505196230507
830.0,0.017502630802287644
829.0,0.017321806616515723
828.0,0.017231422748988034
827.0,0.017050711425501408
826.0,0.01677978535189717
825.0,0.016509028184833463
824.0,0.01632861713980338
823.0,0.01628352608625061
822.0,0.01628352608625061
821.0,0.01628352608625061
820.0,0.016193358021584725
819.0,0.016058141016111804
818.0,0.015922966097169144
817.0,0.015877917138889863
816.0,0.015922966097169144
815.0,0.01596801972881945
814.0,0.01596801972881945
813.0,0.016013078034810446
812.0,0.016013078034810446
811.0,0.01596801972881945
810.0,0.01578783323856614
809.0,0.015517693597737248
808.0,0.015292705517326866
807.0,0.015157768594724175
806.0,0.015157768594724175
805.0,0.015292705517326866
804.0,0.015562705203923999
803.0,0.015742798294583915
802.0,0.015652742414136167
801.0,0.015292705517326866
800.0,0.014888020460646079
799.0,0.014618439768003144
798.0,0.014708281407112
797.0,0.014977917890464765
796.0,0.015247721884586563
795.0,0.015427684378367834
794.0,0.015427684378367834
793.0,0.01547268665620738
792.0,0.015607721475734415
791.0,0.01596801972881945
790.0,0.016373712875465518
789.0,0.016734647433454652
788.0,0.017050711425501408
787.0,0.017321806616515723
786.0,0.017638298366853045
785.0,0.01800028587012159
784.0,0.01840788278591865
783.0,0.018861217359339655
782.0,0.019451260640229506
781.0,0.020087589665283012
780.0,0.020861530453190058
779.0,0.021865152601710403
778.0,0.02342078135989012
777.0,0.02558042614771394
776.0,0.028214062120885508
775.0,0.03105031901865729
774.0,0.0338113190438627
773.0,0.03658998431977123
772.0,0.03948165721929198
771.0,0.04263219156847242
770.0,0.046143701775014145
769.0,0.04978123335813667
768.0,0.05330216275425803
767.0,0.05670338543334519
766.0,0.06003170944866376
765.0,0.06348625752110681
764.0,0.06691783763020887
763.0,0.07017251876930874
762.0,0.0732460948102629
761.0,0.07634157820669385
760.0,0.07951143534170213
759.0,0.08259953204474924
758.0,0.08533956941077814
757.0,0.08756536662442538
756.0,0.0892155652071629
755.0,0.09023008526723086
754.0,0.09071147583774919
753.0,0.09097914578884403
752.0,0.09124698081546634
751.0,0.09156860103399356
750.0,0.09205147838772776
749.0,0.09258863922541383
748.0,0.09296504751658308
747.0,0.09253489323414388
746.0,0.0908185240221473
745.0,0.0877779434675845
744.0,0.08380934001946239
743.0,0.07935499859321249
742.0,0.07453319930846214
741.0,0.06956040523329987
740.0,0.06444235490698613
739.0,0.05953332233647113
738.0,0.05522131887649295
737.0,0.05153812993871654
736.0,0.04807992647970649
735.0,0.044312249686494276
734.0,0.04019568349166214
733.0,0.03625938114211591
732.0,0.032920265855503006
731.0,0.03025802323714588
730.0,0.02812138297373412
729.0,0.026318081496016443
728.0,0.024706084643793647
727.0,0.023191662661933732
726.0,0.021728158389364705
725.0,0.020497151212598652
724.0,0.019451260640229506
723.0,0.01845319495476394
722.0,0.017367005605150476
721.0,0.016103208673694303
720.0,0.014977917890464765
719.0,0.014124642691606404
718.0,0.013676222949234651
717.0,0.013541787262693505
716.0,0.013407393177789162
715.0,0.013273040668781544
714.0,0.013407393177789162
713.0,0.014124642691606404
712.0,0.015877917138889863
711.0,0.018906576854070378
710.0,0.02355831062115543
709.0,0.030211462585061133
708.0,0.03905380426616856
707.0,0.050171041064686284
706.0,0.06358680028852026
705.0,0.0794071379151915
704.0,0.09767069414168117
703.0,0.11827306462358211
702.0,0.1408016384661226
701.0,0.16500739626697003
700.0,0.19070969882368427
699.0,0.21702600505595182
698.0,0.2420728168866706
697.0,0.26272782346445656
696.0,0.2749872746588431
695.0,0.27506908580760214
694.0,0.26217149410421525
693.0,0.2397283394579368
692.0,0.21310667473868428
691.0,0.18701983396051958
690.0,0.1644362483309032
689.0,0.14666689499766483
688.0,0.13318119707395182
687.0,0.12222565000860186
686.0,0.11272036546997688
685.0,0.10452220372428545
684.0,0.0978882765519955
683.0,0.09264239186882706
682.0,0.0880970039559672
681.0,0.08375666953466032
680.0,0.0794592834975203
679.0,0.07566901529132153
678.0,0.07283502570063005
677.0,0.07093887591523451
676.0,0.06956040523329987
675.0,0.06803388527182741
674.0,0.06600683616875758
673.0,0.06353652599525317
672.0,0.06093025007657582
671.0,0.05843887976392925
670.0,0.05670338543334519
669.0,0.05670338543334519
668.0,0.05779345772290467
667.0,0.056950888991593285
666.0,0.05448217792216048
665.0,0.052027420754219955
664.0,0.04987865248862655
663.0,0.04778894189133087
662.0,0.04585401117045196
661.0,0.04469717723830824
660.0,0.04488976902944808
659.0,0.04609540658654021
658.0,0.04725597598510167
657.0,0.047352830241056854
656.0,0.046192002334692894
655.0,0.04440844959427559
654.0,0.042967683653061695
653.0,0.04224908912272074
652.0,0.04200982159316968
651.0,0.041579471947481794
650.0,0.04081545726880842
649.0,0.04019568349166214
648.0,0.0402909757535701
647.0,0.041006334969674096
646.0,0.0417706858116178
645.0,0.04215336629184985
644.0,0.04172287445230238
643.0,0.04043395336207234
642.0,0.03886378261277468
641.0,0.03777276864991497
640.0,0.037583306554248797
639.0,0.03829421599749461
638.0,0.03943409718180235
637.0,0.04086316882962593
636.0,0.04248848854552012
635.0,0.04387961360698034
634.0,0.04469717723830824
633.0,0.0451788169482068
632.0,0.04595055323640551
631.0,0.04696554274964315
630.0,0.04754660357696672
629.0,0.047062332249019345
628.0,0.045564513671517703
627.0,0.043735497301724546
626.0,0.04244059810252043
625.0,0.042201225070002124
624.0,0.04272802000705722
623.0,0.043495409683302455
622.0,0.04440844959427559
621.0,0.045323413081356456
620.0,0.04580574818413763
619.0,0.04537162249272897
618.0,0.04421607108308856
617.0,0.04344740808260106
616.0,0.0435434165901003
615.0,0.04383156952463674
614.0,0.0433514207947967
613.0,0.04196198390166317
612.0,0.0402909757535701
611.0,0.039006291057664066
610.0,0.038673844065289176
609.0,0.03938654235209116
608.0,0.040529297924893015
607.0,0.041006334969674096
606.0,0.040243327009005014
605.0,0.03876880295533702
604.0,0.037488606492403154
603.0,0.036779013477011624
602.0,0.03682628362474838
601.0,0.03791491948264003
600.0,0.03952922246570112
