cm-1,A
4000.0,-4.3427276862573194e-05
3999.0,-0.00013026880522692963
3998.0,-0.00017368305846510168
3997.0,-0.0002604985473904087
3996.0,-0.00030389978481260016
3995.0,-0.0002604985473904087
3994.0,-0.00021709297223004853
3993.0,-4.3427276862573194e-05
3992.0,0.0001303078917322953
3991.0,0.00026065489343207737
3990.0,0.00026065489343207737
3989.0,0.00021720154586435392
3988.0,0.0001303078917322953
3987.0,4.343161980746579e-05
3986.0,4.343161980746579e-05
3985.0,4.343161980746579e-05
3984.0,0.0
3983.0,0.0
3982.0,0.0
3981.0,4.343161980746579e-05
3980.0,8.686758342868472e-05
3979.0,0.0001303078917322953
3978.0,0.0001303078917322953
3977.0,0.00017375254558760211
3976.0,0.00021720154586435392
3975.0,0.00026065489343207737
3974.0,0.00030411258916074324
3973.0,0.0003475746339209884
3972.0,0.0003475746339209884
3971.0,0.00030411258916074324
3970.0,0.00026065489343207737
3969.0,0.00021720154586435392
3968.0,0.00017375254558760211
3967.0,0.0001303078917322953
3966.0,0.0001303078917322953
3965.0,8.686758342868472e-05
3964.0,8.686758342868472e-05
3963.0,8.686758342868472e-05
3962.0,8.686758342868472e-05
3961.0,0.0001303078917322953
3960.0,0.00017375254558760211
3959.0,0.00017375254558760211
3958.0,0.00017375254558760211
3957.0,0.00017375254558760211
3956.0,0.00021720154586435392
3955.0,0.00021720154586435392
3954.0,0.00021720154586435392
3953.0,0.00021720154586435392
3952.0,0.00021720154586435392
3951.0,0.00021720154586435392
3950.0,0.00021720154586435392
3949.0,0.00017375254558760211
3948.0,0.00017375254558760211
3947.0,0.00017375254558760211
3946.0,0.00017375254558760211
3945.0,0.00021720154586435392
3944.0,0.00026065489343207737
3943.0,0.00026065489343207737
3942.0,0.00026065489343207737
3941.0,0.00030411258916074324
3940.0,0.00030411258916074324
3939.0,0.00026065489343207737
3938.0,0.00021720154586435392
3937.0,0.00021720154586435392
3936.0,0.00026065489343207737
3935.0,0.0003475746339209884
3934.0,0.00043451177401765406
3933.0,0.0004779868710962365
3932.0,0.0004779868710962365
3931.0,0.0004779868710962365
3930.0,0.00043451177401765406
3929.0,0.0003475746339209884
3928.0,0.00030411258916074324
3927.0,0.00030411258916074324
3926.0,0.00026065489343207737
3925.0,0.00017375254558760211
3924.0,4.343161980746579e-05
3923.0,-0.00013026880522692963
3922.0,-0.00017368305846510168
3921.0,-0.00017368305846510168
3920.0,-0.00013026880522692963
3919.0,-8.685021164911433e-05
3918.0,-4.3427276862573194e-05
3917.0,-4.3427276862573194e-05
3916.0,0.0
3915.0,4.343161980746579e-05
3914.0,0.00017375254558760211
3913.0,0.00030411258916074324
3912.0,0.0003910410285830057
3911.0,0.0003910410285830057
3910.0,0.00030411258916074324
3909.0,0.00017375254558760211
3908.0,8.686758342868472e-05
3907.0,4.343161980746579e-05
3906.0,8.686758342868472e-05
3905.0,0.00026065489343207737
3904.0,0.000521466320689834
3903.0,0.0006954276616513155
3902.0,0.0008259444115150671
3901.0,0.0008259444115150671
3900.0,0.0006954276616513155
3899.0,0.000521466320689834
3898.0,0.0003910410285830057
3897.0,0.0003910410285830057
3896.0,0.00043451177401765406
3895.0,0.00043451177401765406
3894.0,0.0004779868710962365
3893.0,0.0004779868710962365
3892.0,0.0003910410285830057
3891.0,0.00021720154586435392
3890.0,8.686758342868472e-05
3889.0,0.00017375254558760211
3888.0,0.0003910410285830057
3887.0,0.000521466320689834
3886.0,0.0003910410285830057
3885.0,0.00017375254558760211
3884.0,4.343161980746579e-05
3883.0,8.686758342868472e-05
3882.0,0.00017375254558760211
3881.0,0.00021720154586435392
3880.0,0.0001303078917322953
3879.0,0.0001303078917322953
3878.0,0.00017375254558760211
3877.0,0.00021720154586435392
3876.0,0.00017375254558760211
3875.0,0.0
3874.0,-8.685021164911433e-05
3873.0,0.0
3872.0,0.00030411258916074324
3871.0,0.0005649501236701937
3870.0,0.0005649501236701937
3869.0,0.0003475746339209884
3868.0,0.00021720154586435392
3867.0,0.00030411258916074324
3866.0,0.0003475746339209884
3865.0,0.00030411258916074324
3864.0,0.00026065489343207737
3863.0,0.00030411258916074324
3862.0,0.0003475746339209884
3861.0,0.0003475746339209884
3860.0,0.0003475746339209884
3859.0,0.0003910410285830057
3858.0,0.0004779868710962365
3857.0,0.0005649501236701937
3856.0,0.0006954276616513155
3855.0,0.0007824344698965646
3854.0,0.0007824344698965646
3853.0,0.000521466320689834
3852.0,0.0004779868710962365
3851.0,0.0006954276616513155
3850.0,0.0009565003968372565
3849.0,0.0009129773741116676
3848.0,0.0006954276616513155
3847.0,0.0003910410285830057
3846.0,0.00021720154586435392
3845.0,8.686758342868472e-05
3844.0,0.0
3843.0,-8.685021164911433e-05
3842.0,-0.00013026880522692963
3841.0,-0.00017368305846510168
3840.0,-0.00013026880522692963
3839.0,0.0
3838.0,0.00021720154586435392
3837.0,0.00043451177401765406
3836.0,0.0006084382809090627
3835.0,0.0008259444115150671
3834.0,0.0009565003968372565
3833.0,0.0010000277816797354
3832.0,0.0009129773741116676
3831.0,0.0007824344698965646
3830.0,0.0006519307932786322
3829.0,0.0005649501236701937
3828.0,0.0003910410285830057
3827.0,0.0001303078917322953
3826.0,-0.00013026880522692963
3825.0,-0.00021709297223004853
3824.0,-4.3427276862573194e-05
3823.0,0.00030411258916074324
3822.0,0.0006954276616513155
3821.0,0.0007824344698965646
3820.0,0.0006519307932786322
3819.0,0.0006519307932786322
3818.0,0.0007824344698965646
3817.0,0.0007824344698965646
3816.0,0.0005649501236701937
3815.0,0.0003910410285830057
3814.0,0.0003475746339209884
3813.0,0.0004779868710962365
3812.0,0.0004779868710962365
3811.0,0.0003910410285830057
3810.0,0.0003475746339209884
3809.0,0.0003910410285830057
3808.0,0.00043451177401765406
3807.0,0.00030411258916074324
3806.0,8.686758342868472e-05
3805.0,4.343161980746579e-05
3804.0,0.0001303078917322953
3803.0,0.00026065489343207737
3802.0,0.00026065489343207737
3801.0,0.00017375254558760211
3800.0,0.00017375254558760211
3799.0,0.00043451177401765406
3798.0,0.0006954276616513155
3797.0,0.0007389288868995258
3796.0,0.0006519307932786322
3795.0,0.000521466320689834
3794.0,0.00043451177401765406
3793.0,0.0003910410285830057
3792.0,0.0003475746339209884
3791.0,0.00030411258916074324
3790.0,0.00026065489343207737
3789.0,0.00026065489343207737
3788.0,0.00017375254558760211
3787.0,0.0001303078917322953
3786.0,8.686758342868472e-05
3785.0,0.00017375254558760211
3784.0,0.00026065489343207737
3783.0,0.0003475746339209884
3782.0,0.0004779868710962365
3781.0,0.0006084382809090627
3780.0,0.0006084382809090627
3779.0,0.0005649501236701937
3778.0,0.0005649501236701937
3777.0,0.0005649501236701937
3776.0,0.0005649501236701937
3775.0,0.0004779868710962365
3774.0,0.0003475746339209884
3773.0,0.00030411258916074324
3772.0,0.00030411258916074324
3771.0,0.0003910410285830057
3770.0,0.00043451177401765406
3769.0,0.0004779868710962365
3768.0,0.0006084382809090627
3767.0,0.0006954276616513155
3766.0,0.0006954276616513155
3765.0,0.0006084382809090627
3764.0,0.0005649501236701937
3763.0,0.0005649501236701937
3762.0,0.000521466320689834
3761.0,0.0003910410285830057
3760.0,0.00021720154586435392
3759.0,0.0001303078917322953
3758.0,0.00017375254558760211
3757.0,0.00021720154586435392
3756.0,0.00026065489343207737
3755.0,0.00030411258916074324
3754.0,0.0003475746339209884
3753.0,0.0003475746339209884
3752.0,0.000521466320689834
3751.0,0.0007389288868995258
3750.0,0.000869458712629001
3749.0,0.0008259444115150671
3748.0,0.0008259444115150671
3747.0,0.0009565003968372565
3746.0,0.0011306361176557367
3745.0,0.0012177301682640973
3744.0,0.0010870956412141197
3743.0,0.0010435595295137379
3742.0,0.0012177301682640973
3741.0,0.001304841688344327
3740.0,0.0012177301682640973
3739.0,0.0010870956412141197
3738.0,0.0010435595295137379
3737.0,0.0010870956412141197
3736.0,0.0010435595295137379
3735.0,0.000869458712629001
3734.0,0.0006519307932786322
3733.0,0.0005649501236701937
3732.0,0.00043451177401765406
3731.0,0.0003910410285830057
3730.0,0.00043451177401765406
3729.0,0.00043451177401765406
3728.0,0.0003910410285830057
3727.0,0.00021720154586435392
3726.0,0.00017375254558760211
3725.0,0.0003475746339209884
3724.0,0.0006084382809090627
3723.0,0.0008259444115150671
3722.0,0.000869458712629001
3721.0,0.0007389288868995258
3720.0,0.0006084382809090627
3719.0,0.000521466320689834
3718.0,0.00043451177401765406
3717.0,0.0003910410285830057
3716.0,0.0003910410285830057
3715.0,0.0004779868710962365
3714.0,0.000521466320689834
3713.0,0.0006084382809090627
3712.0,0.0007824344698965646
3711.0,0.0009129773741116676
3710.0,0.0009129773741116676
3709.0,0.0009129773741116676
3708.0,0.000869458712629001
3707.0,0.0008259444115150671
3706.0,0.0008259444115150671
3705.0,0.0007824344698965646
3704.0,0.0007389288868995258
3703.0,0.0006519307932786322
3702.0,0.0006084382809090627
3701.0,0.0006084382809090627
3700.0,0.0006084382809090627
3699.0,0.0006084382809090627
3698.0,0.0006084382809090627
3697.0,0.0005649501236701937
3696.0,0.0005649501236701937
3695.0,0.0006084382809090627
3694.0,0.0006519307932786322
3693.0,0.0005649501236701937
3692.0,0.0004779868710962365
3691.0,0.0004779868710962365
3690.0,0.0005649501236701937
3689.0,0.0005649501236701937
3688.0,0.000521466320689834
3687.0,0.0004779868710962365
3686.0,0.0005649501236701937
3685.0,0.0006084382809090627
3684.0,0.000521466320689834
3683.0,0.0003475746339209884
3682.0,0.00017375254558760211
3681.0,8.686758342868472e-05
3680.0,0.0
3679.0,0.0
3678.0,0.0001303078917322953
3677.0,0.0003475746339209884
3676.0,0.0004779868710962365
3675.0,0.0003910410285830057
3674.0,0.0003910410285830057
3673.0,0.0006954276616513155
3672.0,0.0010870956412141197
3671.0,0.0012612837441823288
3670.0,0.0012177301682640973
3669.0,0.0010000277816797354
3668.0,0.000869458712629001
3667.0,0.000869458712629001
3666.0,0.0007824344698965646
3665.0,0.0006954276616513155
3664.0,0.0005649501236701937
3663.0,0.0004779868710962365
3662.0,0.0003910410285830057
3661.0,0.00026065489343207737
3660.0,0.00017375254558760211
3659.0,0.00017375254558760211
3658.0,0.00030411258916074324
3657.0,0.00043451177401765406
3656.0,0.0004779868710962365
3655.0,0.00043451177401765406
3654.0,0.0003475746339209884
3653.0,0.00026065489343207737
3652.0,8.686758342868472e-05
3651.0,4.343161980746579e-05
3650.0,0.00030411258916074324
3649.0,0.0006519307932786322
3648.0,0.0009129773741116676
3647.0,0.0010870956412141197
3646.0,0.0012177301682640973
3645.0,0.001304841688344327
3644.0,0.0012612837441823288
3643.0,0.0010870956412141197
3642.0,0.0009129773741116676
3641.0,0.0007824344698965646
3640.0,0.0006954276616513155
3639.0,0.0006954276616513155
3638.0,0.0006084382809090627
3637.0,0.0005649501236701937
3636.0,0.000521466320689834
3635.0,0.0004779868710962365
3634.0,0.0004779868710962365
3633.0,0.0004779868710962365
3632.0,0.000521466320689834
3631.0,0.0006954276616513155
3630.0,0.0009565003968372565
3629.0,0.0012177301682640973
3628.0,0.0012612837441823288
3627.0,0.0012177301682640973
3626.0,0.0012177301682640973
3625.0,0.0011306361176557367
3624.0,0.0009565003968372565
3623.0,0.000869458712629001
3622.0,0.0009565003968372565
3621.0,0.0011306361176557367
3620.0,0.0012612837441823288
3619.0,0.001348404001626502
3618.0,0.001348404001626502
3617.0,0.001304841688344327
3616.0,0.0012612837441823288
3615.0,0.0011741809597138886
3614.0,0.0010435595295137379
3613.0,0.0009565003968372565
3612.0,0.0010000277816797354
3611.0,0.0011741809597138886
3610.0,0.001348404001626502
3609.0,0.0014791171649619628
3608.0,0.0015226969634936083
3607.0,0.0013919706849057079
3606.0,0.0011741809597138886
3605.0,0.0009565003968372565
3604.0,0.0007389288868995258
3603.0,0.0006084382809090627
3602.0,0.0006084382809090627
3601.0,0.0006519307932786322
3600.0,0.0007824344698965646
3599.0,0.0009565003968372565
3598.0,0.0011741809597138886
3597.0,0.0013919706849057079
3596.0,0.0015226969634936083
3595.0,0.0015226969634936083
3594.0,0.0014355417390583547
3593.0,0.0013919706849057079
3592.0,0.001348404001626502
3591.0,0.001348404001626502
3590.0,0.0013919706849057079
3589.0,0.0014791171649619628
3588.0,0.001609869681952425
3587.0,0.0016970599014589638
3586.0,0.001609869681952425
3585.0,0.0014791171649619628
3584.0,0.001304841688344327
3583.0,0.0012177301682640973
3582.0,0.0012612837441823288
3581.0,0.001304841688344327
3580.0,0.001304841688344327
3579.0,0.0012177301682640973
3578.0,0.0010435595295137379
3577.0,0.0009129773741116676
3576.0,0.0009565003968372565
3575.0,0.0011741809597138886
3574.0,0.0014355417390583547
3573.0,0.0016534626036355249
3572.0,0.0016970599014589638
3571.0,0.001609869681952425
3570.0,0.0014791171649619628
3569.0,0.0013919706849057079
3568.0,0.0014355417390583547
3567.0,0.0014791171649619628
3566.0,0.0013919706849057079
3565.0,0.001304841688344327
3564.0,0.001304841688344327
3563.0,0.0014355417390583547
3562.0,0.001609869681952425
3561.0,0.0016970599014589638
3560.0,0.0016970599014589638
3559.0,0.0015662811355310335
3558.0,0.0014355417390583547
3557.0,0.001304841688344327
3556.0,0.0012177301682640973
3555.0,0.0012612837441823288
3554.0,0.001348404001626502
3553.0,0.0013919706849057079
3552.0,0.0013919706849057079
3551.0,0.001348404001626502
3550.0,0.001348404001626502
3549.0,0.0013919706849057079
3548.0,0.0014355417390583547
3547.0,0.0014355417390583547
3546.0,0.0014355417390583547
3545.0,0.0013919706849057079
3544.0,0.001348404001626502
3543.0,0.001304841688344327
3542.0,0.001304841688344327
3541.0,0.001304841688344327
3540.0,0.001348404001626502
3539.0,0.0013919706849057079
3538.0,0.0015226969634936083
3537.0,0.0015662811355310335
3536.0,0.0015662811355310335
3535.0,0.0014791171649619628
3534.0,0.0014355417390583547
3533.0,0.0013919706849057079
3532.0,0.001348404001626502
3531.0,0.001348404001626502
3530.0,0.0014355417390583547
3529.0,0.0015226969634936083
3528.0,0.0015662811355310335
3527.0,0.0015662811355310335
3526.0,0.0014355417390583547
3525.0,0.001304841688344327
3524.0,0.0012177301682640973
3523.0,0.0012177301682640973
3522.0,0.001348404001626502
3521.0,0.0014791171649619628
3520.0,0.0015226969634936083
3519.0,0.0014791171649619628
3518.0,0.0013919706849057079
3517.0,0.0012612837441823288
3516.0,0.0011741809597138886
3515.0,0.0011306361176557367
3514.0,0.0010870956412141197
3513.0,0.0011306361176557367
3512.0,0.0012177301682640973
3511.0,0.001304841688344327
3510.0,0.001348404001626502
3509.0,0.0013919706849057079
3508.0,0.001348404001626502
3507.0,0.001348404001626502
3506.0,0.001348404001626502
3505.0,0.0013919706849057079
3504.0,0.0014355417390583547
3503.0,0.0015226969634936083
3502.0,0.0016534626036355249
3501.0,0.0017406615763013722
3500.0,0.0017406615763013722
3499.0,0.001609869681952425
3498.0,0.0014791171649619628
3497.0,0.001348404001626502
3496.0,0.001304841688344327
3495.0,0.001348404001626502
3494.0,0.0014355417390583547
3493.0,0.0014791171649619628
3492.0,0.0015662811355310335
3491.0,0.0016534626036355249
3490.0,0.001609869681952425
3489.0,0.0014791171649619628
3488.0,0.0012612837441823288
3487.0,0.0010870956412141197
3486.0,0.0010870956412141197
3485.0,0.0012177301682640973
3484.0,0.001348404001626502
3483.0,0.0014355417390583547
3482.0,0.0014355417390583547
3481.0,0.0014791171649619628
3480.0,0.0014791171649619628
3479.0,0.0014791171649619628
3478.0,0.0014355417390583547
3477.0,0.001304841688344327
3476.0,0.0012177301682640973
3475.0,0.0011741809597138886
3474.0,0.0012612837441823288
3473.0,0.0013919706849057079
3472.0,0.0014791171649619628
3471.0,0.0015662811355310335
3470.0,0.001609869681952425
3469.0,0.0016534626036355249
3468.0,0.0016534626036355249
3467.0,0.001609869681952425
3466.0,0.0015662811355310335
3465.0,0.0015226969634936083
3464.0,0.0015662811355310335
3463.0,0.0015662811355310335
3462.0,0.0015226969634936083
3461.0,0.0013919706849057079
3460.0,0.001304841688344327
3459.0,0.0012612837441823288
3458.0,0.001304841688344327
3457.0,0.001348404001626502
3456.0,0.0014355417390583547
3455.0,0.0014791171649619628
3454.0,0.0014355417390583547
3453.0,0.001348404001626502
3452.0,0.001304841688344327
3451.0,0.001304841688344327
3450.0,0.001348404001626502
3449.0,0.001348404001626502
3448.0,0.001348404001626502
3447.0,0.0013919706849057079
3446.0,0.0014791171649619628
3445.0,0.0015226969634936083
3444.0,0.0015226969634936083
3443.0,0.0013919706849057079
3442.0,0.0012612837441823288
3441.0,0.0011741809597138886
3440.0,0.0011741809597138886
3439.0,0.0012177301682640973
3438.0,0.001304841688344327
3437.0,0.001348404001626502
3436.0,0.001348404001626502
3435.0,0.001304841688344327
3434.0,0.001304841688344327
3433.0,0.0013919706849057079
3432.0,0.0015226969634936083
3431.0,0.0016970599014589638
3430.0,0.0017406615763013722
3429.0,0.0016970599014589638
3428.0,0.0015662811355310335
3427.0,0.0014355417390583547
3426.0,0.001348404001626502
3425.0,0.0012612837441823288
3424.0,0.0011741809597138886
3423.0,0.0011741809597138886
3422.0,0.0012177301682640973
3421.0,0.001304841688344327
3420.0,0.0014355417390583547
3419.0,0.0015662811355310335
3418.0,0.001609869681952425
3417.0,0.001609869681952425
3416.0,0.0015226969634936083
3415.0,0.0013919706849057079
3414.0,0.001304841688344327
3413.0,0.0012612837441823288
3412.0,0.0012612837441823288
3411.0,0.0012612837441823288
3410.0,0.0012612837441823288
3409.0,0.001304841688344327
3408.0,0.001304841688344327
3407.0,0.001348404001626502
3406.0,0.0014355417390583547
3405.0,0.0014791171649619628
3404.0,0.0014791171649619628
3403.0,0.0015662811355310335
3402.0,0.0016534626036355249
3401.0,0.0017406615763013722
3400.0,0.0017842676290416026
3399.0,0.0017842676290416026
3398.0,0.0017406615763013722
3397.0,0.0016534626036355249
3396.0,0.0015226969634936083
3395.0,0.0014355417390583547
3394.0,0.0013919706849057079
3393.0,0.0015226969634936083
3392.0,0.0016534626036355249
3391.0,0.0017406615763013722
3390.0,0.0016970599014589638
3389.0,0.0015226969634936083
3388.0,0.0013919706849057079
3387.0,0.001348404001626502
3386.0,0.0014355417390583547
3385.0,0.0015662811355310335
3384.0,0.001609869681952425
3383.0,0.001609869681952425
3382.0,0.001609869681952425
3381.0,0.0015226969634936083
3380.0,0.0014355417390583547
3379.0,0.001304841688344327
3378.0,0.0011741809597138886
3377.0,0.0010870956412141197
3376.0,0.0011306361176557367
3375.0,0.0012612837441823288
3374.0,0.0014791171649619628
3373.0,0.0016970599014589638
3372.0,0.0018278780605593958
3371.0,0.0018714928717336043
3370.0,0.0017842676290416026
3369.0,0.0016534626036355249
3368.0,0.0015226969634936083
3367.0,0.0014355417390583547
3366.0,0.0014791171649619628
3365.0,0.0015662811355310335
3364.0,0.0016534626036355249
3363.0,0.0016970599014589638
3362.0,0.0017842676290416026
3361.0,0.0018278780605593958
3360.0,0.0018278780605593958
3359.0,0.0018278780605593958
3358.0,0.0017406615763013722
3357.0,0.0015662811355310335
3356.0,0.0014355417390583547
3355.0,0.001348404001626502
3354.0,0.0012612837441823288
3353.0,0.0012612837441823288
3352.0,0.0012177301682640973
3351.0,0.0011741809597138886
3350.0,0.0011741809597138886
3349.0,0.0012177301682640973
3348.0,0.001304841688344327
3347.0,0.0013919706849057079
3346.0,0.0013919706849057079
3345.0,0.001304841688344327
3344.0,0.0012612837441823288
3343.0,0.0012612837441823288
3342.0,0.001304841688344327
3341.0,0.0013919706849057079
3340.0,0.0014355417390583547
3339.0,0.0015226969634936083
3338.0,0.001609869681952425
3337.0,0.0017406615763013722
3336.0,0.0018278780605593958
3335.0,0.0018714928717336043
3334.0,0.0017842676290416026
3333.0,0.001609869681952425
3332.0,0.0014355417390583547
3331.0,0.0012612837441823288
3330.0,0.0012177301682640973
3329.0,0.0012612837441823288
3328.0,0.001304841688344327
3327.0,0.001348404001626502
3326.0,0.001348404001626502
3325.0,0.0014355417390583547
3324.0,0.0014791171649619628
3323.0,0.0014791171649619628
3322.0,0.0014791171649619628
3321.0,0.0015226969634936083
3320.0,0.0015662811355310335
3319.0,0.0016534626036355249
3318.0,0.0016970599014589638
3317.0,0.001609869681952425
3316.0,0.0014791171649619628
3315.0,0.001304841688344327
3314.0,0.0012612837441823288
3313.0,0.001348404001626502
3312.0,0.0013919706849057079
3311.0,0.0014355417390583547
3310.0,0.0014355417390583547
3309.0,0.0013919706849057079
3308.0,0.0013919706849057079
3307.0,0.0014355417390583547
3306.0,0.0014791171649619628
3305.0,0.0015226969634936083
3304.0,0.0015226969634936083
3303.0,0.0015226969634936083
3302.0,0.0014791171649619628
3301.0,0.0014791171649619628
3300.0,0.0015226969634936083
3299.0,0.0015662811355310335
3298.0,0.0015662811355310335
3297.0,0.001609869681952425
3296.0,0.0016970599014589638
3295.0,0.0017406615763013722
3294.0,0.0017406615763013722
3293.0,0.0016534626036355249
3292.0,0.0015226969634936083
3291.0,0.001304841688344327
3290.0,0.0011741809597138886
3289.0,0.0011306361176557367
3288.0,0.0012177301682640973
3287.0,0.001348404001626502
3286.0,0.0014791171649619628
3285.0,0.0015662811355310335
3284.0,0.0016970599014589638
3283.0,0.0018278780605593958
3282.0,0.0018714928717336043
3281.0,0.0018278780605593958
3280.0,0.0016970599014589638
3279.0,0.0015662811355310335
3278.0,0.0014791171649619628
3277.0,0.0014791171649619628
3276.0,0.0015226969634936083
3275.0,0.001609869681952425
3274.0,0.0016534626036355249
3273.0,0.0016970599014589638
3272.0,0.0016534626036355249
3271.0,0.0015226969634936083
3270.0,0.0013919706849057079
3269.0,0.001304841688344327
3268.0,0.001348404001626502
3267.0,0.0014791171649619628
3266.0,0.001609869681952425
3265.0,0.0016534626036355249
3264.0,0.0016970599014589638
3263.0,0.0017842676290416026
3262.0,0.0018714928717336043
3261.0,0.001915112063444413
3260.0,0.0018278780605593958
3259.0,0.0017406615763013722
3258.0,0.0016534626036355249
3257.0,0.001609869681952425
3256.0,0.0015226969634936083
3255.0,0.0014791171649619628
3254.0,0.0014355417390583547
3253.0,0.0013919706849057079
3252.0,0.0014791171649619628
3251.0,0.001609869681952425
3250.0,0.0017842676290416026
3249.0,0.0018278780605593958
3248.0,0.0017842676290416026
3247.0,0.0016534626036355249
3246.0,0.0015662811355310335
3245.0,0.001609869681952425
3244.0,0.0016534626036355249
3243.0,0.0017842676290416026
3242.0,0.0018714928717336043
3241.0,0.0018714928717336043
3240.0,0.0017842676290416026
3239.0,0.001609869681952425
3238.0,0.0014355417390583547
3237.0,0.001348404001626502
3236.0,0.0014355417390583547
3235.0,0.0016534626036355249
3234.0,0.0018278780605593958
3233.0,0.0020023635919956817
3232.0,0.0020023635919956817
3231.0,0.0020023635919956817
3230.0,0.0019587356365717845
3229.0,0.0019587356365717845
3228.0,0.0019587356365717845
3227.0,0.0020023635919956817
3226.0,0.0019587356365717845
3225.0,0.001915112063444413
3224.0,0.0018278780605593958
3223.0,0.0016970599014589638
3222.0,0.001609869681952425
3221.0,0.0015662811355310335
3220.0,0.0016534626036355249
3219.0,0.0017842676290416026
3218.0,0.0018714928717336043
3217.0,0.001915112063444413
3216.0,0.0018278780605593958
3215.0,0.001609869681952425
3214.0,0.0014791171649619628
3213.0,0.0014355417390583547
3212.0,0.0014791171649619628
3211.0,0.0016534626036355249
3210.0,0.0017842676290416026
3209.0,0.001915112063444413
3208.0,0.0020459959305969555
3207.0,0.002089632653256679
3206.0,0.0021332737608552588
3205.0,0.002089632653256679
3204.0,0.0020023635919956817
3203.0,0.0018714928717336043
3202.0,0.0018278780605593958
3201.0,0.001915112063444413
3200.0,0.0020023635919956817
3199.0,0.002089632653256679
3198.0,0.002089632653256679
3197.0,0.0020459959305969555
3196.0,0.0019587356365717845
3195.0,0.001915112063444413
3194.0,0.0018714928717336043
3193.0,0.0018714928717336043
3192.0,0.001915112063444413
3191.0,0.0019587356365717845
3190.0,0.0019587356365717845
3189.0,0.0019587356365717845
3188.0,0.001915112063444413
3187.0,0.0018714928717336043
3186.0,0.0018278780605593958
3185.0,0.0017842676290416026
3184.0,0.0017842676290416026
3183.0,0.0018278780605593958
3182.0,0.0019587356365717845
3181.0,0.002089632653256679
3180.0,0.0021332737608552588
3179.0,0.0020459959305969555
3178.0,0.001915112063444413
3177.0,0.0017406615763013722
3176.0,0.0016970599014589638
3175.0,0.0016970599014589638
3174.0,0.0017406615763013722
3173.0,0.0018278780605593958
3172.0,0.0018714928717336043
3171.0,0.001915112063444413
3170.0,0.001915112063444413
3169.0,0.0018278780605593958
3168.0,0.0017406615763013722
3167.0,0.0016534626036355249
3166.0,0.0016534626036355249
3165.0,0.0017406615763013722
3164.0,0.0018278780605593958
3163.0,0.001915112063444413
3162.0,0.0019587356365717845
3161.0,0.0019587356365717845
3160.0,0.0019587356365717845
3159.0,0.0019587356365717845
3158.0,0.0018714928717336043
3157.0,0.0017406615763013722
3156.0,0.001609869681952425
3155.0,0.0015662811355310335
3154.0,0.0015662811355310335
3153.0,0.0016534626036355249
3152.0,0.0017406615763013722
3151.0,0.0018278780605593958
3150.0,0.001915112063444413
3149.0,0.0019587356365717845
3148.0,0.0019587356365717845
3147.0,0.0020023635919956817
3146.0,0.0019587356365717845
3145.0,0.0018714928717336043
3144.0,0.0017406615763013722
3143.0,0.0016534626036355249
3142.0,0.0016534626036355249
3141.0,0.0016970599014589638
3140.0,0.0017406615763013722
3139.0,0.0017406615763013722
3138.0,0.0016970599014589638
3137.0,0.001609869681952425
3136.0,0.0015662811355310335
3135.0,0.0014791171649619628
3134.0,0.0014355417390583547
3133.0,0.0013919706849057079
3132.0,0.0014355417390583547
3131.0,0.0015662811355310335
3130.0,0.0016970599014589638
3129.0,0.0017842676290416026
3128.0,0.0017842676290416026
3127.0,0.0017842676290416026
3126.0,0.0017406615763013722
3125.0,0.0016970599014589638
3124.0,0.0016534626036355249
3123.0,0.0015662811355310335
3122.0,0.0015662811355310335
3121.0,0.001609869681952425
3120.0,0.0016970599014589638
3119.0,0.0017842676290416026
3118.0,0.001915112063444413
3117.0,0.0020459959305969555
3116.0,0.0021332737608552588
3115.0,0.0021332737608552588
3114.0,0.002089632653256679
3113.0,0.0020023635919956817
3112.0,0.001915112063444413
3111.0,0.0018714928717336043
3110.0,0.0018714928717336043
3109.0,0.0018714928717336043
3108.0,0.001915112063444413
3107.0,0.001915112063444413
3106.0,0.0019587356365717845
3105.0,0.002089632653256679
3104.0,0.0021769192542746563
3103.0,0.0021332737608552588
3102.0,0.0020459959305969555
3101.0,0.0018714928717336043
3100.0,0.0017842676290416026
3099.0,0.0017842676290416026
3098.0,0.0017842676290416026
3097.0,0.0018278780605593958
3096.0,0.001915112063444413
3095.0,0.0020459959305969555
3094.0,0.0021332737608552588
3093.0,0.0021332737608552588
3092.0,0.002089632653256679
3091.0,0.0020023635919956817
3090.0,0.0020023635919956817
3089.0,0.0020023635919956817
3088.0,0.0020023635919956817
3087.0,0.0020459959305969555
3086.0,0.0021332737608552588
3085.0,0.0021769192542746563
3084.0,0.0022205691343961664
3083.0,0.0022642234021015284
3082.0,0.0023078820582733695
3081.0,0.002351545103793873
3080.0,0.002351545103793873
3079.0,0.002351545103793873
3078.0,0.002395212539545666
3077.0,0.002351545103793873
3076.0,0.0022205691343961664
3075.0,0.002089632653256679
3074.0,0.0020023635919956817
3073.0,0.0019587356365717845
3072.0,0.0020023635919956817
3071.0,0.0020459959305969555
3070.0,0.0021332737608552588
3069.0,0.0022642234021015284
3068.0,0.002395212539545666
3067.0,0.0024388843664115978
3066.0,0.0024388843664115978
3065.0,0.002395212539545666
3064.0,0.0024388843664115978
3063.0,0.002569926202528716
3062.0,0.0027447101798967477
3061.0,0.0028758443407954637
3060.0,0.0030070181092942683
3059.0,0.0030944893043338695
3058.0,0.0031382315093266833
3057.0,0.0031382315093266833
3056.0,0.003050751504618754
3055.0,0.0029195645282691363
3054.0,0.0027447101798967477
3053.0,0.002569926202528716
3052.0,0.002395212539545666
3051.0,0.0023078820582733695
3050.0,0.0022205691343961664
3049.0,0.0022642234021015284
3048.0,0.002351545103793873
3047.0,0.002395212539545666
3046.0,0.002351545103793873
3045.0,0.002351545103793873
3044.0,0.0023078820582733695
3043.0,0.0022642234021015284
3042.0,0.0022642234021015284
3041.0,0.0023078820582733695
3040.0,0.0024388843664115978
3039.0,0.0025262411970197185
3038.0,0.002569926202528716
3037.0,0.002482560585275184
3036.0,0.002395212539545666
3035.0,0.002395212539545666
3034.0,0.002569926202528716
3033.0,0.0027884171674950053
3032.0,0.0030070181092942683
3031.0,0.0033132443998284966
3030.0,0.0035758960449088217
3029.0,0.0038825238627120395
3028.0,0.00401400208620073
3027.0,0.004101676353562844
3026.0,0.004101676353562844
3025.0,0.0040578370074493275
3024.0,0.00401400208620073
3023.0,0.0038825238627120395
3022.0,0.0037510854308679953
3021.0,0.0035758960449088217
3020.0,0.0034007772998332353
3019.0,0.0032694845648473247
3018.0,0.0031819781204844855
3017.0,0.0031382315093266833
3016.0,0.003050751504618754
3015.0,0.0029195645282691363
3014.0,0.0027447101798967477
3013.0,0.002569926202528716
3012.0,0.0024388843664115978
3011.0,0.0023078820582733695
3010.0,0.0022642234021015284
3009.0,0.0023078820582733695
3008.0,0.002351545103793873
3007.0,0.002395212539545666
3006.0,0.002395212539545666
3005.0,0.002351545103793873
3004.0,0.002351545103793873
3003.0,0.002351545103793873
3002.0,0.002351545103793873
3001.0,0.0023078820582733695
3000.0,0.0022642234021015284
2999.0,0.0021769192542746563
2998.0,0.002089632653256679
2997.0,0.0020023635919956817
2996.0,0.0019587356365717845
2995.0,0.0018714928717336043
2994.0,0.0017842676290416026
2993.0,0.0017406615763013722
2992.0,0.0017406615763013722
2991.0,0.0017842676290416026
2990.0,0.0017406615763013722
2989.0,0.0016534626036355249
2988.0,0.0014791171649619628
2987.0,0.001304841688344327
2986.0,0.0012177301682640973
2985.0,0.0012612837441823288
2984.0,0.001304841688344327
2983.0,0.001348404001626502
2982.0,0.0013919706849057079
2981.0,0.0013919706849057079
2980.0,0.0014355417390583547
2979.0,0.0014791171649619628
2978.0,0.0015226969634936083
2977.0,0.0015226969634936083
2976.0,0.0015226969634936083
2975.0,0.0014791171649619628
2974.0,0.0014355417390583547
2973.0,0.0014791171649619628
2972.0,0.0015226969634936083
2971.0,0.0015662811355310335
2970.0,0.0015662811355310335
2969.0,0.0014791171649619628
2968.0,0.0013919706849057079
2967.0,0.001304841688344327
2966.0,0.001304841688344327
2965.0,0.001348404001626502
2964.0,0.0014355417390583547
2963.0,0.0015226969634936083
2962.0,0.0015662811355310335
2961.0,0.0015662811355310335
2960.0,0.0015662811355310335
2959.0,0.0015662811355310335
2958.0,0.001609869681952425
2957.0,0.0016970599014589638
2956.0,0.0018278780605593958
2955.0,0.0018714928717336043
2954.0,0.0018714928717336043
2953.0,0.0018278780605593958
2952.0,0.0018714928717336043
2951.0,0.0019587356365717845
2950.0,0.0020023635919956817
2949.0,0.0020459959305969555
2948.0,0.0020459959305969555
2947.0,0.002089632653256679
2946.0,0.0021332737608552588
2945.0,0.0022205691343961664
2944.0,0.0023078820582733695
2943.0,0.002351545103793873
2942.0,0.002351545103793873
2941.0,0.002351545103793873
2940.0,0.0024388843664115978
2939.0,0.002613615602686581
2938.0,0.0028321285541661467
2937.0,0.003050751504618754
2936.0,0.0032257291386954545
2935.0,0.0033132443998284966
2934.0,0.0034007772998332353
2933.0,0.003488327845821315
2932.0,0.0035758960449088217
2931.0,0.0037510854308679953
2930.0,0.0038825238627120395
2929.0,0.004101676353562844
2928.0,0.004277078004534696
2927.0,0.004452550524862486
2926.0,0.004628093971837721
2925.0,0.004759798137184523
2924.0,0.004803708402820517
2923.0,0.004759798137184523
2922.0,0.004715892310740433
2921.0,0.004671990922590297
2920.0,0.004671990922590297
2919.0,0.004628093971837721
2918.0,0.004628093971837721
2917.0,0.004628093971837721
2916.0,0.004671990922590297
2915.0,0.004628093971837721
2914.0,0.00458420145758498
2913.0,0.0044964297349936455
2912.0,0.004452550524862486
2911.0,0.0043648054024501
2910.0,0.004277078004534696
2909.0,0.004189368323957332
2908.0,0.004101676353562844
2907.0,0.00401400208620073
2906.0,0.0038825238627120395
2905.0,0.003707281458678491
2904.0,0.003619686766589858
2903.0,0.003619686766589858
2902.0,0.0036634819042162814
2901.0,0.0036634819042162814
2900.0,0.003619686766589858
2899.0,0.0035321097382827737
2898.0,0.0034445503666347133
2897.0,0.0034007772998332353
2896.0,0.0033132443998284966
2895.0,0.0032694845648473247
2894.0,0.0033132443998284966
2893.0,0.0033570086445275926
2892.0,0.0034007772998332353
2891.0,0.0034007772998332353
2890.0,0.0033132443998284966
2889.0,0.0032257291386954545
2888.0,0.0031382315093266833
2887.0,0.0030070181092942683
2886.0,0.0029632891174733444
2885.0,0.0030070181092942683
2884.0,0.003050751504618754
2883.0,0.0030944893043338695
2882.0,0.0030944893043338695
2881.0,0.0031382315093266833
2880.0,0.0031819781204844855
2879.0,0.0032257291386954545
2878.0,0.0031819781204844855
2877.0,0.003050751504618754
2876.0,0.0029195645282691363
2875.0,0.0028321285541661467
2874.0,0.0027884171674950053
2873.0,0.0028321285541661467
2872.0,0.0028321285541661467
2871.0,0.0028321285541661467
2870.0,0.0027884171674950053
2869.0,0.0028321285541661467
2868.0,0.0028758443407954637
2867.0,0.0029195645282691363
2866.0,0.0028758443407954637
2865.0,0.0028758443407954637
2864.0,0.0028321285541661467
2863.0,0.0028321285541661467
2862.0,0.0028758443407954637
2861.0,0.0029195645282691363
2860.0,0.0030070181092942683
2859.0,0.0030944893043338695
2858.0,0.0032257291386954545
2857.0,0.0033132443998284966
2856.0,0.0034007772998332353
2855.0,0.0035321097382827737
2854.0,0.003619686766589858
2853.0,0.003707281458678491
2852.0,0.0037510854308679953
2851.0,0.003794893821675638
2850.0,0.0038825238627120395
2849.0,0.003926345514724705
2848.0,0.003970171588923321
2847.0,0.003926345514724705
2846.0,0.0038825238627120395
2845.0,0.003794893821675638
2844.0,0.003794893821675638
2843.0,0.0037510854308679953
2842.0,0.003794893821675638
2841.0,0.003794893821675638
2840.0,0.0038387066319929275
2839.0,0.003794893821675638
2838.0,0.003707281458678491
2837.0,0.0035758960449088217
2836.0,0.0034007772998332353
2835.0,0.0033132443998284966
2834.0,0.0032257291386954545
2833.0,0.0031819781204844855
2832.0,0.0031819781204844855
2831.0,0.0030944893043338695
2830.0,0.003050751504618754
2829.0,0.0030070181092942683
2828.0,0.003050751504618754
2827.0,0.0030944893043338695
2826.0,0.0030944893043338695
2825.0,0.0030944893043338695
2824.0,0.003050751504618754
2823.0,0.0030070181092942683
2822.0,0.0030070181092942683
2821.0,0.0030070181092942683
2820.0,0.0030070181092942683
2819.0,0.0029632891174733444
2818.0,0.0028758443407954637
2817.0,0.0027447101798967477
2816.0,0.0026573093983774942
2815.0,0.0026573093983774942
2814.0,0.002701007590486082
2813.0,0.0027884171674950053
2812.0,0.0029195645282691363
2811.0,0.0030070181092942683
2810.0,0.003050751504618754
2809.0,0.0030944893043338695
2808.0,0.0030944893043338695
2807.0,0.0030944893043338695
2806.0,0.003050751504618754
2805.0,0.0030070181092942683
2804.0,0.0030070181092942683
2803.0,0.0030070181092942683
2802.0,0.0030070181092942683
2801.0,0.0029632891174733444
2800.0,0.0029632891174733444
2799.0,0.0029195645282691363
2798.0,0.0029632891174733444
2797.0,0.0030070181092942683
2796.0,0.003050751504618754
2795.0,0.0029632891174733444
2794.0,0.0029195645282691363
2793.0,0.0028758443407954637
2792.0,0.0028758443407954637
2791.0,0.0028758443407954637
2790.0,0.0028321285541661467
2789.0,0.0027884171674950053
2788.0,0.002701007590486082
2787.0,0.002701007590486082
2786.0,0.0026573093983774942
2785.0,0.002701007590486082
2784.0,0.002701007590486082
2783.0,0.0027447101798967477
2782.0,0.0028321285541661467
2781.0,0.0028758443407954637
2780.0,0.0029195645282691363
2779.0,0.0029195645282691363
2778.0,0.0029195645282691363
2777.0,0.0029195645282691363
2776.0,0.0029195645282691363
2775.0,0.0028758443407954637
2774.0,0.0028758443407954637
2773.0,0.0028321285541661467
2772.0,0.0027447101798967477
2771.0,0.0026573093983774942
2770.0,0.002569926202528716
2769.0,0.0025262411970197185
2768.0,0.0025262411970197185
2767.0,0.002613615602686581
2766.0,0.002701007590486082
2765.0,0.0028758443407954637
2764.0,0.0030070181092942683
2763.0,0.0030944893043338695
2762.0,0.003050751504618754
2761.0,0.003050751504618754
2760.0,0.0030070181092942683
2759.0,0.003050751504618754
2758.0,0.0030944893043338695
2757.0,0.0031382315093266833
2756.0,0.0031382315093266833
2755.0,0.003050751504618754
2754.0,0.0029195645282691363
2753.0,0.0027884171674950053
2752.0,0.0027447101798967477
2751.0,0.0027447101798967477
2750.0,0.0027884171674950053
2749.0,0.0028321285541661467
2748.0,0.0028321285541661467
2747.0,0.0027884171674950053
2746.0,0.002701007590486082
2745.0,0.002613615602686581
2744.0,0.0025262411970197185
2743.0,0.0025262411970197185
2742.0,0.002569926202528716
2741.0,0.002613615602686581
2740.0,0.002613615602686581
2739.0,0.002613615602686581
2738.0,0.0026573093983774942
2737.0,0.002701007590486082
2736.0,0.0027447101798967477
2735.0,0.0027447101798967477
2734.0,0.0027884171674950053
2733.0,0.0028321285541661467
2732.0,0.0028758443407954637
2731.0,0.0029195645282691363
2730.0,0.0028758443407954637
2729.0,0.0028321285541661467
2728.0,0.0027447101798967477
2727.0,0.002701007590486082
2726.0,0.002701007590486082
2725.0,0.002701007590486082
2724.0,0.0026573093983774942
2723.0,0.002613615602686581
2722.0,0.002569926202528716
2721.0,0.002613615602686581
2720.0,0.002701007590486082
2719.0,0.0027884171674950053
2718.0,0.0027884171674950053
2717.0,0.0027447101798967477
2716.0,0.002701007590486082
2715.0,0.002569926202528716
2714.0,0.002482560585275184
2713.0,0.0024388843664115978
2712.0,0.0024388843664115978
2711.0,0.002569926202528716
2710.0,0.002701007590486082
2709.0,0.0027447101798967477
2708.0,0.0027447101798967477
2707.0,0.002701007590486082
2706.0,0.0026573093983774942
2705.0,0.002613615602686581
2704.0,0.002569926202528716
2703.0,0.0026573093983774942
2702.0,0.002701007590486082
2701.0,0.0027884171674950053
2700.0,0.0028321285541661467
2699.0,0.0028321285541661467
2698.0,0.0028321285541661467
2697.0,0.0028321285541661467
2696.0,0.0027447101798967477
2695.0,0.002701007590486082
2694.0,0.002701007590486082
2693.0,0.0027447101798967477
2692.0,0.0027884171674950053
2691.0,0.0027884171674950053
2690.0,0.0027447101798967477
2689.0,0.0026573093983774942
2688.0,0.002613615602686581
2687.0,0.002613615602686581
2686.0,0.002613615602686581
2685.0,0.002613615602686581
2684.0,0.002613615602686581
2683.0,0.0025262411970197185
2682.0,0.0024388843664115978
2681.0,0.002395212539545666
2680.0,0.0024388843664115978
2679.0,0.002569926202528716
2678.0,0.002701007590486082
2677.0,0.0027447101798967477
2676.0,0.0027447101798967477
2675.0,0.0027447101798967477
2674.0,0.0026573093983774942
2673.0,0.002569926202528716
2672.0,0.002482560585275184
2671.0,0.0024388843664115978
2670.0,0.0025262411970197185
2669.0,0.002613615602686581
2668.0,0.0026573093983774942
2667.0,0.002701007590486082
2666.0,0.002701007590486082
2665.0,0.0026573093983774942
2664.0,0.0026573093983774942
2663.0,0.0026573093983774942
2662.0,0.002701007590486082
2661.0,0.002701007590486082
2660.0,0.002701007590486082
2659.0,0.002701007590486082
2658.0,0.0026573093983774942
2657.0,0.0026573093983774942
2656.0,0.002613615602686581
2655.0,0.002613615602686581
2654.0,0.002569926202528716
2653.0,0.0025262411970197185
2652.0,0.002482560585275184
2651.0,0.002482560585275184
2650.0,0.002482560585275184
2649.0,0.002482560585275184
2648.0,0.0024388843664115978
2647.0,0.0024388843664115978
2646.0,0.002482560585275184
2645.0,0.0025262411970197185
2644.0,0.0025262411970197185
2643.0,0.0025262411970197185
2642.0,0.0025262411970197185
2641.0,0.002569926202528716
2640.0,0.0025262411970197185
2639.0,0.0024388843664115978
2638.0,0.002351545103793873
2637.0,0.0023078820582733695
2636.0,0.002395212539545666
2635.0,0.0025262411970197185
2634.0,0.0026573093983774942
2633.0,0.002701007590486082
2632.0,0.002701007590486082
2631.0,0.002613615602686581
2630.0,0.0025262411970197185
2629.0,0.002482560585275184
2628.0,0.002482560585275184
2627.0,0.0025262411970197185
2626.0,0.002569926202528716
2625.0,0.002613615602686581
2624.0,0.002569926202528716
2623.0,0.0025262411970197185
2622.0,0.002482560585275184
2621.0,0.0024388843664115978
2620.0,0.002395212539545666
2619.0,0.002395212539545666
2618.0,0.002351545103793873
2617.0,0.002351545103793873
2616.0,0.002351545103793873
2615.0,0.002395212539545666
2614.0,0.0024388843664115978
2613.0,0.002482560585275184
2612.0,0.002482560585275184
2611.0,0.0025262411970197185
2610.0,0.002569926202528716
2609.0,0.002569926202528716
2608.0,0.002569926202528716
2607.0,0.002569926202528716
2606.0,0.0025262411970197185
2605.0,0.002482560585275184
2604.0,0.002482560585275184
2603.0,0.002482560585275184
2602.0,0.002482560585275184
2601.0,0.002482560585275184
2600.0,0.002482560585275184
2599.0,0.002482560585275184
2598.0,0.002482560585275184
2597.0,0.002482560585275184
2596.0,0.002482560585275184
2595.0,0.0025262411970197185
2594.0,0.0025262411970197185
2593.0,0.002482560585275184
2592.0,0.0024388843664115978
2591.0,0.002395212539545666
2590.0,0.002351545103793873
2589.0,0.0022642234021015284
2588.0,0.0022642234021015284
2587.0,0.0023078820582733695
2586.0,0.002395212539545666
2585.0,0.0024388843664115978
2584.0,0.002482560585275184
2583.0,0.002482560585275184
2582.0,0.002482560585275184
2581.0,0.0024388843664115978
2580.0,0.002395212539545666
2579.0,0.0024388843664115978
2578.0,0.0024388843664115978
2577.0,0.002482560585275184
2576.0,0.0024388843664115978
2575.0,0.002395212539545666
2574.0,0.0023078820582733695
2573.0,0.0022642234021015284
2572.0,0.0023078820582733695
2571.0,0.002395212539545666
2570.0,0.0025262411970197185
2569.0,0.002613615602686581
2568.0,0.002613615602686581
2567.0,0.002613615602686581
2566.0,0.002613615602686581
2565.0,0.0026573093983774942
2564.0,0.002613615602686581
2563.0,0.0025262411970197185
2562.0,0.002395212539545666
2561.0,0.0022642234021015284
2560.0,0.0022205691343961664
2559.0,0.0022642234021015284
2558.0,0.0023078820582733695
2557.0,0.002395212539545666
2556.0,0.002482560585275184
2555.0,0.0025262411970197185
2554.0,0.0025262411970197185
2553.0,0.002482560585275184
2552.0,0.002482560585275184
2551.0,0.002482560585275184
2550.0,0.002482560585275184
2549.0,0.0024388843664115978
2548.0,0.0024388843664115978
2547.0,0.0024388843664115978
2546.0,0.0024388843664115978
2545.0,0.0024388843664115978
2544.0,0.002395212539545666
2543.0,0.002395212539545666
2542.0,0.002395212539545666
2541.0,0.0024388843664115978
2540.0,0.0024388843664115978
2539.0,0.0025262411970197185
2538.0,0.002569926202528716
2537.0,0.002569926202528716
2536.0,0.002569926202528716
2535.0,0.0025262411970197185
2534.0,0.002482560585275184
2533.0,0.0024388843664115978
2532.0,0.0024388843664115978
2531.0,0.002482560585275184
2530.0,0.0025262411970197185
2529.0,0.0025262411970197185
2528.0,0.0024388843664115978
2527.0,0.002351545103793873
2526.0,0.002351545103793873
2525.0,0.002395212539545666
2524.0,0.002482560585275184
2523.0,0.0025262411970197185
2522.0,0.0025262411970197185
2521.0,0.002569926202528716
2520.0,0.002569926202528716
2519.0,0.0025262411970197185
2518.0,0.002482560585275184
2517.0,0.0024388843664115978
2516.0,0.002351545103793873
2515.0,0.0023078820582733695
2514.0,0.0023078820582733695
2513.0,0.0023078820582733695
2512.0,0.0023078820582733695
2511.0,0.002351545103793873
2510.0,0.002351545103793873
2509.0,0.002351545103793873
2508.0,0.002351545103793873
2507.0,0.0023078820582733695
2506.0,0.0023078820582733695
2505.0,0.002351545103793873
2504.0,0.002351545103793873
2503.0,0.002351545103793873
2502.0,0.002351545103793873
2501.0,0.002351545103793873
2500.0,0.002351545103793873
2499.0,0.002395212539545666
2498.0,0.002482560585275184
2497.0,0.002569926202528716
2496.0,0.002613615602686581
2495.0,0.0025262411970197185
2494.0,0.0024388843664115978
2493.0,0.002351545103793873
2492.0,0.0023078820582733695
2491.0,0.0023078820582733695
2490.0,0.0023078820582733695
2489.0,0.0022642234021015284
2488.0,0.0022642234021015284
2487.0,0.0023078820582733695
2486.0,0.002351545103793873
2485.0,0.0024388843664115978
2484.0,0.002482560585275184
2483.0,0.002482560585275184
2482.0,0.002395212539545666
2481.0,0.002395212539545666
2480.0,0.002395212539545666
2479.0,0.002482560585275184
2478.0,0.0025262411970197185
2477.0,0.0025262411970197185
2476.0,0.002482560585275184
2475.0,0.002395212539545666
2474.0,0.0023078820582733695
2473.0,0.0022642234021015284
2472.0,0.0022205691343961664
2471.0,0.0021769192542746563
2470.0,0.0021769192542746563
2469.0,0.0021769192542746563
2468.0,0.0022205691343961664
2467.0,0.0022642234021015284
2466.0,0.0023078820582733695
2465.0,0.0023078820582733695
2464.0,0.0022642234021015284
2463.0,0.0021769192542746563
2462.0,0.0021332737608552588
2461.0,0.0021332737608552588
2460.0,0.0021769192542746563
2459.0,0.0021769192542746563
2458.0,0.0021769192542746563
2457.0,0.0021332737608552588
2456.0,0.0021332737608552588
2455.0,0.002089632653256679
2454.0,0.0021332737608552588
2453.0,0.0021769192542746563
2452.0,0.0021769192542746563
2451.0,0.0022205691343961664
2450.0,0.0022642234021015284
2449.0,0.0023078820582733695
2448.0,0.0022642234021015284
2447.0,0.0022642234021015284
2446.0,0.0022205691343961664
2445.0,0.0022205691343961664
2444.0,0.0022205691343961664
2443.0,0.0022642234021015284
2442.0,0.0022642234021015284
2441.0,0.0023078820582733695
2440.0,0.0022642234021015284
2439.0,0.0021769192542746563
2438.0,0.0021332737608552588
2437.0,0.002089632653256679
2436.0,0.0021769192542746563
2435.0,0.0022205691343961664
2434.0,0.0022642234021015284
2433.0,0.0022642234021015284
2432.0,0.0021769192542746563
2431.0,0.002089632653256679
2430.0,0.0020459959305969555
2429.0,0.002089632653256679
2428.0,0.0021769192542746563
2427.0,0.0022642234021015284
2426.0,0.0023078820582733695
2425.0,0.002351545103793873
2424.0,0.0023078820582733695
2423.0,0.0022205691343961664
2422.0,0.0021332737608552588
2421.0,0.0021332737608552588
2420.0,0.0021769192542746563
2419.0,0.0022205691343961664
2418.0,0.0022205691343961664
2417.0,0.0022205691343961664
2416.0,0.0022205691343961664
2415.0,0.0021769192542746563
2414.0,0.0021332737608552588
2413.0,0.0021332737608552588
2412.0,0.0021769192542746563
2411.0,0.0022642234021015284
2410.0,0.0022642234021015284
2409.0,0.0022642234021015284
2408.0,0.0022642234021015284
2407.0,0.0022642234021015284
2406.0,0.0022205691343961664
2405.0,0.0022205691343961664
2404.0,0.0022642234021015284
2403.0,0.0023078820582733695
2402.0,0.002395212539545666
2401.0,0.002482560585275184
2400.0,0.002482560585275184
2399.0,0.0025262411970197185
2398.0,0.002482560585275184
2397.0,0.002395212539545666
2396.0,0.0023078820582733695
2395.0,0.0021769192542746563
2394.0,0.0021769192542746563
2393.0,0.0022205691343961664
2392.0,0.0022642234021015284
2391.0,0.0023078820582733695
2390.0,0.002351545103793873
2389.0,0.002351545103793873
2388.0,0.0023078820582733695
2387.0,0.0023078820582733695
2386.0,0.0022642234021015284
2385.0,0.0022642234021015284
2384.0,0.0022642234021015284
2383.0,0.0023078820582733695
2382.0,0.002351545103793873
2381.0,0.002351545103793873
2380.0,0.0023078820582733695
2379.0,0.0022642234021015284
2378.0,0.0021769192542746563
2377.0,0.0021769192542746563
2376.0,0.0021769192542746563
2375.0,0.0022205691343961664
2374.0,0.0021332737608552588
2373.0,0.002089632653256679
2372.0,0.002089632653256679
2371.0,0.0021332737608552588
2370.0,0.0022205691343961664
2369.0,0.0023078820582733695
2368.0,0.002482560585275184
2367.0,0.0026573093983774942
2366.0,0.0027447101798967477
2365.0,0.0027447101798967477
2364.0,0.0026573093983774942
2363.0,0.002569926202528716
2362.0,0.002482560585275184
2361.0,0.002351545103793873
2360.0,0.0021332737608552588
2359.0,0.0015662811355310335
2358.0,0.0007824344698965646
2357.0,0.00021720154586435392
2356.0,0.0003910410285830057
2355.0,0.0010870956412141197
2354.0,0.0018278780605593958
2353.0,0.002089632653256679
2352.0,0.002089632653256679
2351.0,0.002089632653256679
2350.0,0.0021332737608552588
2349.0,0.002089632653256679
2348.0,0.0018278780605593958
2347.0,0.0016534626036355249
2346.0,0.0020459959305969555
2345.0,0.0029632891174733444
2344.0,0.0037510854308679953
2343.0,0.0035758960449088217
2342.0,0.0027884171674950053
2341.0,0.0020023635919956817
2340.0,0.0015226969634936083
2339.0,0.0011306361176557367
2338.0,0.0008259444115150671
2337.0,0.000869458712629001
2336.0,0.0015662811355310335
2335.0,0.002482560585275184
2334.0,0.0031382315093266833
2333.0,0.0031819781204844855
2332.0,0.0028321285541661467
2331.0,0.002395212539545666
2330.0,0.0021332737608552588
2329.0,0.0020023635919956817
2328.0,0.0020023635919956817
2327.0,0.002089632653256679
2326.0,0.0021332737608552588
2325.0,0.0020023635919956817
2324.0,0.0017406615763013722
2323.0,0.0015662811355310335
2322.0,0.0016970599014589638
2321.0,0.002089632653256679
2320.0,0.002395212539545666
2319.0,0.002482560585275184
2318.0,0.002395212539545666
2317.0,0.0023078820582733695
2316.0,0.0022642234021015284
2315.0,0.0023078820582733695
2314.0,0.0022642234021015284
2313.0,0.0022205691343961664
2312.0,0.0022205691343961664
2311.0,0.0023078820582733695
2310.0,0.0024388843664115978
2309.0,0.0025262411970197185
2308.0,0.0025262411970197185
2307.0,0.0025262411970197185
2306.0,0.0024388843664115978
2305.0,0.002351545103793873
2304.0,0.0022642234021015284
2303.0,0.0022642234021015284
2302.0,0.0023078820582733695
2301.0,0.002351545103793873
2300.0,0.002351545103793873
2299.0,0.002351545103793873
2298.0,0.002395212539545666
2297.0,0.002395212539545666
2296.0,0.002395212539545666
2295.0,0.002351545103793873
2294.0,0.0023078820582733695
2293.0,0.0023078820582733695
2292.0,0.002351545103793873
2291.0,0.002395212539545666
2290.0,0.002395212539545666
2289.0,0.002395212539545666
2288.0,0.0023078820582733695
2287.0,0.0022642234021015284
2286.0,0.0022642234021015284
2285.0,0.0022642234021015284
2284.0,0.0022642234021015284
2283.0,0.0022205691343961664
2282.0,0.0021769192542746563
2281.0,0.0021332737608552588
2280.0,0.0021332737608552588
2279.0,0.0021332737608552588
2278.0,0.002089632653256679
2277.0,0.0020459959305969555
2276.0,0.0020023635919956817
2275.0,0.0020023635919956817
2274.0,0.0020459959305969555
2273.0,0.0020023635919956817
2272.0,0.0020023635919956817
2271.0,0.0019587356365717845
2270.0,0.0019587356365717845
2269.0,0.0020023635919956817
2268.0,0.0020459959305969555
2267.0,0.002089632653256679
2266.0,0.0021332737608552588
2265.0,0.0021332737608552588
2264.0,0.0021769192542746563
2263.0,0.0021769192542746563
2262.0,0.0021769192542746563
2261.0,0.0021332737608552588
2260.0,0.0021332737608552588
2259.0,0.0021769192542746563
2258.0,0.0022642234021015284
2257.0,0.002351545103793873
2256.0,0.002351545103793873
2255.0,0.002351545103793873
2254.0,0.0023078820582733695
2253.0,0.0023078820582733695
2252.0,0.002351545103793873
2251.0,0.002395212539545666
2250.0,0.002395212539545666
2249.0,0.0023078820582733695
2248.0,0.0022642234021015284
2247.0,0.0022642234021015284
2246.0,0.0023078820582733695
2245.0,0.0023078820582733695
2244.0,0.0023078820582733695
2243.0,0.0023078820582733695
2242.0,0.0023078820582733695
2241.0,0.002351545103793873
2240.0,0.002351545103793873
2239.0,0.0023078820582733695
2238.0,0.0022205691343961664
2237.0,0.0021332737608552588
2236.0,0.002089632653256679
2235.0,0.0021332737608552588
2234.0,0.0022205691343961664
2233.0,0.0022205691343961664
2232.0,0.0022205691343961664
2231.0,0.0021769192542746563
2230.0,0.0021769192542746563
2229.0,0.0022205691343961664
2228.0,0.0022642234021015284
2227.0,0.0022205691343961664
2226.0,0.0021769192542746563
2225.0,0.0021769192542746563
2224.0,0.0021769192542746563
2223.0,0.0022205691343961664
2222.0,0.0022205691343961664
2221.0,0.0022205691343961664
2220.0,0.0022205691343961664
2219.0,0.0022642234021015284
2218.0,0.0023078820582733695
2217.0,0.0023078820582733695
2216.0,0.002351545103793873
2215.0,0.002395212539545666
2214.0,0.002395212539545666
2213.0,0.002395212539545666
2212.0,0.0023078820582733695
2211.0,0.0022205691343961664
2210.0,0.0021332737608552588
2209.0,0.0020459959305969555
2208.0,0.0020023635919956817
2207.0,0.0020459959305969555
2206.0,0.0021332737608552588
2205.0,0.0022205691343961664
2204.0,0.0022205691343961664
2203.0,0.0022642234021015284
2202.0,0.0022642234021015284
2201.0,0.0023078820582733695
2200.0,0.0022642234021015284
2199.0,0.0021769192542746563
2198.0,0.0021332737608552588
2197.0,0.002089632653256679
2196.0,0.0021332737608552588
2195.0,0.0021769192542746563
2194.0,0.0022205691343961664
2193.0,0.0022205691343961664
2192.0,0.0022205691343961664
2191.0,0.0022205691343961664
2190.0,0.0022205691343961664
2189.0,0.0023078820582733695
2188.0,0.0023078820582733695
2187.0,0.0023078820582733695
2186.0,0.002351545103793873
2185.0,0.002351545103793873
2184.0,0.002351545103793873
2183.0,0.002351545103793873
2182.0,0.002351545103793873
2181.0,0.002351545103793873
2180.0,0.002351545103793873
2179.0,0.0023078820582733695
2178.0,0.0023078820582733695
2177.0,0.0023078820582733695
2176.0,0.0023078820582733695
2175.0,0.0023078820582733695
2174.0,0.0022642234021015284
2173.0,0.0022205691343961664
2172.0,0.0022205691343961664
2171.0,0.0022205691343961664
2170.0,0.0022642234021015284
2169.0,0.0022642234021015284
2168.0,0.0023078820582733695
2167.0,0.002351545103793873
2166.0,0.002351545103793873
2165.0,0.002395212539545666
2164.0,0.002395212539545666
2163.0,0.002351545103793873
2162.0,0.0023078820582733695
2161.0,0.0022642234021015284
2160.0,0.0022205691343961664
2159.0,0.0022205691343961664
2158.0,0.0022205691343961664
2157.0,0.0021769192542746563
2156.0,0.0021769192542746563
2155.0,0.0021332737608552588
2154.0,0.0021769192542746563
2153.0,0.0022205691343961664
2152.0,0.0023078820582733695
2151.0,0.002351545103793873
2150.0,0.002351545103793873
2149.0,0.002351545103793873
2148.0,0.002351545103793873
2147.0,0.002351545103793873
2146.0,0.0023078820582733695
2145.0,0.0023078820582733695
2144.0,0.0023078820582733695
2143.0,0.002351545103793873
2142.0,0.0024388843664115978
2141.0,0.002482560585275184
2140.0,0.002482560585275184
2139.0,0.0025262411970197185
2138.0,0.0025262411970197185
2137.0,0.002482560585275184
2136.0,0.002482560585275184
2135.0,0.0024388843664115978
2134.0,0.002351545103793873
2133.0,0.0023078820582733695
2132.0,0.002351545103793873
2131.0,0.0024388843664115978
2130.0,0.0025262411970197185
2129.0,0.002569926202528716
2128.0,0.002482560585275184
2127.0,0.002351545103793873
2126.0,0.0022642234021015284
2125.0,0.0023078820582733695
2124.0,0.002351545103793873
2123.0,0.0024388843664115978
2122.0,0.0025262411970197185
2121.0,0.0025262411970197185
2120.0,0.002482560585275184
2119.0,0.0024388843664115978
2118.0,0.0024388843664115978
2117.0,0.002482560585275184
2116.0,0.0025262411970197185
2115.0,0.0025262411970197185
2114.0,0.002569926202528716
2113.0,0.002569926202528716
2112.0,0.002569926202528716
2111.0,0.002569926202528716
2110.0,0.002569926202528716
2109.0,0.002569926202528716
2108.0,0.002569926202528716
2107.0,0.002569926202528716
2106.0,0.0025262411970197185
2105.0,0.002482560585275184
2104.0,0.0025262411970197185
2103.0,0.002613615602686581
2102.0,0.0027447101798967477
2101.0,0.0027884171674950053
2100.0,0.0027884171674950053
2099.0,0.002701007590486082
2098.0,0.002613615602686581
2097.0,0.0025262411970197185
2096.0,0.002482560585275184
2095.0,0.0025262411970197185
2094.0,0.002613615602686581
2093.0,0.002613615602686581
2092.0,0.002613615602686581
2091.0,0.0025262411970197185
2090.0,0.002482560585275184
2089.0,0.002482560585275184
2088.0,0.002482560585275184
2087.0,0.002482560585275184
2086.0,0.002482560585275184
2085.0,0.0024388843664115978
2084.0,0.002395212539545666
2083.0,0.0023078820582733695
2082.0,0.0023078820582733695
2081.0,0.002351545103793873
2080.0,0.002482560585275184
2079.0,0.002569926202528716
2078.0,0.0026573093983774942
2077.0,0.0026573093983774942
2076.0,0.002613615602686581
2075.0,0.0025262411970197185
2074.0,0.0025262411970197185
2073.0,0.0025262411970197185
2072.0,0.002613615602686581
2071.0,0.0026573093983774942
2070.0,0.002701007590486082
2069.0,0.002701007590486082
2068.0,0.002613615602686581
2067.0,0.002569926202528716
2066.0,0.002569926202528716
2065.0,0.002613615602686581
2064.0,0.0026573093983774942
2063.0,0.002701007590486082
2062.0,0.0027447101798967477
2061.0,0.0027884171674950053
2060.0,0.0027884171674950053
2059.0,0.0027884171674950053
2058.0,0.0027447101798967477
2057.0,0.0026573093983774942
2056.0,0.0026573093983774942
2055.0,0.002701007590486082
2054.0,0.0027884171674950053
2053.0,0.0028321285541661467
2052.0,0.0028321285541661467
2051.0,0.0027884171674950053
2050.0,0.0027447101798967477
2049.0,0.0027447101798967477
2048.0,0.0027447101798967477
2047.0,0.0027884171674950053
2046.0,0.0027884171674950053
2045.0,0.0027447101798967477
2044.0,0.0027447101798967477
2043.0,0.002701007590486082
2042.0,0.002701007590486082
2041.0,0.0027447101798967477
2040.0,0.0027447101798967477
2039.0,0.002701007590486082
2038.0,0.002701007590486082
2037.0,0.002701007590486082
2036.0,0.002701007590486082
2035.0,0.002701007590486082
2034.0,0.0026573093983774942
2033.0,0.002613615602686581
2032.0,0.002613615602686581
2031.0,0.002701007590486082
2030.0,0.0028321285541661467
2029.0,0.0029195645282691363
2028.0,0.0030070181092942683
2027.0,0.0029632891174733444
2026.0,0.0028758443407954637
2025.0,0.0027447101798967477
2024.0,0.0026573093983774942
2023.0,0.002613615602686581
2022.0,0.0026573093983774942
2021.0,0.002701007590486082
2020.0,0.0027447101798967477
2019.0,0.0027447101798967477
2018.0,0.0027447101798967477
2017.0,0.0027884171674950053
2016.0,0.0027884171674950053
2015.0,0.0027884171674950053
2014.0,0.0028321285541661467
2013.0,0.0028758443407954637
2012.0,0.0028758443407954637
2011.0,0.0028758443407954637
2010.0,0.0027884171674950053
2009.0,0.002701007590486082
2008.0,0.002701007590486082
2007.0,0.0027447101798967477
2006.0,0.0028321285541661467
2005.0,0.0028758443407954637
2004.0,0.0029195645282691363
2003.0,0.0029195645282691363
2002.0,0.0029195645282691363
2001.0,0.0028758443407954637
2000.0,0.0027884171674950053
1999.0,0.0027447101798967477
1998.0,0.002701007590486082
1997.0,0.0026573093983774942
1996.0,0.0026573093983774942
1995.0,0.0026573093983774942
1994.0,0.002613615602686581
1993.0,0.002613615602686581
1992.0,0.002613615602686581
1991.0,0.002613615602686581
1990.0,0.002701007590486082
1989.0,0.0027884171674950053
1988.0,0.0028758443407954637
1987.0,0.0029195645282691363
1986.0,0.0028758443407954637
1985.0,0.0028321285541661467
1984.0,0.0028321285541661467
1983.0,0.0028321285541661467
1982.0,0.0028758443407954637
1981.0,0.0029195645282691363
1980.0,0.0029632891174733444
1979.0,0.0029195645282691363
1978.0,0.0028758443407954637
1977.0,0.0028321285541661467
1976.0,0.0028321285541661467
1975.0,0.0028758443407954637
1974.0,0.0029195645282691363
1973.0,0.0029632891174733444
1972.0,0.0029195645282691363
1971.0,0.0028758443407954637
1970.0,0.0028321285541661467
1969.0,0.0027884171674950053
1968.0,0.0027884171674950053
1967.0,0.0028321285541661467
1966.0,0.0028758443407954637
1965.0,0.0029632891174733444
1964.0,0.0030070181092942683
1963.0,0.003050751504618754
1962.0,0.0030944893043338695
1961.0,0.0030944893043338695
1960.0,0.0031382315093266833
1959.0,0.0031819781204844855
1958.0,0.0032694845648473247
1957.0,0.0033132443998284966
1956.0,0.0032694845648473247
1955.0,0.0032694845648473247
1954.0,0.0032257291386954545
1953.0,0.0032694845648473247
1952.0,0.0033132443998284966
1951.0,0.0033570086445275926
1950.0,0.0033132443998284966
1949.0,0.0033132443998284966
1948.0,0.0033132443998284966
1947.0,0.0033570086445275926
1946.0,0.0034445503666347133
1945.0,0.0035758960449088217
1944.0,0.003619686766589858
1943.0,0.003619686766589858
1942.0,0.003619686766589858
1941.0,0.003619686766589858
1940.0,0.0035758960449088217
1939.0,0.0035758960449088217
1938.0,0.0035321097382827737
1937.0,0.0035321097382827737
1936.0,0.003488327845821315
1935.0,0.0034445503666347133
1934.0,0.0034007772998332353
1933.0,0.0033570086445275926
1932.0,0.0033570086445275926
1931.0,0.0034007772998332353
1930.0,0.0034007772998332353
1929.0,0.0034007772998332353
1928.0,0.0034007772998332353
1927.0,0.0034007772998332353
1926.0,0.0033570086445275926
1925.0,0.0033132443998284966
1924.0,0.0033132443998284966
1923.0,0.0032694845648473247
1922.0,0.0032694845648473247
1921.0,0.0032694845648473247
1920.0,0.0032694845648473247
1919.0,0.0033132443998284966
1918.0,0.0033132443998284966
1917.0,0.0033132443998284966
1916.0,0.0032694845648473247
1915.0,0.0032694845648473247
1914.0,0.0033132443998284966
1913.0,0.0033132443998284966
1912.0,0.0033132443998284966
1911.0,0.0032694845648473247
1910.0,0.0032257291386954545
1909.0,0.0031819781204844855
1908.0,0.0032257291386954545
1907.0,0.0032257291386954545
1906.0,0.0032694845648473247
1905.0,0.0033132443998284966
1904.0,0.0033132443998284966
1903.0,0.0033570086445275926
1902.0,0.0034007772998332353
1901.0,0.0034445503666347133
1900.0,0.0034445503666347133
1899.0,0.003488327845821315
1898.0,0.003488327845821315
1897.0,0.003488327845821315
1896.0,0.003488327845821315
1895.0,0.003488327845821315
1894.0,0.0035758960449088217
1893.0,0.0036634819042162814
1892.0,0.0036634819042162814
1891.0,0.0036634819042162814
1890.0,0.0036634819042162814
1889.0,0.003707281458678491
1888.0,0.003707281458678491
1887.0,0.003707281458678491
1886.0,0.003707281458678491
1885.0,0.003619686766589858
1884.0,0.003619686766589858
1883.0,0.003619686766589858
1882.0,0.0036634819042162814
1881.0,0.003707281458678491
1880.0,0.003794893821675638
1879.0,0.0038387066319929275
1878.0,0.0038387066319929275
1877.0,0.0038825238627120395
1876.0,0.0038825238627120395
1875.0,0.0038825238627120395
1874.0,0.0038825238627120395
1873.0,0.003926345514724705
1872.0,0.0040578370074493275
1871.0,0.004145520125434121
1870.0,0.004233220950025984
1869.0,0.004233220950025984
1868.0,0.004189368323957332
1867.0,0.004145520125434121
1866.0,0.004145520125434121
1865.0,0.004189368323957332
1864.0,0.004145520125434121
1863.0,0.004101676353562844
1862.0,0.00401400208620073
1861.0,0.003970171588923321
1860.0,0.00401400208620073
1859.0,0.0040578370074493275
1858.0,0.004101676353562844
1857.0,0.0040578370074493275
1856.0,0.003970171588923321
1855.0,0.003926345514724705
1854.0,0.003926345514724705
1853.0,0.003970171588923321
1852.0,0.003970171588923321
1851.0,0.003970171588923321
1850.0,0.003970171588923321
1849.0,0.003926345514724705
1848.0,0.003926345514724705
1847.0,0.0038825238627120395
1846.0,0.0038825238627120395
1845.0,0.0038387066319929275
1844.0,0.0038387066319929275
1843.0,0.003794893821675638
1842.0,0.0038825238627120395
1841.0,0.003970171588923321
1840.0,0.00401400208620073
1839.0,0.00401400208620073
1838.0,0.003970171588923321
1837.0,0.003926345514724705
1836.0,0.003926345514724705
1835.0,0.003926345514724705
1834.0,0.00401400208620073
1833.0,0.0040578370074493275
1832.0,0.0040578370074493275
1831.0,0.0040578370074493275
1830.0,0.00401400208620073
1829.0,0.003970171588923321
1828.0,0.0038825238627120395
1827.0,0.003794893821675638
1826.0,0.003794893821675638
1825.0,0.0038387066319929275
1824.0,0.003970171588923321
1823.0,0.004101676353562844
1822.0,0.004145520125434121
1821.0,0.004145520125434121
1820.0,0.004101676353562844
1819.0,0.004101676353562844
1818.0,0.004145520125434121
1817.0,0.004233220950025984
1816.0,0.004277078004534696
1815.0,0.004320939488377862
1814.0,0.004320939488377862
1813.0,0.0043648054024501
1812.0,0.0043648054024501
1811.0,0.0043648054024501
1810.0,0.004408675747646695
1809.0,0.0044964297349936455
1808.0,0.00458420145758498
1807.0,0.004628093971837721
1806.0,0.004671990922590297
1805.0,0.004671990922590297
1804.0,0.004715892310740433
1803.0,0.004671990922590297
1802.0,0.004671990922590297
1801.0,0.004671990922590297
1800.0,0.004715892310740433
1799.0,0.004671990922590297
1798.0,0.004671990922590297
1797.0,0.004671990922590297
1796.0,0.004715892310740433
1795.0,0.004715892310740433
1794.0,0.004671990922590297
1793.0,0.004540313378935901
1792.0,0.0044964297349936455
1791.0,0.004452550524862486
1790.0,0.0044964297349936455
1789.0,0.0044964297349936455
1788.0,0.004540313378935901
1787.0,0.004452550524862486
1786.0,0.004408675747646695
1785.0,0.0043648054024501
1784.0,0.0043648054024501
1783.0,0.0043648054024501
1782.0,0.0043648054024501
1781.0,0.004320939488377862
1780.0,0.004320939488377862
1779.0,0.004277078004534696
1778.0,0.004233220950025984
1777.0,0.004233220950025984
1776.0,0.004320939488377862
1775.0,0.004452550524862486
1774.0,0.00458420145758498
1773.0,0.004628093971837721
1772.0,0.004628093971837721
1771.0,0.00458420145758498
1770.0,0.00458420145758498
1769.0,0.00458420145758498
1768.0,0.00458420145758498
1767.0,0.004540313378935901
1766.0,0.0044964297349936455
1765.0,0.0044964297349936455
1764.0,0.0044964297349936455
1763.0,0.0044964297349936455
1762.0,0.004540313378935901
1761.0,0.00458420145758498
1760.0,0.004671990922590297
1759.0,0.004759798137184523
1758.0,0.004803708402820517
1757.0,0.00484762310854614
1756.0,0.00484762310854614
1755.0,0.00489154225525934
1754.0,0.004979393875242044
1753.0,0.005023326350308999
1752.0,0.004979393875242044
1751.0,0.00489154225525934
1750.0,0.004803708402820517
1749.0,0.004803708402820517
1748.0,0.00484762310854614
1747.0,0.004935465843858511
1746.0,0.004979393875242044
1745.0,0.005023326350308999
1744.0,0.005111204635089406
1743.0,0.005199100705396198
1742.0,0.005243055412371911
1741.0,0.005199100705396198
1740.0,0.005155150446602086
1739.0,0.005199100705396198
1738.0,0.005330978174470591
1737.0,0.005506877116487674
1736.0,0.005594853310833647
1735.0,0.005594853310833647
1734.0,0.005550862985963967
1733.0,0.00537494623139545
1732.0,0.005243055412371911
1731.0,0.005199100705396198
1730.0,0.005199100705396198
1729.0,0.005243055412371911
1728.0,0.005243055412371911
1727.0,0.005243055412371911
1726.0,0.005243055412371911
1725.0,0.005243055412371911
1724.0,0.0052870145684298375
1723.0,0.0052870145684298375
1722.0,0.005243055412371911
1721.0,0.005155150446602086
1720.0,0.005067263269958211
1719.0,0.004979393875242044
1718.0,0.005023326350308999
1717.0,0.005067263269958211
1716.0,0.005111204635089406
1715.0,0.005111204635089406
1714.0,0.005111204635089406
1713.0,0.005111204635089406
1712.0,0.005067263269958211
1711.0,0.005067263269958211
1710.0,0.005067263269958211
1709.0,0.005067263269958211
1708.0,0.005067263269958211
1707.0,0.005023326350308999
1706.0,0.005023326350308999
1705.0,0.005067263269958211
1704.0,0.005111204635089406
1703.0,0.005199100705396198
1702.0,0.0052870145684298375
1701.0,0.00537494623139545
1700.0,0.00537494623139545
1699.0,0.00537494623139545
1698.0,0.005462895701502157
1697.0,0.005506877116487674
1696.0,0.00541891874010525
1695.0,0.005199100705396198
1694.0,0.005155150446602086
1693.0,0.005199100705396198
1692.0,0.005199100705396198
1691.0,0.005199100705396198
1690.0,0.005155150446602086
1689.0,0.005155150446602086
1688.0,0.005155150446602086
1687.0,0.005199100705396198
1686.0,0.005155150446602086
1685.0,0.005199100705396198
1684.0,0.005330978174470591
1683.0,0.00537494623139545
1682.0,0.00537494623139545
1681.0,0.005462895701502157
1680.0,0.005506877116487674
1679.0,0.005594853310833647
1678.0,0.005594853310833647
1677.0,0.005594853310833647
1676.0,0.005594853310833647
1675.0,0.005594853310833647
1674.0,0.005550862985963967
1673.0,0.005506877116487674
1672.0,0.005462895701502157
1671.0,0.005462895701502157
1670.0,0.005506877116487674
1669.0,0.005550862985963967
1668.0,0.005550862985963967
1667.0,0.005638848091999105
1666.0,0.005726851026829571
1665.0,0.00577085918230158
1664.0,0.005814871797682919
1663.0,0.005814871797682919
1662.0,0.00577085918230158
1661.0,0.005814871797682919
1660.0,0.005814871797682919
1659.0,0.00577085918230158
1658.0,0.005726851026829571
1657.0,0.005682847330363394
1656.0,0.00577085918230158
1655.0,0.005858888873877532
1654.0,0.006079041198713275
1653.0,0.00621118618129457
1652.0,0.005946936412324799
1651.0,0.005858888873877532
1650.0,0.005858888873877532
1649.0,0.005858888873877532
1648.0,0.005946936412324799
1647.0,0.005990966876386672
1646.0,0.005946936412324799
1645.0,0.00577085918230158
1644.0,0.005682847330363394
1643.0,0.005682847330363394
1642.0,0.005638848091999105
1641.0,0.005594853310833647
1640.0,0.005506877116487674
1639.0,0.00541891874010525
1638.0,0.00537494623139545
1637.0,0.00541891874010525
1636.0,0.005638848091999105
1635.0,0.00577085918230158
1634.0,0.005726851026829571
1633.0,0.005638848091999105
1632.0,0.005594853310833647
1631.0,0.005550862985963967
1630.0,0.005462895701502157
1629.0,0.00541891874010525
1628.0,0.00537494623139545
1627.0,0.005462895701502157
1626.0,0.005506877116487674
1625.0,0.005506877116487674
1624.0,0.005462895701502157
1623.0,0.005506877116487674
1622.0,0.005594853310833647
1621.0,0.005682847330363394
1620.0,0.00577085918230158
1619.0,0.00577085918230158
1618.0,0.005726851026829571
1617.0,0.005682847330363394
1616.0,0.005638848091999105
1615.0,0.005638848091999105
1614.0,0.005682847330363394
1613.0,0.005726851026829571
1612.0,0.005726851026829571
1611.0,0.00577085918230158
1610.0,0.00590291041179003
1609.0,0.00612308505878878
1608.0,0.006431517210272464
1607.0,0.006872514894289861
1606.0,0.007358130121602358
1605.0,0.007888512213050314
1604.0,0.008463824699968647
1603.0,0.008995559669244813
1602.0,0.009439170005980158
1601.0,0.00966114521239847
1600.0,0.009705553871561357
1599.0,0.009572341514736404
1598.0,0.009261671492462709
1597.0,0.008906891951112605
1596.0,0.008552401996197112
1595.0,0.008242460465651913
1594.0,0.008021209005416363
1593.0,0.007844288957383316
1592.0,0.007667440952535687
1591.0,0.0074464821678643656
1590.0,0.007269796045857202
1589.0,0.007181479933320523
1588.0,0.007181479933320523
1587.0,0.007225635744644521
1586.0,0.007358130121602358
1585.0,0.007534852191956709
1584.0,0.007667440952535687
1583.0,0.007755855953228474
1582.0,0.007755855953228474
1581.0,0.00762324020119709
1580.0,0.007490664932224611
1579.0,0.007358130121602358
1578.0,0.007225635744644521
1577.0,0.007181479933320523
1576.0,0.007137328610972382
1575.0,0.007004901568658406
1574.0,0.006828394969235152
1573.0,0.006696062080525422
1572.0,0.006519680930003435
1571.0,0.006431517210272464
1570.0,0.006387442061109638
1569.0,0.006475596832934416
1568.0,0.006519680930003435
1567.0,0.00656376950238835
1566.0,0.00656376950238835
1565.0,0.006475596832934416
1564.0,0.006475596832934416
1563.0,0.006475596832934416
1562.0,0.006519680930003435
1561.0,0.006343371384537999
1560.0,0.00625524344553785
1559.0,0.006387442061109638
1558.0,0.006299305179649828
1557.0,0.00612308505878878
1556.0,0.00621118618129457
1555.0,0.006343371384537999
1554.0,0.006475596832934416
1553.0,0.006431517210272464
1552.0,0.006387442061109638
1551.0,0.006343371384537999
1550.0,0.006343371384537999
1549.0,0.006431517210272464
1548.0,0.006519680930003435
1547.0,0.006607862550997545
1546.0,0.006607862550997545
1545.0,0.006607862550997545
1544.0,0.006607862550997545
1543.0,0.006607862550997545
1542.0,0.00656376950238835
1541.0,0.006607862550997545
1540.0,0.00656376950238835
1539.0,0.006387442061109638
1538.0,0.006299305179649828
1537.0,0.006343371384537999
1536.0,0.006299305179649828
1535.0,0.00625524344553785
1534.0,0.00621118618129457
1533.0,0.00621118618129457
1532.0,0.00621118618129457
1531.0,0.00621118618129457
1530.0,0.00621118618129457
1529.0,0.00621118618129457
1528.0,0.00625524344553785
1527.0,0.00625524344553785
1526.0,0.00621118618129457
1525.0,0.00621118618129457
1524.0,0.006167133386013823
1523.0,0.00612308505878878
1522.0,0.005990966876386672
1521.0,0.005858888873877532
1520.0,0.005682847330363394
1519.0,0.005638848091999105
1518.0,0.005594853310833647
1517.0,0.005682847330363394
1516.0,0.005814871797682919
1515.0,0.00590291041179003
1514.0,0.00590291041179003
1513.0,0.005858888873877532
1512.0,0.005682847330363394
1511.0,0.005506877116487674
1510.0,0.00537494623139545
1509.0,0.005243055412371911
1508.0,0.005243055412371911
1507.0,0.005462895701502157
1506.0,0.005550862985963967
1505.0,0.005506877116487674
1504.0,0.005550862985963967
1503.0,0.005594853310833647
1502.0,0.005594853310833647
1501.0,0.005594853310833647
1500.0,0.00577085918230158
1499.0,0.006167133386013823
1498.0,0.007181479933320523
1497.0,0.008995559669244813
1496.0,0.011351874764248926
1495.0,0.013586594534531482
1494.0,0.015292705517326866
1493.0,0.01628352608625061
1492.0,0.016509028184833463
1491.0,0.01578783323856614
1490.0,0.014438812226654996
1489.0,0.013093968619278806
1488.0,0.012110390002254778
1487.0,0.011396456654336085
1486.0,0.01077272626946324
1485.0,0.01023881228122181
1484.0,0.009705553871561357
1483.0,0.009217308196862062
1482.0,0.008818242332126802
1481.0,0.008552401996197112
1480.0,0.008375265465994541
1479.0,0.008242460465651913
1478.0,0.008021209005416363
1477.0,0.007755855953228474
1476.0,0.0074464821678643656
1475.0,0.007225635744644521
1474.0,0.007137328610972382
1473.0,0.007181479933320523
1472.0,0.007225635744644521
1471.0,0.007225635744644521
1470.0,0.007137328610972382
1469.0,0.007137328610972382
1468.0,0.007093181776687496
1467.0,0.007049039429553483
1466.0,0.00696076819309055
1465.0,0.006916639301937977
1464.0,0.006872514894289861
1463.0,0.006784279525863024
1462.0,0.006696062080525422
1461.0,0.00656376950238835
1460.0,0.00656376950238835
1459.0,0.006696062080525422
1458.0,0.0075790439479759275
1457.0,0.009527946474380489
1456.0,0.011708658092512314
1455.0,0.013496984613259544
1454.0,0.015067833932588037
1453.0,0.01632861713980338
1452.0,0.017141057687924732
1451.0,0.01727661233145472
1450.0,0.01677978535189717
1449.0,0.016103208673694303
1448.0,0.015427684378367834
1447.0,0.014932966849499074
1446.0,0.014573525916998342
1445.0,0.014214382227394795
1444.0,0.01385553528947936
1443.0,0.013452186585275916
1442.0,0.013049212141483357
1441.0,0.012691326268817527
1440.0,0.012423105273012602
1439.0,0.012110390002254778
1438.0,0.011708658092512314
1437.0,0.011262724711199823
1436.0,0.01086177578421088
1435.0,0.010550182333308289
1434.0,0.010327752376126709
1433.0,0.010060986715464404
1432.0,0.009794384815193347
1431.0,0.009483555971770974
1430.0,0.009261671492462709
1429.0,0.009039900317800775
1428.0,0.008906891951112605
1427.0,0.0087296108049002
1426.0,0.008596697419959609
1425.0,0.00850811108984062
1424.0,0.008463824699968647
1423.0,0.00850811108984062
1422.0,0.008552401996197112
1421.0,0.008463824699968647
1420.0,0.008375265465994541
1419.0,0.008286724286910463
1418.0,0.008242460465651913
1417.0,0.008242460465651913
1416.0,0.008242460465651913
1415.0,0.008153946355103248
1414.0,0.008109696063975047
1413.0,0.008065450281052211
1412.0,0.008109696063975047
1411.0,0.008109696063975047
1410.0,0.008065450281052211
1409.0,0.008021209005416363
1408.0,0.007932739972333236
1407.0,0.007888512213050314
1406.0,0.007844288957383316
1405.0,0.007844288957383316
1404.0,0.007888512213050314
1403.0,0.007976972236149349
1402.0,0.007932739972333236
1401.0,0.007844288957383316
1400.0,0.007755855953228474
1399.0,0.007711646202907652
1398.0,0.007711646202907652
1397.0,0.007667440952535687
1396.0,0.0075790439479759275
1395.0,0.0075790439479759275
1394.0,0.007667440952535687
1393.0,0.007800070204414977
1392.0,0.007888512213050314
1391.0,0.007976972236149349
1390.0,0.007976972236149349
1389.0,0.008021209005416363
1388.0,0.008109696063975047
1387.0,0.008286724286910463
1386.0,0.00850811108984062
1385.0,0.008640997362049818
1384.0,0.008773924307505121
1383.0,0.008862564879688284
1382.0,0.008951223547323472
1381.0,0.008995559669244813
1380.0,0.00908424549391551
1379.0,0.009172949432521227
1378.0,0.009217308196862062
1377.0,0.009217308196862062
1376.0,0.009217308196862062
1375.0,0.009306039320248427
1374.0,0.009439170005980158
1373.0,0.009572341514736404
1372.0,0.009705553871561357
1371.0,0.00974996707218323
1370.0,0.009794384815193347
1369.0,0.009794384815193347
1368.0,0.009838807101520963
1367.0,0.009883233932095559
1366.0,0.009927665307847056
1365.0,0.009883233932095559
1364.0,0.009794384815193347
1363.0,0.009838807101520963
1362.0,0.009883233932095559
1361.0,0.009927665307847056
1360.0,0.009927665307847056
1359.0,0.009883233932095559
1358.0,0.009838807101520963
1357.0,0.009838807101520963
1356.0,0.009794384815193347
1355.0,0.00974996707218323
1354.0,0.00974996707218323
1353.0,0.00974996707218323
1352.0,0.009705553871561357
1351.0,0.009705553871561357
1350.0,0.00966114521239847
1349.0,0.009705553871561357
1348.0,0.009705553871561357
1347.0,0.00966114521239847
1346.0,0.009616741093766423
1345.0,0.009527946474380489
1344.0,0.00939478857608056
1343.0,0.009261671492462709
1342.0,0.00908424549391551
1341.0,0.008995559669244813
1340.0,0.008951223547323472
1339.0,0.009039900317800775
1338.0,0.009128595198514056
1337.0,0.009217308196862062
1336.0,0.009261671492462709
1335.0,0.009261671492462709
1334.0,0.009306039320248427
1333.0,0.009350411681145587
1332.0,0.009483555971770974
1331.0,0.009572341514736404
1330.0,0.00966114521239847
1329.0,0.009705553871561357
1328.0,0.009705553871561357
1327.0,0.009705553871561357
1326.0,0.009705553871561357
1325.0,0.00974996707218323
1324.0,0.00974996707218323
1323.0,0.00974996707218323
1322.0,0.00974996707218323
1321.0,0.00974996707218323
1320.0,0.00974996707218323
1319.0,0.009794384815193347
1318.0,0.009838807101520963
1317.0,0.009883233932095559
1316.0,0.009883233932095559
1315.0,0.009883233932095559
1314.0,0.009927665307847056
1313.0,0.009972101229705377
1312.0,0.01001654169860089
1311.0,0.010105436281226954
1310.0,0.010105436281226954
1309.0,0.010105436281226954
1308.0,0.010105436281226954
1307.0,0.010060986715464404
1306.0,0.010060986715464404
1305.0,0.010060986715464404
1304.0,0.010060986715464404
1303.0,0.01001654169860089
1302.0,0.009927665307847056
1301.0,0.009838807101520963
1300.0,0.009794384815193347
1299.0,0.009705553871561357
1298.0,0.009705553871561357
1297.0,0.009705553871561357
1296.0,0.00974996707218323
1295.0,0.00974996707218323
1294.0,0.00974996707218323
1293.0,0.00974996707218323
1292.0,0.009705553871561357
1291.0,0.00966114521239847
1290.0,0.009616741093766423
1289.0,0.009616741093766423
1288.0,0.00966114521239847
1287.0,0.009705553871561357
1286.0,0.009705553871561357
1285.0,0.009705553871561357
1284.0,0.00966114521239847
1283.0,0.009616741093766423
1282.0,0.009572341514736404
1281.0,0.009572341514736404
1280.0,0.009572341514736404
1279.0,0.009527946474380489
1278.0,0.009572341514736404
1277.0,0.009572341514736404
1276.0,0.009572341514736404
1275.0,0.009572341514736404
1274.0,0.009572341514736404
1273.0,0.009527946474380489
1272.0,0.009483555971770974
1271.0,0.009483555971770974
1270.0,0.009439170005980158
1269.0,0.009439170005980158
1268.0,0.009483555971770974
1267.0,0.009527946474380489
1266.0,0.009527946474380489
1265.0,0.009527946474380489
1264.0,0.009439170005980158
1263.0,0.009350411681145587
1262.0,0.009350411681145587
1261.0,0.009350411681145587
1260.0,0.00939478857608056
1259.0,0.009439170005980158
1258.0,0.00939478857608056
1257.0,0.009350411681145587
1256.0,0.009306039320248427
1255.0,0.009350411681145587
1254.0,0.009350411681145587
1253.0,0.009350411681145587
1252.0,0.009306039320248427
1251.0,0.009217308196862062
1250.0,0.009172949432521227
1249.0,0.009172949432521227
1248.0,0.009261671492462709
1247.0,0.009306039320248427
1246.0,0.009350411681145587
1245.0,0.00939478857608056
1244.0,0.009439170005980158
1243.0,0.009483555971770974
1242.0,0.009439170005980158
1241.0,0.00939478857608056
1240.0,0.009306039320248427
1239.0,0.009217308196862062
1238.0,0.009172949432521227
1237.0,0.009172949432521227
1236.0,0.009172949432521227
1235.0,0.009172949432521227
1234.0,0.009217308196862062
1233.0,0.009261671492462709
1232.0,0.009306039320248427
1231.0,0.009261671492462709
1230.0,0.009261671492462709
1229.0,0.009261671492462709
1228.0,0.009261671492462709
1227.0,0.009261671492462709
1226.0,0.009217308196862062
1225.0,0.009217308196862062
1224.0,0.009172949432521227
1223.0,0.009172949432521227
1222.0,0.009128595198514056
1221.0,0.00908424549391551
1220.0,0.009128595198514056
1219.0,0.009172949432521227
1218.0,0.009172949432521227
1217.0,0.009172949432521227
1216.0,0.009172949432521227
1215.0,0.009217308196862062
1214.0,0.009306039320248427
1213.0,0.00939478857608056
1212.0,0.009439170005980158
1211.0,0.00939478857608056
1210.0,0.009306039320248427
1209.0,0.009261671492462709
1208.0,0.009306039320248427
1207.0,0.009483555971770974
1206.0,0.00966114521239847
1205.0,0.00974996707218323
1204.0,0.00974996707218323
1203.0,0.009705553871561357
1202.0,0.00966114521239847
1201.0,0.00974996707218323
1200.0,0.009838807101520963
1199.0,0.009883233932095559
1198.0,0.009883233932095559
1197.0,0.009883233932095559
1196.0,0.009883233932095559
1195.0,0.009927665307847056
1194.0,0.009972101229705377
1193.0,0.009972101229705377
1192.0,0.009972101229705377
1191.0,0.009927665307847056
1190.0,0.009883233932095559
1189.0,0.009883233932095559
1188.0,0.01001654169860089
1187.0,0.01023881228122181
1186.0,0.01046119667949763
1185.0,0.010550182333308289
1184.0,0.010639186223752484
1183.0,0.010683695010048622
1182.0,0.01077272626946324
1181.0,0.010817248744452446
1180.0,0.010817248744452446
1179.0,0.010728208358306901
1178.0,0.010683695010048622
1177.0,0.010594681998483901
1176.0,0.010550182333308289
1175.0,0.010505687227290839
1174.0,0.010416710688994968
1173.0,0.010327752376126709
1172.0,0.01023881228122181
1171.0,0.010105436281226954
1170.0,0.010060986715464404
1169.0,0.010060986715464404
1168.0,0.010060986715464404
1167.0,0.010105436281226954
1166.0,0.010149890396819572
1165.0,0.010149890396819572
1164.0,0.010149890396819572
1163.0,0.010149890396819572
1162.0,0.010149890396819572
1161.0,0.010149890396819572
1160.0,0.01023881228122181
1159.0,0.010327752376126709
1158.0,0.01046119667949763
1157.0,0.010728208358306901
1156.0,0.011039929609661936
1155.0,0.011307297450183107
1154.0,0.011530229790124524
1153.0,0.011619434777991433
1152.0,0.011530229790124524
1151.0,0.011351874764248926
1150.0,0.011129033935354915
1149.0,0.010950843561779777
1148.0,0.010817248744452446
1147.0,0.010683695010048622
1146.0,0.010594681998483901
1145.0,0.01046119667949763
1144.0,0.010327752376126709
1143.0,0.01023881228122181
1142.0,0.010194349063173958
1141.0,0.010149890396819572
1140.0,0.010149890396819572
1139.0,0.010149890396819572
1138.0,0.010105436281226954
1137.0,0.010149890396819572
1136.0,0.010194349063173958
1135.0,0.010283280051895272
1134.0,0.01023881228122181
1133.0,0.010194349063173958
1132.0,0.010105436281226954
1131.0,0.010105436281226954
1130.0,0.010105436281226954
1129.0,0.010149890396819572
1128.0,0.010194349063173958
1127.0,0.01023881228122181
1126.0,0.010283280051895272
1125.0,0.010327752376126709
1124.0,0.010283280051895272
1123.0,0.010194349063173958
1122.0,0.010105436281226954
1121.0,0.010060986715464404
1120.0,0.010105436281226954
1119.0,0.01023881228122181
1118.0,0.010327752376126709
1117.0,0.01037222925484893
1116.0,0.01037222925484893
1115.0,0.010416710688994968
1114.0,0.01046119667949763
1113.0,0.010550182333308289
1112.0,0.010639186223752484
1111.0,0.010683695010048622
1110.0,0.010728208358306901
1109.0,0.01077272626946324
1108.0,0.01077272626946324
1107.0,0.01077272626946324
1106.0,0.010728208358306901
1105.0,0.010594681998483901
1104.0,0.01046119667949763
1103.0,0.01037222925484893
1102.0,0.01037222925484893
1101.0,0.010505687227290839
1100.0,0.010683695010048622
1099.0,0.01077272626946324
1098.0,0.010728208358306901
1097.0,0.010639186223752484
1096.0,0.010505687227290839
1095.0,0.01046119667949763
1094.0,0.01046119667949763
1093.0,0.010550182333308289
1092.0,0.010594681998483901
1091.0,0.010594681998483901
1090.0,0.010594681998483901
1089.0,0.010550182333308289
1088.0,0.01046119667949763
1087.0,0.01046119667949763
1086.0,0.01046119667949763
1085.0,0.010505687227290839
1084.0,0.010505687227290839
1083.0,0.010550182333308289
1082.0,0.010639186223752484
1081.0,0.010728208358306901
1080.0,0.01086177578421088
1079.0,0.010950843561779777
1078.0,0.010906307389674463
1077.0,0.010906307389674463
1076.0,0.010995384301463185
1075.0,0.011262724711199823
1074.0,0.011485634166333858
1073.0,0.011753276624621556
1072.0,0.0119764380713403
1071.0,0.012244383261476699
1070.0,0.012512493866907004
1069.0,0.012691326268817527
1068.0,0.012780770091995297
1067.0,0.012780770091995297
1066.0,0.012780770091995297
1065.0,0.012736045877764557
1064.0,0.01264661126420652
1063.0,0.012512493866907004
1062.0,0.012378417874516323
1061.0,0.012244383261476699
1060.0,0.012110390002254778
1059.0,0.0119764380713403
1058.0,0.011842527443247208
1057.0,0.011753276624621556
1056.0,0.011753276624621556
1055.0,0.011708658092512314
1054.0,0.011574829993696856
1053.0,0.011307297450183107
1052.0,0.011039929609661936
1051.0,0.01086177578421088
1050.0,0.01077272626946324
1049.0,0.01077272626946324
1048.0,0.01077272626946324
1047.0,0.01077272626946324
1046.0,0.010817248744452446
1045.0,0.01086177578421088
1044.0,0.01086177578421088
1043.0,0.01077272626946324
1042.0,0.010639186223752484
1041.0,0.010594681998483901
1040.0,0.010594681998483901
1039.0,0.010683695010048622
1038.0,0.01077272626946324
1037.0,0.010906307389674463
1036.0,0.01117359295472431
1035.0,0.011574829993696856
1034.0,0.012199714248127602
1033.0,0.012959713020733288
1032.0,0.01381070026317599
1031.0,0.014573525916998342
1030.0,0.015202742910707112
1029.0,0.015742798294583915
1028.0,0.016103208673694303
1027.0,0.016373712875465518
1026.0,0.01646391839700767
1025.0,0.01632861713980338
1024.0,0.016013078034810446
1023.0,0.015607721475734415
1022.0,0.015202742910707112
1021.0,0.014843078722943437
1020.0,0.01452861671041239
1019.0,0.014214382227394795
1018.0,0.013945219230304673
1017.0,0.01372104409400876
1016.0,0.013541787262693505
1015.0,0.013407393177789162
1014.0,0.013273040668781544
1013.0,0.01322826573375524
1012.0,0.01318349541446362
1011.0,0.01318349541446362
1010.0,0.01322826573375524
1009.0,0.013273040668781544
1008.0,0.013317820220494436
1007.0,0.013317820220494436
1006.0,0.013273040668781544
1005.0,0.01322826573375524
1004.0,0.013317820220494436
1003.0,0.013362604389846044
1002.0,0.013317820220494436
1001.0,0.01318349541446362
1000.0,0.012959713020733288
999.0,0.012691326268817527
998.0,0.012467797270160563
997.0,0.012333735073725371
996.0,0.012289056869694281
995.0,0.012333735073725371
994.0,0.012423105273012602
993.0,0.012423105273012602
992.0,0.012378417874516323
991.0,0.012244383261476699
990.0,0.01215504982870197
989.0,0.012110390002254778
988.0,0.01215504982870197
987.0,0.012244383261476699
986.0,0.012378417874516323
985.0,0.012467797270160563
984.0,0.012512493866907004
983.0,0.01260190086298274
982.0,0.012736045877764557
981.0,0.012959713020733288
980.0,0.013138729709955221
979.0,0.01322826573375524
978.0,0.01322826573375524
977.0,0.013138729709955221
976.0,0.013004460275618523
975.0,0.012870232340102872
974.0,0.012825498912458322
973.0,0.012825498912458322
972.0,0.012780770091995297
971.0,0.012780770091995297
970.0,0.012825498912458322
969.0,0.012959713020733288
968.0,0.013138729709955221
967.0,0.013317820220494436
966.0,0.013496984613259544
965.0,0.013631406429727155
964.0,0.013631406429727155
963.0,0.013586594534531482
962.0,0.013541787262693505
961.0,0.013586594534531482
960.0,0.013586594534531482
959.0,0.013496984613259544
958.0,0.013407393177789162
957.0,0.013273040668781544
956.0,0.013138729709955221
955.0,0.012959713020733288
954.0,0.012825498912458322
953.0,0.012870232340102872
952.0,0.012914970375878188
951.0,0.012959713020733288
950.0,0.012870232340102872
949.0,0.012870232340102872
948.0,0.012959713020733288
947.0,0.013093968619278806
946.0,0.01322826573375524
945.0,0.013452186585275916
944.0,0.013676222949234651
943.0,0.013900374944870508
942.0,0.01403492169512921
941.0,0.01403492169512921
940.0,0.013900374944870508
939.0,0.013765869865004277
938.0,0.013676222949234651
937.0,0.013631406429727155
936.0,0.013631406429727155
935.0,0.013631406429727155
934.0,0.013631406429727155
933.0,0.013541787262693505
932.0,0.013452186585275916
931.0,0.013362604389846044
930.0,0.013273040668781544
929.0,0.01322826573375524
928.0,0.01322826573375524
927.0,0.01322826573375524
926.0,0.01322826573375524
925.0,0.01322826573375524
924.0,0.01322826573375524
923.0,0.013273040668781544
922.0,0.013362604389846044
921.0,0.013496984613259544
920.0,0.013586594534531482
919.0,0.013631406429727155
918.0,0.013631406429727155
917.0,0.013631406429727155
916.0,0.013765869865004277
915.0,0.014079779876432497
914.0,0.0144837121472845
913.0,0.014888020460646079
912.0,0.015247721884586563
911.0,0.015562705203923999
910.0,0.015922966097169144
909.0,0.016418813294209356
908.0,0.016960383953898095
907.0,0.017412209298337533
906.0,0.01768353030793479
905.0,0.017728766960431575
904.0,0.01759307113620534
903.0,0.017321806616515723
902.0,0.016960383953898095
901.0,0.016554142658660398
900.0,0.016148281008528276
899.0,0.015697768020096703
898.0,0.015247721884586563
897.0,0.014977917890464765
896.0,0.014798141635428141
895.0,0.014708281407112
894.0,0.014618439768003144
893.0,0.01452861671041239
892.0,0.0144837121472845
891.0,0.014438812226654996
890.0,0.014349026309051105
889.0,0.014259258949925524
888.0,0.014124642691606404
887.0,0.01403492169512921
886.0,0.013900374944870508
885.0,0.01385553528947936
884.0,0.01381070026317599
883.0,0.013765869865004277
882.0,0.013765869865004277
881.0,0.013765869865004277
880.0,0.013765869865004277
879.0,0.013765869865004277
878.0,0.013765869865004277
877.0,0.013765869865004277
876.0,0.01385553528947936
875.0,0.013945219230304673
874.0,0.013990068146738865
873.0,0.013945219230304673
872.0,0.01381070026317599
871.0,0.013676222949234651
870.0,0.013676222949234651
869.0,0.01381070026317599
868.0,0.013990068146738865
867.0,0.014124642691606404
866.0,0.014079779876432497
865.0,0.013900374944870508
864.0,0.013676222949234651
863.0,0.013452186585275916
862.0,0.013273040668781544
861.0,0.01318349541446362
860.0,0.013273040668781544
859.0,0.013452186585275916
858.0,0.013586594534531482
857.0,0.013631406429727155
856.0,0.013541787262693505
855.0,0.013407393177789162
854.0,0.01322826573375524
853.0,0.01318349541446362
852.0,0.013273040668781544
851.0,0.013496984613259544
850.0,0.01372104409400876
849.0,0.013945219230304673
848.0,0.014169510141607944
847.0,0.014438812226654996
846.0,0.014753209197138295
845.0,0.015067833932588037
844.0,0.015337693809893471
843.0,0.015427684378367834
842.0,0.01538268676325183
841.0,0.015292705517326866
840.0,0.015157768594724175
839.0,0.014977917890464765
838.0,0.014843078722943437
837.0,0.014708281407112
836.0,0.014618439768003144
835.0,0.014573525916998342
834.0,0.0144837121472845
833.0,0.014259258949925524
832.0,0.013900374944870508
831.0,0.013496984613259544
830.0,0.013138729709955221
829.0,0.012825498912458322
828.0,0.012691326268817527
827.0,0.012736045877764557
826.0,0.012825498912458322
825.0,0.012959713020733288
824.0,0.012959713020733288
823.0,0.012959713020733288
822.0,0.012959713020733288
821.0,0.012870232340102872
820.0,0.01264661126420652
819.0,0.012378417874516323
818.0,0.012244383261476699
817.0,0.012199714248127602
816.0,0.012289056869694281
815.0,0.012289056869694281
814.0,0.012244383261476699
813.0,0.01215504982870197
812.0,0.012021084124518078
811.0,0.011931796607364653
810.0,0.0119764380713403
809.0,0.012065734767841452
808.0,0.01215504982870197
807.0,0.012065734767841452
806.0,0.011887159731648111
805.0,0.011664044143949504
804.0,0.011530229790124524
803.0,0.011441043121384498
802.0,0.011351874764248926
801.0,0.011262724711199823
800.0,0.011262724711199823
799.0,0.011351874764248926
798.0,0.011441043121384498
797.0,0.011574829993696856
796.0,0.011664044143949504
795.0,0.011664044143949504
794.0,0.011664044143949504
793.0,0.011574829993696856
792.0,0.011530229790124524
791.0,0.011530229790124524
790.0,0.011619434777991433
789.0,0.011842527443247208
788.0,0.012065734767841452
787.0,0.012244383261476699
786.0,0.012289056869694281
785.0,0.012333735073725371
784.0,0.012557195064198723
783.0,0.013004460275618523
782.0,0.013586594534531482
781.0,0.01403492169512921
780.0,0.014259258949925524
779.0,0.014304140310157809
778.0,0.014573525916998342
777.0,0.015157768594724175
776.0,0.015922966097169144
775.0,0.016689514205884493
774.0,0.017457417697056554
773.0,0.01831727262871463
772.0,0.019451260640229506
771.0,0.02081596632558158
770.0,0.022367834754000393
769.0,0.02406295751688936
768.0,0.025672564576383117
767.0,0.027195677663422346
766.0,0.02863136320857662
765.0,0.030071810571884017
764.0,0.031563752288295444
763.0,0.03301397488206215
762.0,0.03428102975577918
761.0,0.03559892883726867
760.0,0.037062711569998186
759.0,0.038531444649213764
758.0,0.039719535563357944
757.0,0.04043395336207234
756.0,0.04081545726880842
755.0,0.041149548320321694
754.0,0.041579471947481794
753.0,0.04215336629184985
752.0,0.04272802000705722
751.0,0.04325545471730896
750.0,0.04368746915880539
749.0,0.04411991377462465
748.0,0.04450467081587295
747.0,0.04474531717982
746.0,0.04450467081587295
745.0,0.04363944632667782
744.0,0.04210551278710151
743.0,0.04019568349166214
742.0,0.038199360808321536
741.0,0.03635381351515665
740.0,0.03456310022373987
739.0,0.03277974021703267
738.0,0.030863766403287585
737.0,0.028863370523193765
736.0,0.026872146400301444
735.0,0.02512002699306959
734.0,0.023741750742954926
733.0,0.022688026603074007
732.0,0.021728158389364705
731.0,0.020542681902151694
730.0,0.019133445417920836
729.0,0.01768353030793479
728.0,0.016418813294209356
727.0,0.015517693597737248
726.0,0.015022873584506602
725.0,0.014753209197138295
724.0,0.014438812226654996
723.0,0.013900374944870508
722.0,0.01322826573375524
721.0,0.012557195064198723
720.0,0.012065734767841452
719.0,0.011664044143949504
718.0,0.011307297450183107
717.0,0.010950843561779777
716.0,0.010594681998483901
715.0,0.010283280051895272
714.0,0.010149890396819572
713.0,0.010327752376126709
712.0,0.010950843561779777
711.0,0.01215504982870197
710.0,0.014169510141607944
709.0,0.017186237868137555
708.0,0.02122621566987748
707.0,0.026271941311972746
706.0,0.032311649546687526
705.0,0.03943409718180235
704.0,0.047595060422975566
703.0,0.05655495097496965
702.0,0.06615853710127872
701.0,0.0763933569825408
700.0,0.08692825969074924
699.0,0.09718153191774648
698.0,0.10646015643533868
697.0,0.11407366019856902
696.0,0.11930071078129845
695.0,0.1213058996038916
694.0,0.11952940719622163
693.0,0.11435612816423602
692.0,0.10668218838388821
691.0,0.09772507952549825
690.0,0.08857603462370545
689.0,0.08018997982980403
688.0,0.07319468988839395
687.0,0.06752623532284674
686.0,0.06268275223750575
685.0,0.0582898510583536
684.0,0.05433450056786593
683.0,0.05100054597304693
682.0,0.04841965509660828
681.0,0.04643358574299339
680.0,0.04469717723830824
679.0,0.043303435105349175
678.0,0.04244059810252043
677.0,0.04215336629184985
676.0,0.04215336629184985
675.0,0.04186632432376469
674.0,0.04086316882962593
673.0,0.03914884628031379
672.0,0.03701541568300293
671.0,0.03508070571335731
670.0,0.033905220553829274
669.0,0.03432802877989327
668.0,0.03625938114211591
667.0,0.03763066432997886
666.0,0.03777276864991497
665.0,0.037346595106788616
664.0,0.036542739883292485
663.0,0.03508070571335731
662.0,0.0329671178412978
661.0,0.03058408764601861
660.0,0.02858497661500481
659.0,0.027426919073445077
658.0,0.02751945012352408
657.0,0.02858497661500481
656.0,0.029932203450862893
655.0,0.030770520137356927
654.0,0.03105031901865729
653.0,0.031190286087141805
652.0,0.031236951802751545
651.0,0.03063068826647264
650.0,0.029095501846216454
649.0,0.027056991894431892
648.0,0.02558042614771394
647.0,0.025028005701930978
646.0,0.025258095499050004
645.0,0.025764722556973707
644.0,0.02636422658259252
643.0,0.02691835039863255
642.0,0.027056991894431892
641.0,0.026595025589939425
640.0,0.026041313893296225
639.0,0.025856900097785074
638.0,0.026087429580295085
637.0,0.026041313893296225
636.0,0.025304128090317013
635.0,0.024430342106337877
634.0,0.024430342106337877
633.0,0.025488307262671706
632.0,0.026687379547098322
631.0,0.027565723042634938
630.0,0.02858497661500481
629.0,0.030071810571884017
628.0,0.03179733185715028
627.0,0.033060836978886954
626.0,0.03338901331806565
625.0,0.032592443402527316
624.0,0.031096969696171817
623.0,0.029746130405213123
622.0,0.029095501846216454
621.0,0.029095501846216454
620.0,0.029374223311705583
619.0,0.029746130405213123
618.0,0.03058408764601861
617.0,0.03161045815293173
616.0,0.03175060589208267
615.0,0.030397735151460825
614.0,0.028353117935693284
613.0,0.02691835039863255
612.0,0.026456531467510258
611.0,0.02654885597506529
610.0,0.026456531467510258
609.0,0.026456531467510258
608.0,0.027288159452933503
607.0,0.029467170231675777
606.0,0.03249882527715853
605.0,0.03470420418834386
604.0,0.03475124903287918
603.0,0.032545631817259224
602.0,0.029653123769906697
601.0,0.027797161620935595
600.0,0.0277045713888604
