cm-1,A
4000.0,0.013138729709955221
3999.0,0.013138729709955221
3998.0,0.013093968619278806
3997.0,0.013049212141483357
3996.0,0.013004460275618523
3995.0,0.012914970375878188
3994.0,0.012870232340102872
3993.0,0.012825498912458322
3992.0,0.012825498912458322
3991.0,0.012825498912458322
3990.0,0.012870232340102872
3989.0,0.012914970375878188
3988.0,0.013004460275618523
3987.0,0.013049212141483357
3986.0,0.013093968619278806
3985.0,0.013138729709955221
3984.0,0.01318349541446362
3983.0,0.01322826573375524
3982.0,0.013273040668781544
3981.0,0.013317820220494436
3980.0,0.013317820220494436
3979.0,0.013273040668781544
3978.0,0.01318349541446362
3977.0,0.013138729709955221
3976.0,0.013138729709955221
3975.0,0.013138729709955221
3974.0,0.01318349541446362
3973.0,0.01318349541446362
3972.0,0.01318349541446362
3971.0,0.01318349541446362
3970.0,0.013138729709955221
3969.0,0.013093968619278806
3968.0,0.013004460275618523
3967.0,0.012959713020733288
3966.0,0.012959713020733288
3965.0,0.013004460275618523
3964.0,0.013004460275618523
3963.0,0.013049212141483357
3962.0,0.013049212141483357
3961.0,0.013093968619278806
3960.0,0.013138729709955221
3959.0,0.013138729709955221
3958.0,0.013138729709955221
3957.0,0.013138729709955221
3956.0,0.013093968619278806
3955.0,0.013093968619278806
3954.0,0.013049212141483357
3953.0,0.013093968619278806
3952.0,0.013093968619278806
3951.0,0.01318349541446362
3950.0,0.01322826573375524
3949.0,0.013273040668781544
3948.0,0.013317820220494436
3947.0,0.013362604389846044
3946.0,0.013362604389846044
3945.0,0.013362604389846044
3944.0,0.013362604389846044
3943.0,0.013317820220494436
3942.0,0.013273040668781544
3941.0,0.013273040668781544
3940.0,0.013317820220494436
3939.0,0.013317820220494436
3938.0,0.013362604389846044
3937.0,0.013362604389846044
3936.0,0.013407393177789162
3935.0,0.013407393177789162
3934.0,0.013407393177789162
3933.0,0.013452186585275916
3932.0,0.013496984613259544
3931.0,0.013541787262693505
3930.0,0.013541787262693505
3929.0,0.013541787262693505
3928.0,0.013496984613259544
3927.0,0.013496984613259544
3926.0,0.013407393177789162
3925.0,0.013317820220494436
3924.0,0.013273040668781544
3923.0,0.013317820220494436
3922.0,0.013362604389846044
3921.0,0.013407393177789162
3920.0,0.013407393177789162
3919.0,0.013362604389846044
3918.0,0.013273040668781544
3917.0,0.01322826573375524
3916.0,0.01322826573375524
3915.0,0.013317820220494436
3914.0,0.013452186585275916
3913.0,0.013496984613259544
3912.0,0.013496984613259544
3911.0,0.013452186585275916
3910.0,0.013407393177789162
3909.0,0.013407393177789162
3908.0,0.013362604389846044
3907.0,0.013362604389846044
3906.0,0.013362604389846044
3905.0,0.013362604389846044
3904.0,0.013452186585275916
3903.0,0.013631406429727155
3902.0,0.01372104409400876
3901.0,0.013765869865004277
3900.0,0.013631406429727155
3899.0,0.013541787262693505
3898.0,0.013452186585275916
3897.0,0.013452186585275916
3896.0,0.013452186585275916
3895.0,0.013452186585275916
3894.0,0.013496984613259544
3893.0,0.013496984613259544
3892.0,0.013452186585275916
3891.0,0.013452186585275916
3890.0,0.013452186585275916
3889.0,0.013541787262693505
3888.0,0.013586594534531482
3887.0,0.013496984613259544
3886.0,0.013407393177789162
3885.0,0.013452186585275916
3884.0,0.013586594534531482
3883.0,0.01372104409400876
3882.0,0.01372104409400876
3881.0,0.013676222949234651
3880.0,0.013631406429727155
3879.0,0.013631406429727155
3878.0,0.013631406429727155
3877.0,0.013676222949234651
3876.0,0.013631406429727155
3875.0,0.013541787262693505
3874.0,0.013496984613259544
3873.0,0.013586594534531482
3872.0,0.013631406429727155
3871.0,0.013586594534531482
3870.0,0.013541787262693505
3869.0,0.013586594534531482
3868.0,0.01372104409400876
3867.0,0.013765869865004277
3866.0,0.013676222949234651
3865.0,0.013586594534531482
3864.0,0.013631406429727155
3863.0,0.013676222949234651
3862.0,0.013676222949234651
3861.0,0.013631406429727155
3860.0,0.013541787262693505
3859.0,0.013452186585275916
3858.0,0.013407393177789162
3857.0,0.013496984613259544
3856.0,0.013631406429727155
3855.0,0.013586594534531482
3854.0,0.013496984613259544
3853.0,0.013586594534531482
3852.0,0.013676222949234651
3851.0,0.01372104409400876
3850.0,0.01372104409400876
3849.0,0.013676222949234651
3848.0,0.013631406429727155
3847.0,0.013631406429727155
3846.0,0.013676222949234651
3845.0,0.01372104409400876
3844.0,0.013765869865004277
3843.0,0.01381070026317599
3842.0,0.01385553528947936
3841.0,0.013900374944870508
3840.0,0.01385553528947936
3839.0,0.01381070026317599
3838.0,0.01381070026317599
3837.0,0.013765869865004277
3836.0,0.01381070026317599
3835.0,0.01381070026317599
3834.0,0.01381070026317599
3833.0,0.01372104409400876
3832.0,0.013586594534531482
3831.0,0.013541787262693505
3830.0,0.013631406429727155
3829.0,0.013765869865004277
3828.0,0.01381070026317599
3827.0,0.01372104409400876
3826.0,0.013676222949234651
3825.0,0.013765869865004277
3824.0,0.013900374944870508
3823.0,0.013990068146738865
3822.0,0.013900374944870508
3821.0,0.013900374944870508
3820.0,0.013900374944870508
3819.0,0.013945219230304673
3818.0,0.01385553528947936
3817.0,0.013676222949234651
3816.0,0.013541787262693505
3815.0,0.013541787262693505
3814.0,0.013586594534531482
3813.0,0.013541787262693505
3812.0,0.013452186585275916
3811.0,0.013407393177789162
3810.0,0.013541787262693505
3809.0,0.013631406429727155
3808.0,0.013676222949234651
3807.0,0.013631406429727155
3806.0,0.013676222949234651
3805.0,0.013900374944870508
3804.0,0.014079779876432497
3803.0,0.014124642691606404
3802.0,0.014079779876432497
3801.0,0.014079779876432497
3800.0,0.014079779876432497
3799.0,0.014079779876432497
3798.0,0.013990068146738865
3797.0,0.01385553528947936
3796.0,0.01385553528947936
3795.0,0.01385553528947936
3794.0,0.013900374944870508
3793.0,0.01385553528947936
3792.0,0.01381070026317599
3791.0,0.01381070026317599
3790.0,0.013765869865004277
3789.0,0.013765869865004277
3788.0,0.01372104409400876
3787.0,0.013676222949234651
3786.0,0.013676222949234651
3785.0,0.01372104409400876
3784.0,0.01381070026317599
3783.0,0.013900374944870508
3782.0,0.01403492169512921
3781.0,0.014079779876432497
3780.0,0.014124642691606404
3779.0,0.014124642691606404
3778.0,0.014079779876432497
3777.0,0.013990068146738865
3776.0,0.013900374944870508
3775.0,0.01381070026317599
3774.0,0.01381070026317599
3773.0,0.01385553528947936
3772.0,0.013945219230304673
3771.0,0.013900374944870508
3770.0,0.013900374944870508
3769.0,0.013900374944870508
3768.0,0.013900374944870508
3767.0,0.01385553528947936
3766.0,0.013765869865004277
3765.0,0.01372104409400876
3764.0,0.013765869865004277
3763.0,0.013900374944870508
3762.0,0.013990068146738865
3761.0,0.013990068146738865
3760.0,0.013990068146738865
3759.0,0.013990068146738865
3758.0,0.013990068146738865
3757.0,0.013900374944870508
3756.0,0.013900374944870508
3755.0,0.013945219230304673
3754.0,0.013900374944870508
3753.0,0.01381070026317599
3752.0,0.01372104409400876
3751.0,0.01381070026317599
3750.0,0.01381070026317599
3749.0,0.013765869865004277
3748.0,0.01381070026317599
3747.0,0.013945219230304673
3746.0,0.013900374944870508
3745.0,0.013765869865004277
3744.0,0.013765869865004277
3743.0,0.013900374944870508
3742.0,0.013990068146738865
3741.0,0.013990068146738865
3740.0,0.013990068146738865
3739.0,0.014079779876432497
3738.0,0.014214382227394795
3737.0,0.014214382227394795
3736.0,0.014169510141607944
3735.0,0.014124642691606404
3734.0,0.014079779876432497
3733.0,0.013945219230304673
3732.0,0.01372104409400876
3731.0,0.013541787262693505
3730.0,0.013541787262693505
3729.0,0.013586594534531482
3728.0,0.013586594534531482
3727.0,0.013631406429727155
3726.0,0.01372104409400876
3725.0,0.01385553528947936
3724.0,0.013900374944870508
3723.0,0.013900374944870508
3722.0,0.01385553528947936
3721.0,0.01385553528947936
3720.0,0.013945219230304673
3719.0,0.01403492169512921
3718.0,0.014079779876432497
3717.0,0.014124642691606404
3716.0,0.014079779876432497
3715.0,0.014079779876432497
3714.0,0.01403492169512921
3713.0,0.013990068146738865
3712.0,0.013945219230304673
3711.0,0.013990068146738865
3710.0,0.013990068146738865
3709.0,0.013945219230304673
3708.0,0.01385553528947936
3707.0,0.01385553528947936
3706.0,0.013900374944870508
3705.0,0.013990068146738865
3704.0,0.014079779876432497
3703.0,0.014079779876432497
3702.0,0.013990068146738865
3701.0,0.013945219230304673
3700.0,0.013900374944870508
3699.0,0.013900374944870508
3698.0,0.01385553528947936
3697.0,0.01385553528947936
3696.0,0.01385553528947936
3695.0,0.013945219230304673
3694.0,0.013990068146738865
3693.0,0.014079779876432497
3692.0,0.014169510141607944
3691.0,0.014214382227394795
3690.0,0.014349026309051105
3689.0,0.014438812226654996
3688.0,0.014438812226654996
3687.0,0.014438812226654996
3686.0,0.014438812226654996
3685.0,0.014438812226654996
3684.0,0.014438812226654996
3683.0,0.014573525916998342
3682.0,0.014708281407112
3681.0,0.014798141635428141
3680.0,0.014843078722943437
3679.0,0.014932966849499074
3678.0,0.015067833932588037
3677.0,0.015022873584506602
3676.0,0.014932966849499074
3675.0,0.014932966849499074
3674.0,0.014977917890464765
3673.0,0.015067833932588037
3672.0,0.015112798935672522
3671.0,0.015022873584506602
3670.0,0.015022873584506602
3669.0,0.015067833932588037
3668.0,0.015112798935672522
3667.0,0.015157768594724175
3666.0,0.015157768594724175
3665.0,0.015202742910707112
3664.0,0.015292705517326866
3663.0,0.015337693809893471
3662.0,0.01538268676325183
3661.0,0.01547268665620738
3660.0,0.015652742414136167
3659.0,0.015832872853011715
3658.0,0.01596801972881945
3657.0,0.016058141016111804
3656.0,0.016148281008528276
3655.0,0.016238439713835096
3654.0,0.016418813294209356
3653.0,0.016599261819461697
3652.0,0.016644385668211692
3651.0,0.016554142658660398
3650.0,0.016734647433454652
3649.0,0.017186237868137555
3648.0,0.017502630802287644
3647.0,0.017547848615010242
3646.0,0.017502630802287644
3645.0,0.017367005605150476
3644.0,0.01727661233145472
3643.0,0.017231422748988034
3642.0,0.017231422748988034
3641.0,0.017367005605150476
3640.0,0.017457417697056554
3639.0,0.017547848615010242
3638.0,0.017638298366853045
3637.0,0.017774008325325275
3636.0,0.017864505196230507
3635.0,0.017909760704207134
3634.0,0.017955020928509757
3633.0,0.018045555530026514
3632.0,0.018271974638383703
3631.0,0.01845319495476394
3630.0,0.018543833477873584
3629.0,0.018725167293411005
3628.0,0.01899731005860028
3627.0,0.019178833355664393
3626.0,0.019269623464054586
3625.0,0.019315025636685412
3624.0,0.019360432556262852
3623.0,0.01949668180660491
3622.0,0.019723858922159776
3621.0,0.01995115493504329
3620.0,0.02022406727031445
3619.0,0.02045162529590483
3618.0,0.020724852408976924
3617.0,0.020952673052035298
3616.0,0.0211806132671577
3615.0,0.021317434843055594
3614.0,0.021317434843055594
3613.0,0.021317434843055594
3612.0,0.021363051615525652
3611.0,0.0214542995372613
3610.0,0.02159120737696063
3609.0,0.021819483062586187
3608.0,0.022139270735302752
3607.0,0.022367834754000393
3606.0,0.022505030926963654
3605.0,0.02259651912656535
3604.0,0.022688026603074007
3603.0,0.02282532397981263
3602.0,0.02296266477531872
3601.0,0.02314585342378117
3600.0,0.023374947949272418
3599.0,0.023604163388120325
3598.0,0.023787622882622816
3597.0,0.023925268380126097
3596.0,0.02406295751688936
3595.0,0.024154774532432866
3594.0,0.024154774532432866
3593.0,0.024246610963712723
3592.0,0.02438440203310499
3591.0,0.02461415101053266
3590.0,0.02484402159331056
3589.0,0.025028005701930978
3588.0,0.02521206778644225
3587.0,0.02544225514642018
3586.0,0.02558042614771394
3585.0,0.02562649291857677
3584.0,0.02562649291857677
3583.0,0.02562649291857677
3582.0,0.025718641122169483
3581.0,0.025856900097785074
3580.0,0.026087429580295085
3579.0,0.026318081496016443
3578.0,0.02654885597506529
3577.0,0.026733563891471412
3576.0,0.026872146400301444
3575.0,0.027056991894431892
3574.0,0.027195677663422346
3573.0,0.027334407733889066
3572.0,0.027426919073445077
3571.0,0.02751945012352408
3570.0,0.027612000892527133
3569.0,0.0277045713888604
3568.0,0.027936083991977778
3567.0,0.028306761050139073
3566.0,0.02863136320857662
3565.0,0.028863370523193765
3564.0,0.028956208163971375
3563.0,0.02904906565457588
3562.0,0.029188389127482228
3561.0,0.02932775731028059
3560.0,0.029513651152349718
3559.0,0.029653123769906697
3558.0,0.02969962459782227
3557.0,0.029792641193145286
3556.0,0.029885677714903025
3555.0,0.03002526987828502
3554.0,0.030211462585061133
3553.0,0.030490901403433135
3552.0,0.0307239045110681
3551.0,0.030910397045078586
3550.0,0.030957032694186815
3549.0,0.030957032694186815
3548.0,0.031003673351687855
3547.0,0.031143625385307683
3546.0,0.03147035562516054
3545.0,0.03184406285002961
3544.0,0.03207779326948268
3543.0,0.03217132066984485
3542.0,0.032124554451966825
3541.0,0.03207779326948268
3540.0,0.03207779326948268
3539.0,0.03217132066984485
3538.0,0.032311649546687526
3537.0,0.032545631817259224
3536.0,0.03273290844021437
3535.0,0.032920265855503006
3534.0,0.03310770413286357
3533.0,0.033295223342125535
3532.0,0.03343591590268957
3531.0,0.03357665405630694
3530.0,0.03371743783253667
3529.0,0.03385826726096752
3528.0,0.03399914237121604
3527.0,0.034187046963396917
3526.0,0.03437503289075727
3525.0,0.03456310022373987
3524.0,0.03475124903287918
3523.0,0.0349394793888016
3522.0,0.03517488211661135
3521.0,0.03531618502395939
3520.0,0.03545753392086315
3519.0,0.03555179208333925
3518.0,0.035646070707806565
3517.0,0.035740369803151095
3516.0,0.03588185684851508
3515.0,0.03602339000339416
3514.0,0.03616496929785207
3513.0,0.03630659476198117
3512.0,0.03644826642590382
3511.0,0.03658998431977123
3510.0,0.036731748473764814
3509.0,0.036873558918095295
3508.0,0.03701541568300293
3507.0,0.0371100126082089
3506.0,0.03720463014276687
3505.0,0.037299268295658994
3504.0,0.037488606492403154
3503.0,0.03767802727041558
3502.0,0.03782014709123227
3501.0,0.03796231343498735
3500.0,0.038151940981675736
3499.0,0.03838909190871931
3498.0,0.038673844065289176
3497.0,0.038911280232103884
3496.0,0.03910132267333921
3495.0,0.03924390909822728
3494.0,0.03924390909822728
3493.0,0.03929144831144349
3492.0,0.03929144831144349
3491.0,0.03943409718180235
3490.0,0.03957679292217042
3489.0,0.039767126871487646
3488.0,0.03995754427315856
3487.0,0.04014804520039483
3486.0,0.0402909757535701
3485.0,0.04043395336207234
3484.0,0.04062466342415694
3483.0,0.04076775094900409
3482.0,0.04091088563260792
3481.0,0.041101805289228244
3480.0,0.04129280891271536
3479.0,0.041483896576958834
3478.0,0.041579471947481794
3477.0,0.04172287445230238
3476.0,0.041914151478914974
3475.0,0.04215336629184985
3474.0,0.042344833056508824
3473.0,0.042584285277331047
3472.0,0.04272802000705722
3471.0,0.04282386959515394
3470.0,0.04291974034210022
3469.0,0.04301563225723992
3468.0,0.04315950984076644
3467.0,0.043303435105349175
3466.0,0.043495409683302455
3465.0,0.04368746915880539
3464.0,0.0439276630048171
3463.0,0.04411991377462465
3462.0,0.044312249686494276
3461.0,0.04455278942230456
3460.0,0.04474531717982
3459.0,0.044937930324967956
3458.0,0.04508244626504121
3457.0,0.0451788169482068
3456.0,0.045323413081356456
3455.0,0.04541983725624266
3454.0,0.045564513671517703
3453.0,0.045660991397539874
3452.0,0.04580574818413763
3451.0,0.04595055323640551
3450.0,0.046143701775014145
3449.0,0.04638525830935958
3448.0,0.04653025674659861
3447.0,0.04672366333269573
3446.0,0.04682039893436585
3445.0,0.0469171560879138
3444.0,0.04701393480294458
3443.0,0.04715914332429838
3442.0,0.047352830241056854
3441.0,0.04749815213697639
3440.0,0.047691990337874746
3439.0,0.047934409814949674
3438.0,0.048128442871635535
3437.0,0.04832256265669943
3436.0,0.048468209457651845
3435.0,0.0486139051197072
3434.0,0.04871106272232795
3433.0,0.048808242065293994
3432.0,0.048905443158337114
3431.0,0.04900266601119507
3430.0,0.04909991063361274
3429.0,0.049245818406496555
3428.0,0.04939177521576932
3427.0,0.04953778109440221
3426.0,0.04958646063061889
3425.0,0.04968383607539972
3424.0,0.04978123335813667
3423.0,0.04997609347667353
3422.0,0.05021979163799939
3421.0,0.050463626623857394
3420.0,0.0506099933550872
3419.0,0.05075640943173498
3418.0,0.05085404758005607
3417.0,0.05095170768433621
3416.0,0.05100054597304693
3415.0,0.051098239029786274
3414.0,0.05114709380028648
3413.0,0.051244819831730126
3412.0,0.05134256785867963
3411.0,0.05144033789103841
3410.0,0.05153812993871654
3409.0,0.051684859310652254
3408.0,0.05178270644002936
3407.0,0.05192951848105887
3406.0,0.05207638016827354
3405.0,0.05222329153526162
3404.0,0.05232126006306337
3403.0,0.052468254304406825
3402.0,0.0525172634430815
3401.0,0.05261529831525902
3400.0,0.05266432405126009
3399.0,0.05271335532220167
3398.0,0.052762392129333646
3397.0,0.05286048235717078
3396.0,0.05295859474477971
3395.0,0.05300765925162776
3394.0,0.05310580489767336
3393.0,0.05325306496641513
3392.0,0.05340037498486727
3391.0,0.0534986094304124
3390.0,0.05354773498692689
3389.0,0.053596866100945384
3388.0,0.053646002773725554
3387.0,0.05374429280060267
3386.0,0.053842605077627725
3385.0,0.05389176956309405
3384.0,0.05399011523423525
3383.0,0.05403929642243144
3382.0,0.05413767551038262
3381.0,0.054186873412661596
3380.0,0.05423607688882637
3379.0,0.05423607688882637
3378.0,0.05423607688882637
3377.0,0.05423607688882637
3376.0,0.05428528594013993
3375.0,0.05433450056786593
3374.0,0.05433450056786593
3373.0,0.05438372077326825
3372.0,0.05438372077326825
3371.0,0.05443294655761144
3370.0,0.05443294655761144
3369.0,0.05443294655761144
3368.0,0.05438372077326825
3367.0,0.05433450056786593
3366.0,0.05433450056786593
3365.0,0.05438372077326825
3364.0,0.05443294655761144
3363.0,0.05448217792216048
3362.0,0.05443294655761144
3361.0,0.05438372077326825
3360.0,0.05428528594013993
3359.0,0.05428528594013993
3358.0,0.05428528594013993
3357.0,0.05433450056786593
3356.0,0.05438372077326825
3355.0,0.05433450056786593
3354.0,0.05428528594013993
3353.0,0.054186873412661596
3352.0,0.054088483180726676
3351.0,0.05403929642243144
3350.0,0.05403929642243144
3349.0,0.054088483180726676
3348.0,0.054088483180726676
3347.0,0.054088483180726676
3346.0,0.05403929642243144
3345.0,0.05399011523423525
3344.0,0.05394093961487645
3343.0,0.053842605077627725
3342.0,0.05374429280060267
3341.0,0.05369514500652506
3340.0,0.053646002773725554
3339.0,0.053596866100945384
3338.0,0.05354773498692689
3337.0,0.053449489430144714
3336.0,0.05340037498486727
3335.0,0.05330216275425803
3334.0,0.05325306496641513
3333.0,0.053203972728539606
3332.0,0.053203972728539606
3331.0,0.0531548860393769
3330.0,0.05310580489767336
3329.0,0.05305672930217464
3328.0,0.05300765925162776
3327.0,0.05295859474477971
3326.0,0.05290953578037816
3325.0,0.05290953578037816
3324.0,0.05286048235717078
3323.0,0.05281143447390635
3322.0,0.05266432405126009
3321.0,0.0525172634430815
3320.0,0.052419250695677544
3319.0,0.05227227303668425
3318.0,0.05212534510230182
3317.0,0.05192951848105887
3316.0,0.0518316382728683
3315.0,0.051684859310652254
3314.0,0.05148923116234294
3313.0,0.05134256785867963
3312.0,0.051244819831730126
3311.0,0.05119595406718891
3310.0,0.05114709380028648
3309.0,0.05114709380028648
3308.0,0.05114709380028648
3307.0,0.051098239029786274
3306.0,0.05100054597304693
3305.0,0.05085404758005607
3304.0,0.050707598587974356
3303.0,0.0506099933550872
3302.0,0.05051241005349638
3301.0,0.050463626623857394
3300.0,0.05036607620073763
3299.0,0.050317309204795935
3298.0,0.05021979163799939
3297.0,0.050171041064686284
3296.0,0.050171041064686284
3295.0,0.050171041064686284
3294.0,0.050073556332087765
3293.0,0.04997609347667353
3292.0,0.04978123335813667
3291.0,0.04958646063061889
3290.0,0.04944043838819989
3289.0,0.04934311749548925
3288.0,0.049245818406496555
3287.0,0.049245818406496555
3286.0,0.04919717703534143
3285.0,0.04919717703534143
3284.0,0.04909991063361274
3283.0,0.04900266601119507
3282.0,0.04885683989244738
3281.0,0.04871106272232795
3280.0,0.0486139051197072
3279.0,0.048565334467987054
3278.0,0.04851676924770687
3277.0,0.04851676924770687
3276.0,0.048565334467987054
3275.0,0.048565334467987054
3274.0,0.04851676924770687
3273.0,0.048468209457651845
3272.0,0.04837110616336182
3271.0,0.04832256265669943
3270.0,0.04827402457540786
3269.0,0.048225491918274965
3268.0,0.048225491918274965
3267.0,0.04832256265669943
3266.0,0.04837110616336182
3265.0,0.04837110616336182
3264.0,0.04827402457540786
3263.0,0.048128442871635535
3262.0,0.047934409814949674
3261.0,0.04778894189133087
3260.0,0.047691990337874746
3259.0,0.047643522676209304
3258.0,0.047595060422975566
3257.0,0.047595060422975566
3256.0,0.04754660357696672
3255.0,0.04744970610179822
3254.0,0.04730440041308315
3253.0,0.04725597598510167
3252.0,0.04725597598510167
3251.0,0.04730440041308315
3250.0,0.047352830241056854
3249.0,0.04730440041308315
3248.0,0.04711073508906982
3247.0,0.04696554274964315
3246.0,0.04686877481655505
3245.0,0.04686877481655505
3244.0,0.04682039893436585
3243.0,0.04677202844014605
3242.0,0.04667530361081473
3241.0,0.04657860031896477
3240.0,0.046481918555007384
3239.0,0.04628861957244457
3238.0,0.046143701775014145
3237.0,0.04595055323640551
3236.0,0.04580574818413763
3235.0,0.045660991397539874
3234.0,0.045564513671517703
3233.0,0.0454680573730859
3232.0,0.04537162249272897
3231.0,0.04527520902093718
3230.0,0.0451788169482068
3229.0,0.04508244626504121
3228.0,0.044986096961949995
3227.0,0.04488976902944808
3226.0,0.044793462458058375
3225.0,0.04469717723830824
3224.0,0.04460091336073302
3223.0,0.04450467081587295
3222.0,0.044360346976747955
3221.0,0.04421607108308856
3220.0,0.04402377775167454
3219.0,0.0439276630048171
3218.0,0.04383156952463674
3217.0,0.043735497301724546
3216.0,0.04363944632667782
3215.0,0.043495409683302455
3214.0,0.043303435105349175
3213.0,0.04315950984076644
3212.0,0.042967683653061695
3211.0,0.04282386959515394
3210.0,0.04268010314465909
3209.0,0.042584285277331047
3208.0,0.04244059810252043
3207.0,0.042344833056508824
3206.0,0.04224908912272074
3205.0,0.04215336629184985
3204.0,0.04200982159316968
3203.0,0.04181850243505214
3202.0,0.04167506835594681
3201.0,0.04153168163305643
3200.0,0.04138834223512067
3199.0,0.04124505013091051
3198.0,0.041101805289228244
3197.0,0.040958607678906356
3196.0,0.04086316882962593
3195.0,0.04076775094900409
3194.0,0.040672354027829094
3193.0,0.04057697805689475
3192.0,0.04043395336207234
3191.0,0.040243327009005014
3190.0,0.0400527842915015
3189.0,0.039909932095080425
3188.0,0.039719535563357944
3187.0,0.03957679292217042
3186.0,0.03943409718180235
3185.0,0.03924390909822728
3184.0,0.03910132267333921
3183.0,0.038911280232103884
3182.0,0.03876880295533702
3181.0,0.03857890593355173
3180.0,0.03838909190871931
3179.0,0.038199360808321536
3178.0,0.03810452633214956
3177.0,0.03800971255993524
3176.0,0.03786753070176463
3175.0,0.03772539537668518
3174.0,0.03753595394209874
3173.0,0.03744126420403626
3172.0,0.037299268295658994
3171.0,0.03720463014276687
3170.0,0.03701541568300293
3169.0,0.03682628362474838
3168.0,0.03658998431977123
3167.0,0.03644826642590382
3166.0,0.03630659476198117
3165.0,0.03616496929785207
3164.0,0.03602339000339416
3163.0,0.03588185684851508
3162.0,0.035740369803151095
3161.0,0.03559892883726867
3160.0,0.03545753392086315
3159.0,0.03531618502395939
3158.0,0.03517488211661135
3157.0,0.03503362516890207
3156.0,0.03484535401307465
3155.0,0.03465716443937783
3154.0,0.034469056377139484
3153.0,0.03428102975577918
3152.0,0.03414006319292828
3151.0,0.03399914237121604
3150.0,0.0338113190438627
3149.0,0.03367050483612166
3148.0,0.033482823553208085
3147.0,0.03338901331806565
3146.0,0.033295223342125535
3145.0,0.033201453616638954
3144.0,0.03310770413286357
3143.0,0.032920265855503006
3142.0,0.032686081712916426
3141.0,0.03245202378113787
3140.0,0.032218091924200776
3139.0,0.03207779326948268
3138.0,0.031984286006358165
3137.0,0.03189079887180224
3136.0,0.03184406285002961
3135.0,0.03170388495374454
3134.0,0.031563752288295444
3133.0,0.03142366482450232
3132.0,0.03128362253321426
3131.0,0.031096969696171817
3130.0,0.030910397045078586
3129.0,0.030770520137356927
3128.0,0.03058408764601861
3127.0,0.030444315779156517
3126.0,0.03030458888152676
3125.0,0.030164906924202484
3124.0,0.03002526987828502
3123.0,0.029885677714903025
3122.0,0.029746130405213123
3121.0,0.029653123769906697
3120.0,0.02960662792039992
3119.0,0.029560137048236124
3118.0,0.029467170231675777
3117.0,0.029281296279810798
3116.0,0.029095501846216454
3115.0,0.028956208163971375
3114.0,0.028863370523193765
3113.0,0.028816959143838528
3112.0,0.028770552723758724
3111.0,0.02863136320857662
3110.0,0.02849221828874393
3109.0,0.028306761050139073
3108.0,0.028167720075074953
3107.0,0.028075050815808744
3106.0,0.027936083991977778
3105.0,0.027797161620935595
3104.0,0.027658283674251827
3103.0,0.027565723042634938
3102.0,0.027426919073445077
3101.0,0.027334407733889066
3100.0,0.02724191609646076
3099.0,0.027149444152769986
3098.0,0.027056991894431892
3097.0,0.02696455931306696
3096.0,0.02691835039863255
3095.0,0.02682594731702781
3094.0,0.02677975314776626
3093.0,0.026733563891471412
3092.0,0.02664120011360227
3091.0,0.026502691267936695
3090.0,0.026410376572743033
3089.0,0.026318081496016443
3088.0,0.026225806029419818
3087.0,0.02613355016462182
3086.0,0.025995203102585407
3085.0,0.025856900097785074
3084.0,0.025718641122169483
3083.0,0.02562649291857677
3082.0,0.02553436426275746
3081.0,0.02544225514642018
3080.0,0.025350165561278004
3079.0,0.02521206778644225
3078.0,0.02512002699306959
3077.0,0.025028005701930978
3076.0,0.024936003904763915
3075.0,0.024798037742147727
3074.0,0.024660115394541604
3073.0,0.024430342106337877
3072.0,0.024200690320592466
3071.0,0.024017056287453542
3070.0,0.023925268380126097
3069.0,0.023879381700184332
3068.0,0.023833499868024743
3067.0,0.023741750742954926
3066.0,0.023604163388120325
3065.0,0.02351246269481
3064.0,0.02342078135989012
3063.0,0.023283295636617574
3062.0,0.02314585342378117
3061.0,0.02300845469384938
3060.0,0.022871099419317753
3059.0,0.022733787572707387
3058.0,0.022642270454698687
3057.0,0.02255077261765881
3056.0,0.022505030926963654
3055.0,0.02245929405346514
3054.0,0.022413561996148967
3053.0,0.022322112326006227
3052.0,0.0221849739168134
3051.0,0.02200219004126036
3050.0,0.021865152601710403
3049.0,0.021728158389364705
3048.0,0.021636852916117055
3047.0,0.021499930688540836
3046.0,0.021363051615525652
3045.0,0.02122621566987748
3044.0,0.021089422824428272
3043.0,0.020952673052035298
3042.0,0.020907099361673565
3041.0,0.02081596632558158
3040.0,0.020724852408976924
3039.0,0.020633757603838898
3038.0,0.020497151212598652
3037.0,0.020406104151069693
3036.0,0.02026956933771462
3035.0,0.02013307743509718
3034.0,0.019996628416253603
3033.0,0.019860222254245663
3032.0,0.019678413991243593
3031.0,0.01954210772389997
3030.0,0.01940584422377989
3029.0,0.019315025636685412
3028.0,0.019178833355664393
3027.0,0.019042683770379876
3026.0,0.018906576854070378
3025.0,0.018770512579999288
3024.0,0.018634490921455527
3023.0,0.01840788278591865
3022.0,0.018226681372252695
3021.0,0.018045555530026514
3020.0,0.017909760704207134
3019.0,0.017774008325325275
3018.0,0.017638298366853045
3017.0,0.017457417697056554
3016.0,0.017231422748988034
3015.0,0.017005545341335804
3014.0,0.01677978535189717
3013.0,0.016599261819461697
3012.0,0.01646391839700767
3011.0,0.01628352608625061
3010.0,0.016103208673694303
3009.0,0.015922966097169144
3008.0,0.015742798294583915
3007.0,0.015562705203923999
3006.0,0.01538268676325183
3005.0,0.015202742910707112
3004.0,0.015067833932588037
3003.0,0.014932966849499074
3002.0,0.014798141635428141
3001.0,0.014618439768003144
3000.0,0.014438812226654996
2999.0,0.014259258949925524
2998.0,0.014079779876432497
2997.0,0.013945219230304673
2996.0,0.01381070026317599
2995.0,0.013631406429727155
2994.0,0.013407393177789162
2993.0,0.013138729709955221
2992.0,0.012914970375878188
2991.0,0.01264661126420652
2990.0,0.012467797270160563
2989.0,0.012378417874516323
2988.0,0.012289056869694281
2987.0,0.012199714248127602
2986.0,0.012110390002254778
2985.0,0.012065734767841452
2984.0,0.0119764380713403
2983.0,0.011931796607364653
2982.0,0.011887159731648111
2981.0,0.011797899741219142
2980.0,0.011708658092512314
2979.0,0.011619434777991433
2978.0,0.011574829993696856
2977.0,0.011574829993696856
2976.0,0.011530229790124524
2975.0,0.011530229790124524
2974.0,0.011574829993696856
2973.0,0.011619434777991433
2972.0,0.011708658092512314
2971.0,0.011797899741219142
2970.0,0.011931796607364653
2969.0,0.012065734767841452
2968.0,0.012289056869694281
2967.0,0.012512493866907004
2966.0,0.012780770091995297
2965.0,0.013049212141483357
2964.0,0.013362604389846044
2963.0,0.013631406429727155
2962.0,0.01385553528947936
2961.0,0.014124642691606404
2960.0,0.014393916947563534
2959.0,0.014663358264387139
2958.0,0.014888020460646079
2957.0,0.015067833932588037
2956.0,0.015247721884586563
2955.0,0.01547268665620738
2954.0,0.015652742414136167
2953.0,0.015877917138889863
2952.0,0.016058141016111804
2951.0,0.01628352608625061
2950.0,0.016689514205884493
2949.0,0.01727661233145472
2948.0,0.01809082990920774
2947.0,0.0190880622231564
2946.0,0.02026956933771462
2945.0,0.021636852916117055
2944.0,0.023191662661933732
2943.0,0.024890010313838973
2942.0,0.026872146400301444
2941.0,0.029141943003497595
2940.0,0.031657169041054534
2939.0,0.034469056377139484
2938.0,0.03753595394209874
2937.0,0.04081545726880842
2936.0,0.04440844959427559
2935.0,0.04827402457540786
2934.0,0.0525172634430815
2933.0,0.0571489934456626
2932.0,0.062131203436140536
2931.0,0.0675769736232612
2930.0,0.0734517753643813
2929.0,0.07998108397108505
2928.0,0.0872466963286771
2927.0,0.09533854208447545
2926.0,0.10452220372428545
2925.0,0.1148084593931522
2924.0,0.12644690648638135
2923.0,0.13930272594796111
2922.0,0.15335367142288248
2921.0,0.16845014800424418
2920.0,0.1840903491132253
2919.0,0.19921420967223735
2918.0,0.21253952548158495
2917.0,0.22206595116222072
2916.0,0.22643295107394135
2915.0,0.2251182341812037
2914.0,0.21867554433301217
2913.0,0.2088709992727138
2912.0,0.19749993223560658
2911.0,0.18601892436352818
2910.0,0.17528855653526554
2909.0,0.1657700971483227
2908.0,0.15751557558842988
2907.0,0.15051916275601385
2906.0,0.14448084433219988
2905.0,0.13930272594796111
2904.0,0.13471831500438958
2903.0,0.13076828026902376
2902.0,0.12731939284807026
2901.0,0.12430223801979201
2900.0,0.12159311241900439
2899.0,0.11907213473291511
2898.0,0.11662251025166115
2897.0,0.11429961987167014
2896.0,0.1120452961911984
2895.0,0.10980261378997125
2894.0,0.10757145305477
2893.0,0.10529634739076998
2892.0,0.10303309806684524
2891.0,0.10067205012234592
2890.0,0.09821485469640057
2889.0,0.0957714836599215
2888.0,0.09328794305703592
2887.0,0.09076499663169257
2886.0,0.08830984124613894
2885.0,0.08581556657675371
2884.0,0.0832303157168639
2883.0,0.08066036321258663
2882.0,0.07805354577058976
2881.0,0.07546228222451012
2880.0,0.07283502570063005
2879.0,0.07017251876930874
2878.0,0.0675769736232612
2877.0,0.06509774167768612
2876.0,0.0627329277885873
2875.0,0.060530669156469985
2874.0,0.058538260652670315
2873.0,0.05665390164340933
2872.0,0.0549747987575373
2871.0,0.053449489430144714
2870.0,0.05207638016827354
2869.0,0.05085404758005607
2868.0,0.04987865248862655
2867.0,0.04919717703534143
2866.0,0.048905443158337114
2865.0,0.04905128560059957
2864.0,0.04968383607539972
2863.0,0.05085404758005607
2862.0,0.05271335532220167
2861.0,0.05546797900801881
2860.0,0.05918479134919874
2859.0,0.06403953101083348
2858.0,0.0702746216219956
2857.0,0.0781575185941421
2856.0,0.08820340956274775
2855.0,0.10072681268239614
2854.0,0.11611154211151953
2853.0,0.13448148092522594
2852.0,0.15508812608785938
2851.0,0.17619984625012197
2850.0,0.19449914184159978
2849.0,0.20641913263184408
2848.0,0.2093630380682967
2847.0,0.20349504844670374
2846.0,0.19131649087103075
2845.0,0.17619984625012197
2844.0,0.16077342598656452
2843.0,0.1466060225493342
2842.0,0.1341264717921853
2841.0,0.12343578601615435
2840.0,0.11441264381034388
2839.0,0.10684878687013422
2838.0,0.10039834085387778
2837.0,0.09485199814398393
2836.0,0.0900163050601559
2835.0,0.08581556657675371
2834.0,0.08212704480115218
2833.0,0.07893810920972144
2832.0,0.07613452481449845
2831.0,0.07365755337434488
2830.0,0.07145053299833615
2829.0,0.06945847013556561
2828.0,0.06767846801070698
2827.0,0.06600683616875758
2826.0,0.06444235490698613
2825.0,0.06303410289212974
2824.0,0.06173051653708872
2823.0,0.060530669156469985
2822.0,0.05938391766259232
2821.0,0.0582898510583536
2820.0,0.05729763111133224
2819.0,0.056406567231630955
2818.0,0.055566682299785564
2817.0,0.05477768336465916
2816.0,0.054088483180726676
2815.0,0.05340037498486727
2814.0,0.05271335532220167
2813.0,0.052027420754219955
2812.0,0.05139145012356372
2811.0,0.05075640943173498
2810.0,0.05021979163799939
2809.0,0.04968383607539972
2808.0,0.04919717703534143
2807.0,0.04871106272232795
2806.0,0.048128442871635535
2805.0,0.047595060422975566
2804.0,0.04711073508906982
2803.0,0.04667530361081473
2802.0,0.04633693625290869
2801.0,0.046047116768076934
2800.0,0.04570923829887308
2799.0,0.045323413081356456
2798.0,0.044937930324967956
2797.0,0.04455278942230456
2796.0,0.044167989767578186
2795.0,0.04383156952463674
2794.0,0.04344740808260106
2793.0,0.0431115453499229
2792.0,0.042775942156833
2791.0,0.04248848854552012
2790.0,0.04215336629184985
2789.0,0.0417706858116178
2788.0,0.041436116778032606
2787.0,0.041149548320321694
2786.0,0.04081545726880842
2785.0,0.04057697805689475
2784.0,0.0402909757535701
2783.0,0.040005161671583744
2782.0,0.039719535563357944
2781.0,0.03943409718180235
2780.0,0.03919637508823026
2779.0,0.038911280232103884
2778.0,0.038673844065289176
2777.0,0.038436537637930535
2776.0,0.038199360808321536
2775.0,0.03796231343498735
2774.0,0.03772539537668518
2773.0,0.037488606492403154
2772.0,0.037299268295658994
2771.0,0.0371100126082089
2770.0,0.03692083935817303
2769.0,0.036731748473764814
2768.0,0.036542739883292485
2767.0,0.03635381351515665
2766.0,0.03621217265444465
2765.0,0.0360705779734416
2764.0,0.03592902944204468
2763.0,0.035740369803151095
2762.0,0.03555179208333925
2761.0,0.03541041251009669
2760.0,0.03526907894637077
2759.0,0.03508070571335731
2758.0,0.03489241415094413
2757.0,0.03475124903287918
2756.0,0.03465716443937783
2755.0,0.03456310022373987
2754.0,0.034469056377139484
2753.0,0.03432802877989327
2752.0,0.034187046963396917
2751.0,0.034046110897937076
2750.0,0.033905220553829274
2749.0,0.03376437590141812
2748.0,0.03367050483612166
2747.0,0.03362357691107709
2746.0,0.03352973627071565
2745.0,0.03343591590268957
2744.0,0.03334211579824231
2743.0,0.033295223342125535
2742.0,0.033201453616638954
2741.0,0.033154576345083564
2740.0,0.033154576345083564
2739.0,0.033154576345083564
2738.0,0.03310770413286357
2737.0,0.03301397488206215
2736.0,0.032873418923587305
2735.0,0.03273290844021437
2734.0,0.03263926003405038
2733.0,0.03249882527715853
2732.0,0.032311649546687526
2731.0,0.03217132066984485
2730.0,0.032031037121307726
2729.0,0.031984286006358165
2728.0,0.03189079887180224
2727.0,0.03184406285002961
2726.0,0.03175060589208267
2725.0,0.03170388495374454
2724.0,0.031657169041054534
2723.0,0.031563752288295444
2722.0,0.03147035562516054
2721.0,0.03133029827960798
2720.0,0.031236951802751545
2719.0,0.031143625385307683
2718.0,0.031096969696171817
2717.0,0.03105031901865729
2716.0,0.031003673351687855
2715.0,0.030957032694186815
2714.0,0.030910397045078586
2713.0,0.03081714076773867
2712.0,0.0307239045110681
2711.0,0.03063068826647264
2710.0,0.030537492025363155
2709.0,0.030444315779156517
2708.0,0.03030458888152676
2707.0,0.030164906924202484
2706.0,0.030118356253500123
2705.0,0.030071810571884017
2704.0,0.030071810571884017
2703.0,0.030071810571884017
2702.0,0.029978734171634214
2701.0,0.029885677714903025
2700.0,0.029746130405213123
2699.0,0.029653123769906697
2698.0,0.02960662792039992
2697.0,0.029513651152349718
2696.0,0.029467170231675777
2695.0,0.029374223311705583
2694.0,0.029234840219232394
2693.0,0.029188389127482228
2692.0,0.029234840219232394
2691.0,0.029234840219232394
2690.0,0.029188389127482228
2689.0,0.029141943003497595
2688.0,0.02904906565457588
2687.0,0.029002634427514717
2686.0,0.028956208163971375
2685.0,0.028956208163971375
2684.0,0.02890978686288448
2683.0,0.028863370523193765
2682.0,0.028816959143838528
2681.0,0.028770552723758724
2680.0,0.028770552723758724
2679.0,0.028677754757187035
2678.0,0.02863136320857662
2677.0,0.02858497661500481
2676.0,0.028538594975413334
2675.0,0.028538594975413334
2674.0,0.028538594975413334
2673.0,0.028538594975413334
2672.0,0.02858497661500481
2671.0,0.02858497661500481
2670.0,0.02863136320857662
2669.0,0.02863136320857662
2668.0,0.02863136320857662
2667.0,0.02863136320857662
2666.0,0.028677754757187035
2665.0,0.02872415126189476
2664.0,0.02872415126189476
2663.0,0.02872415126189476
2662.0,0.028677754757187035
2661.0,0.02858497661500481
2660.0,0.028538594975413334
2659.0,0.02849221828874393
2658.0,0.02849221828874393
2657.0,0.028445846553939003
2656.0,0.028445846553939003
2655.0,0.02839947976994095
2654.0,0.028353117935693284
2653.0,0.028306761050139073
2652.0,0.028306761050139073
2651.0,0.028306761050139073
2650.0,0.028306761050139073
2649.0,0.028306761050139073
2648.0,0.02826040911222183
2647.0,0.028214062120885508
2646.0,0.028167720075074953
2645.0,0.02812138297373412
2644.0,0.028075050815808744
2643.0,0.028028723600243666
2642.0,0.02798240132598462
2641.0,0.02798240132598462
2640.0,0.028028723600243666
2639.0,0.028028723600243666
2638.0,0.028028723600243666
2637.0,0.028028723600243666
2636.0,0.028028723600243666
2635.0,0.028075050815808744
2634.0,0.028075050815808744
2633.0,0.028075050815808744
2632.0,0.028028723600243666
2631.0,0.02798240132598462
2630.0,0.027936083991977778
2629.0,0.027889771597169544
2628.0,0.027797161620935595
2627.0,0.027750864037404455
2626.0,0.0277045713888604
2625.0,0.027612000892527133
2624.0,0.02751945012352408
2623.0,0.02738066094037661
2622.0,0.027288159452933503
2621.0,0.027149444152769986
2620.0,0.027056991894431892
2619.0,0.02696455931306696
2618.0,0.026872146400301444
2617.0,0.02677975314776626
2616.0,0.026733563891471412
2615.0,0.026687379547098322
2614.0,0.026687379547098322
2613.0,0.026595025589939425
2612.0,0.02654885597506529
2611.0,0.026502691267936695
2610.0,0.026456531467510258
2609.0,0.026410376572743033
2608.0,0.026410376572743033
2607.0,0.02636422658259252
2606.0,0.026318081496016443
2605.0,0.026318081496016443
2604.0,0.026271941311972746
2603.0,0.026271941311972746
2602.0,0.026318081496016443
2601.0,0.026318081496016443
2600.0,0.026225806029419818
2599.0,0.02613355016462182
2598.0,0.026041313893296225
2597.0,0.025995203102585407
2596.0,0.025949097207122573
2595.0,0.025902996205869
2594.0,0.025856900097785074
2593.0,0.025810808881832736
2592.0,0.025810808881832736
2591.0,0.025764722556973707
2590.0,0.025718641122169483
2589.0,0.025672564576383117
2588.0,0.02562649291857677
2587.0,0.02558042614771394
2586.0,0.02553436426275746
2585.0,0.02553436426275746
2584.0,0.02553436426275746
2583.0,0.02553436426275746
2582.0,0.025488307262671706
2581.0,0.02539620791296726
2580.0,0.025350165561278004
2579.0,0.025304128090317013
2578.0,0.025304128090317013
2577.0,0.025258095499050004
2576.0,0.025258095499050004
2575.0,0.02521206778644225
2574.0,0.02516604495145991
2573.0,0.02516604495145991
2572.0,0.025074013910237447
2571.0,0.02498200236711723
2570.0,0.024890010313838973
2569.0,0.024798037742147727
2568.0,0.02475205875931885
2567.0,0.024706084643793647
2566.0,0.024660115394541604
2565.0,0.024660115394541604
2564.0,0.02461415101053266
2563.0,0.02461415101053266
2562.0,0.024568191490736968
2561.0,0.024522236834125355
2560.0,0.024522236834125355
2559.0,0.024522236834125355
2558.0,0.024568191490736968
2557.0,0.024568191490736968
2556.0,0.024568191490736968
2555.0,0.024568191490736968
2554.0,0.024522236834125355
2553.0,0.024430342106337877
2552.0,0.024338466818941473
2551.0,0.024292536462819925
2550.0,0.024246610963712723
2549.0,0.024246610963712723
2548.0,0.024246610963712723
2547.0,0.024246610963712723
2546.0,0.024246610963712723
2545.0,0.024246610963712723
2544.0,0.024246610963712723
2543.0,0.024154774532432866
2542.0,0.02406295751688936
2541.0,0.023971159908874107
2540.0,0.023925268380126097
2539.0,0.023879381700184332
2538.0,0.023833499868024743
2537.0,0.023787622882622816
2536.0,0.023833499868024743
2535.0,0.023833499868024743
2534.0,0.023879381700184332
2533.0,0.023879381700184332
2532.0,0.023879381700184332
2531.0,0.023879381700184332
2530.0,0.023879381700184332
2529.0,0.023879381700184332
2528.0,0.023879381700184332
2527.0,0.023833499868024743
2526.0,0.023741750742954926
2525.0,0.023695883447997224
2524.0,0.023604163388120325
2523.0,0.02355831062115543
2522.0,0.02355831062115543
2521.0,0.023604163388120325
2520.0,0.023604163388120325
2519.0,0.02355831062115543
2518.0,0.02355831062115543
2517.0,0.02355831062115543
2516.0,0.023604163388120325
2515.0,0.02355831062115543
2514.0,0.02351246269481
2513.0,0.023466619608062178
2512.0,0.02342078135989012
2511.0,0.023374947949272418
2510.0,0.023374947949272418
2509.0,0.023329119375188556
2508.0,0.023283295636617574
2507.0,0.023283295636617574
2506.0,0.023283295636617574
2505.0,0.023237476732539397
2504.0,0.023237476732539397
2503.0,0.023191662661933732
2502.0,0.02314585342378117
2501.0,0.02314585342378117
2500.0,0.02314585342378117
2499.0,0.02314585342378117
2498.0,0.02314585342378117
2497.0,0.02314585342378117
2496.0,0.023191662661933732
2495.0,0.023191662661933732
2494.0,0.023191662661933732
2493.0,0.02314585342378117
2492.0,0.023100049017062307
2491.0,0.023054249440757957
2490.0,0.023054249440757957
2489.0,0.023054249440757957
2488.0,0.023100049017062307
2487.0,0.023191662661933732
2486.0,0.023191662661933732
2485.0,0.023191662661933732
2484.0,0.02314585342378117
2483.0,0.023054249440757957
2482.0,0.02296266477531872
2481.0,0.02291687968414724
2480.0,0.02291687968414724
2479.0,0.02296266477531872
2478.0,0.02300845469384938
2477.0,0.023054249440757957
2476.0,0.023100049017062307
2475.0,0.023054249440757957
2474.0,0.02300845469384938
2473.0,0.02296266477531872
2472.0,0.02296266477531872
2471.0,0.02296266477531872
2470.0,0.02291687968414724
2469.0,0.022871099419317753
2468.0,0.02282532397981263
2467.0,0.022733787572707387
2466.0,0.022688026603074007
2465.0,0.022642270454698687
2464.0,0.022642270454698687
2463.0,0.022642270454698687
2462.0,0.022642270454698687
2461.0,0.022688026603074007
2460.0,0.022688026603074007
2459.0,0.022688026603074007
2458.0,0.022688026603074007
2457.0,0.022688026603074007
2456.0,0.022688026603074007
2455.0,0.022642270454698687
2454.0,0.022642270454698687
2453.0,0.02259651912656535
2452.0,0.02259651912656535
2451.0,0.02255077261765881
2450.0,0.022505030926963654
2449.0,0.022505030926963654
2448.0,0.02245929405346514
2447.0,0.022413561996148967
2446.0,0.022413561996148967
2445.0,0.022413561996148967
2444.0,0.02245929405346514
2443.0,0.02245929405346514
2442.0,0.02245929405346514
2441.0,0.022505030926963654
2440.0,0.022505030926963654
2439.0,0.02255077261765881
2438.0,0.02255077261765881
2437.0,0.02255077261765881
2436.0,0.022505030926963654
2435.0,0.022505030926963654
2434.0,0.022505030926963654
2433.0,0.022505030926963654
2432.0,0.02255077261765881
2431.0,0.02259651912656535
2430.0,0.022688026603074007
2429.0,0.022688026603074007
2428.0,0.022642270454698687
2427.0,0.02255077261765881
2426.0,0.022505030926963654
2425.0,0.022505030926963654
2424.0,0.02255077261765881
2423.0,0.02259651912656535
2422.0,0.02259651912656535
2421.0,0.02255077261765881
2420.0,0.022505030926963654
2419.0,0.02255077261765881
2418.0,0.02259651912656535
2417.0,0.022642270454698687
2416.0,0.022642270454698687
2415.0,0.022642270454698687
2414.0,0.02259651912656535
2413.0,0.02255077261765881
2412.0,0.02255077261765881
2411.0,0.022505030926963654
2410.0,0.02245929405346514
2409.0,0.02245929405346514
2408.0,0.022413561996148967
2407.0,0.02245929405346514
2406.0,0.02245929405346514
2405.0,0.02245929405346514
2404.0,0.022413561996148967
2403.0,0.022413561996148967
2402.0,0.022413561996148967
2401.0,0.02245929405346514
2400.0,0.02245929405346514
2399.0,0.022413561996148967
2398.0,0.022413561996148967
2397.0,0.022367834754000393
2396.0,0.022367834754000393
2395.0,0.022367834754000393
2394.0,0.022367834754000393
2393.0,0.022367834754000393
2392.0,0.022367834754000393
2391.0,0.022413561996148967
2390.0,0.02245929405346514
2389.0,0.02255077261765881
2388.0,0.02255077261765881
2387.0,0.02255077261765881
2386.0,0.022505030926963654
2385.0,0.02245929405346514
2384.0,0.022505030926963654
2383.0,0.02255077261765881
2382.0,0.02259651912656535
2381.0,0.022642270454698687
2380.0,0.02255077261765881
2379.0,0.022413561996148967
2378.0,0.022230681908425698
2377.0,0.02200219004126036
2376.0,0.021773818325474092
2375.0,0.021636852916117055
2374.0,0.02159120737696063
2373.0,0.021819483062586187
2372.0,0.0221849739168134
2371.0,0.02255077261765881
2370.0,0.02296266477531872
2369.0,0.023695883447997224
2368.0,0.024568191490736968
2367.0,0.02512002699306959
2366.0,0.024936003904763915
2365.0,0.024476287039668643
2364.0,0.024154774532432866
2363.0,0.024108863598207186
2362.0,0.024108863598207186
2361.0,0.023833499868024743
2360.0,0.023283295636617574
2359.0,0.022733787572707387
2358.0,0.02259651912656535
2357.0,0.02291687968414724
2356.0,0.02300845469384938
2355.0,0.022688026603074007
2354.0,0.022322112326006227
2353.0,0.02245929405346514
2352.0,0.023100049017062307
2351.0,0.02351246269481
2350.0,0.023283295636617574
2349.0,0.022230681908425698
2348.0,0.021043834782408455
2347.0,0.020542681902151694
2346.0,0.0211806132671577
2345.0,0.022505030926963654
2344.0,0.023283295636617574
2343.0,0.023237476732539397
2342.0,0.02282532397981263
2341.0,0.022733787572707387
2340.0,0.02314585342378117
2339.0,0.023879381700184332
2338.0,0.02484402159331056
2337.0,0.025718641122169483
2336.0,0.026087429580295085
2335.0,0.025810808881832736
2334.0,0.02521206778644225
2333.0,0.02461415101053266
2332.0,0.024246610963712723
2331.0,0.023925268380126097
2330.0,0.023879381700184332
2329.0,0.023833499868024743
2328.0,0.023833499868024743
2327.0,0.023604163388120325
2326.0,0.023237476732539397
2325.0,0.023054249440757957
2324.0,0.02300845469384938
2323.0,0.023054249440757957
2322.0,0.023100049017062307
2321.0,0.023054249440757957
2320.0,0.02291687968414724
2319.0,0.022642270454698687
2318.0,0.02255077261765881
2317.0,0.02255077261765881
2316.0,0.022688026603074007
2315.0,0.02282532397981263
2314.0,0.022871099419317753
2313.0,0.02282532397981263
2312.0,0.02277955336461468
2311.0,0.022688026603074007
2310.0,0.022642270454698687
2309.0,0.02259651912656535
2308.0,0.02259651912656535
2307.0,0.02255077261765881
2306.0,0.02255077261765881
2305.0,0.022505030926963654
2304.0,0.02245929405346514
2303.0,0.022413561996148967
2302.0,0.022413561996148967
2301.0,0.022367834754000393
2300.0,0.022322112326006227
2299.0,0.022230681908425698
2298.0,0.0221849739168134
2297.0,0.022139270735302752
2296.0,0.022139270735302752
2295.0,0.022139270735302752
2294.0,0.022139270735302752
2293.0,0.022093572362881675
2292.0,0.02204787879853809
2291.0,0.02200219004126036
2290.0,0.021956506090037076
2289.0,0.02204787879853809
2288.0,0.022139270735302752
2287.0,0.022230681908425698
2286.0,0.022322112326006227
2285.0,0.022367834754000393
2284.0,0.022367834754000393
2283.0,0.02227639471115217
2282.0,0.0221849739168134
2281.0,0.022139270735302752
2280.0,0.02204787879853809
2279.0,0.02204787879853809
2278.0,0.02200219004126036
2277.0,0.02200219004126036
2276.0,0.02200219004126036
2275.0,0.02200219004126036
2274.0,0.021956506090037076
2273.0,0.021956506090037076
2272.0,0.021956506090037076
2271.0,0.021910826943857264
2270.0,0.021910826943857264
2269.0,0.021910826943857264
2268.0,0.021865152601710403
2267.0,0.021865152601710403
2266.0,0.021865152601710403
2265.0,0.021910826943857264
2264.0,0.021865152601710403
2263.0,0.021865152601710403
2262.0,0.021819483062586187
2261.0,0.021819483062586187
2260.0,0.021773818325474092
2259.0,0.021773818325474092
2258.0,0.021773818325474092
2257.0,0.021773818325474092
2256.0,0.021773818325474092
2255.0,0.021773818325474092
2254.0,0.021773818325474092
2253.0,0.021819483062586187
2252.0,0.021819483062586187
2251.0,0.021865152601710403
2250.0,0.021865152601710403
2249.0,0.021819483062586187
2248.0,0.021819483062586187
2247.0,0.021773818325474092
2246.0,0.021728158389364705
2245.0,0.021728158389364705
2244.0,0.02168250325324883
2243.0,0.021728158389364705
2242.0,0.021773818325474092
2241.0,0.021819483062586187
2240.0,0.021819483062586187
2239.0,0.021773818325474092
2238.0,0.021728158389364705
2237.0,0.021636852916117055
2236.0,0.02159120737696063
2235.0,0.02159120737696063
2234.0,0.021636852916117055
2233.0,0.02168250325324883
2232.0,0.02168250325324883
2231.0,0.021728158389364705
2230.0,0.02168250325324883
2229.0,0.02168250325324883
2228.0,0.02168250325324883
2227.0,0.021636852916117055
2226.0,0.021636852916117055
2225.0,0.02159120737696063
2224.0,0.021545566634771474
2223.0,0.021499930688540836
2222.0,0.021499930688540836
2221.0,0.021499930688540836
2220.0,0.021499930688540836
2219.0,0.021499930688540836
2218.0,0.021499930688540836
2217.0,0.021499930688540836
2216.0,0.0214542995372613
2215.0,0.02140867317992523
2214.0,0.021363051615525652
2213.0,0.021363051615525652
2212.0,0.021363051615525652
2211.0,0.02140867317992523
2210.0,0.02140867317992523
2209.0,0.02140867317992523
2208.0,0.02140867317992523
2207.0,0.02140867317992523
2206.0,0.02140867317992523
2205.0,0.02140867317992523
2204.0,0.0214542995372613
2203.0,0.0214542995372613
2202.0,0.02140867317992523
2201.0,0.021363051615525652
2200.0,0.021317434843055594
2199.0,0.021317434843055594
2198.0,0.021317434843055594
2197.0,0.021317434843055594
2196.0,0.021317434843055594
2195.0,0.021271822861508305
2194.0,0.02122621566987748
2193.0,0.02122621566987748
2192.0,0.021271822861508305
2191.0,0.021271822861508305
2190.0,0.021271822861508305
2189.0,0.02122621566987748
2188.0,0.0211806132671577
2187.0,0.0211806132671577
2186.0,0.021135015652343103
2185.0,0.0211806132671577
2184.0,0.0211806132671577
2183.0,0.0211806132671577
2182.0,0.02122621566987748
2181.0,0.02122621566987748
2180.0,0.02122621566987748
2179.0,0.0211806132671577
2178.0,0.0211806132671577
2177.0,0.0211806132671577
2176.0,0.021135015652343103
2175.0,0.021135015652343103
2174.0,0.021089422824428272
2173.0,0.021089422824428272
2172.0,0.021089422824428272
2171.0,0.021135015652343103
2170.0,0.021135015652343103
2169.0,0.021135015652343103
2168.0,0.021135015652343103
2167.0,0.021135015652343103
2166.0,0.0211806132671577
2165.0,0.0211806132671577
2164.0,0.02122621566987748
2163.0,0.0211806132671577
2162.0,0.021135015652343103
2161.0,0.021135015652343103
2160.0,0.021089422824428272
2159.0,0.021089422824428272
2158.0,0.021089422824428272
2157.0,0.021135015652343103
2156.0,0.021135015652343103
2155.0,0.021089422824428272
2154.0,0.021043834782408455
2153.0,0.0209982515252789
2152.0,0.021043834782408455
2151.0,0.021043834782408455
2150.0,0.021043834782408455
2149.0,0.021043834782408455
2148.0,0.0209982515252789
2147.0,0.020952673052035298
2146.0,0.0209982515252789
2145.0,0.0209982515252789
2144.0,0.0209982515252789
2143.0,0.0209982515252789
2142.0,0.0209982515252789
2141.0,0.0209982515252789
2140.0,0.0209982515252789
2139.0,0.020952673052035298
2138.0,0.020907099361673565
2137.0,0.020907099361673565
2136.0,0.020861530453190058
2135.0,0.02081596632558158
2134.0,0.020770406977844713
2133.0,0.020770406977844713
2132.0,0.020770406977844713
2131.0,0.02081596632558158
2130.0,0.02081596632558158
2129.0,0.020861530453190058
2128.0,0.020861530453190058
2127.0,0.020861530453190058
2126.0,0.020861530453190058
2125.0,0.02081596632558158
2124.0,0.02081596632558158
2123.0,0.020770406977844713
2122.0,0.020770406977844713
2121.0,0.020770406977844713
2120.0,0.020724852408976924
2119.0,0.02067930261797568
2118.0,0.02067930261797568
2117.0,0.02067930261797568
2116.0,0.020724852408976924
2115.0,0.020770406977844713
2114.0,0.020861530453190058
2113.0,0.020907099361673565
2112.0,0.020952673052035298
2111.0,0.020907099361673565
2110.0,0.02081596632558158
2109.0,0.020724852408976924
2108.0,0.020633757603838898
2107.0,0.020633757603838898
2106.0,0.020633757603838898
2105.0,0.020633757603838898
2104.0,0.020633757603838898
2103.0,0.020633757603838898
2102.0,0.020633757603838898
2101.0,0.020633757603838898
2100.0,0.02067930261797568
2099.0,0.020724852408976924
2098.0,0.020724852408976924
2097.0,0.020724852408976924
2096.0,0.020724852408976924
2095.0,0.02067930261797568
2094.0,0.02067930261797568
2093.0,0.020633757603838898
2092.0,0.020633757603838898
2091.0,0.02058821736556471
2090.0,0.020542681902151694
2089.0,0.020497151212598652
2088.0,0.020497151212598652
2087.0,0.020497151212598652
2086.0,0.020542681902151694
2085.0,0.020542681902151694
2084.0,0.02058821736556471
2083.0,0.020633757603838898
2082.0,0.020633757603838898
2081.0,0.020633757603838898
2080.0,0.020633757603838898
2079.0,0.02058821736556471
2078.0,0.02058821736556471
2077.0,0.02058821736556471
2076.0,0.020633757603838898
2075.0,0.020633757603838898
2074.0,0.02067930261797568
2073.0,0.02067930261797568
2072.0,0.020633757603838898
2071.0,0.02058821736556471
2070.0,0.020542681902151694
2069.0,0.020542681902151694
2068.0,0.020497151212598652
2067.0,0.020497151212598652
2066.0,0.020497151212598652
2065.0,0.020497151212598652
2064.0,0.020542681902151694
2063.0,0.020542681902151694
2062.0,0.020497151212598652
2061.0,0.020497151212598652
2060.0,0.02045162529590483
2059.0,0.020406104151069693
2058.0,0.02036058777709271
2057.0,0.02036058777709271
2056.0,0.02036058777709271
2055.0,0.02036058777709271
2054.0,0.02036058777709271
2053.0,0.02036058777709271
2052.0,0.02036058777709271
2051.0,0.02036058777709271
2050.0,0.02036058777709271
2049.0,0.02045162529590483
2048.0,0.02045162529590483
2047.0,0.02045162529590483
2046.0,0.020406104151069693
2045.0,0.020406104151069693
2044.0,0.02036058777709271
2043.0,0.02036058777709271
2042.0,0.020406104151069693
2041.0,0.020406104151069693
2040.0,0.02045162529590483
2039.0,0.02045162529590483
2038.0,0.02045162529590483
2037.0,0.02045162529590483
2036.0,0.02045162529590483
2035.0,0.020406104151069693
2034.0,0.020406104151069693
2033.0,0.020406104151069693
2032.0,0.020406104151069693
2031.0,0.020406104151069693
2030.0,0.020406104151069693
2029.0,0.020406104151069693
2028.0,0.020406104151069693
2027.0,0.02036058777709271
2026.0,0.02036058777709271
2025.0,0.020406104151069693
2024.0,0.020406104151069693
2023.0,0.02045162529590483
2022.0,0.02045162529590483
2021.0,0.02045162529590483
2020.0,0.02045162529590483
2019.0,0.02045162529590483
2018.0,0.02045162529590483
2017.0,0.02045162529590483
2016.0,0.020406104151069693
2015.0,0.020315076172974234
2014.0,0.02026956933771462
2013.0,0.02022406727031445
2012.0,0.02022406727031445
2011.0,0.02022406727031445
2010.0,0.02022406727031445
2009.0,0.02022406727031445
2008.0,0.02022406727031445
2007.0,0.02022406727031445
2006.0,0.02022406727031445
2005.0,0.020178569969774962
2004.0,0.02013307743509718
2003.0,0.02013307743509718
2002.0,0.020087589665283012
2001.0,0.02004210665933459
2000.0,0.019996628416253603
1999.0,0.019996628416253603
1998.0,0.01995115493504329
1997.0,0.019996628416253603
1996.0,0.019996628416253603
1995.0,0.02004210665933459
1994.0,0.02004210665933459
1993.0,0.019996628416253603
1992.0,0.02004210665933459
1991.0,0.02004210665933459
1990.0,0.020087589665283012
1989.0,0.020087589665283012
1988.0,0.020087589665283012
1987.0,0.02004210665933459
1986.0,0.019996628416253603
1985.0,0.019996628416253603
1984.0,0.019996628416253603
1983.0,0.019996628416253603
1982.0,0.01995115493504329
1981.0,0.01990568621470623
1980.0,0.01990568621470623
1979.0,0.01990568621470623
1978.0,0.01990568621470623
1977.0,0.019860222254245663
1976.0,0.019860222254245663
1975.0,0.019860222254245663
1974.0,0.019860222254245663
1973.0,0.019860222254245663
1972.0,0.01990568621470623
1971.0,0.01990568621470623
1970.0,0.01990568621470623
1969.0,0.01995115493504329
1968.0,0.01995115493504329
1967.0,0.01990568621470623
1966.0,0.01990568621470623
1965.0,0.01995115493504329
1964.0,0.01995115493504329
1963.0,0.01995115493504329
1962.0,0.01995115493504329
1961.0,0.01990568621470623
1960.0,0.019860222254245663
1959.0,0.019814763052665052
1958.0,0.019814763052665052
1957.0,0.019814763052665052
1956.0,0.019860222254245663
1955.0,0.019860222254245663
1954.0,0.019860222254245663
1953.0,0.019814763052665052
1952.0,0.019769308608968306
1951.0,0.019769308608968306
1950.0,0.019769308608968306
1949.0,0.019814763052665052
1948.0,0.019860222254245663
1947.0,0.019860222254245663
1946.0,0.019860222254245663
1945.0,0.019860222254245663
1944.0,0.019814763052665052
1943.0,0.019769308608968306
1942.0,0.019769308608968306
1941.0,0.019814763052665052
1940.0,0.019814763052665052
1939.0,0.019814763052665052
1938.0,0.019769308608968306
1937.0,0.019723858922159776
1936.0,0.019678413991243593
1935.0,0.019678413991243593
1934.0,0.019678413991243593
1933.0,0.019678413991243593
1932.0,0.019723858922159776
1931.0,0.019723858922159776
1930.0,0.019723858922159776
1929.0,0.019723858922159776
1928.0,0.019769308608968306
1927.0,0.019769308608968306
1926.0,0.019769308608968306
1925.0,0.019814763052665052
1924.0,0.019860222254245663
1923.0,0.019860222254245663
1922.0,0.01990568621470623
1921.0,0.01990568621470623
1920.0,0.019860222254245663
1919.0,0.019814763052665052
1918.0,0.019769308608968306
1917.0,0.019814763052665052
1916.0,0.019814763052665052
1915.0,0.019814763052665052
1914.0,0.019814763052665052
1913.0,0.019860222254245663
1912.0,0.019860222254245663
1911.0,0.01990568621470623
1910.0,0.01990568621470623
1909.0,0.01995115493504329
1908.0,0.01995115493504329
1907.0,0.01995115493504329
1906.0,0.01995115493504329
1905.0,0.019996628416253603
1904.0,0.02004210665933459
1903.0,0.020087589665283012
1902.0,0.020087589665283012
1901.0,0.020087589665283012
1900.0,0.02013307743509718
1899.0,0.020178569969774962
1898.0,0.02022406727031445
1897.0,0.02026956933771462
1896.0,0.02022406727031445
1895.0,0.020178569969774962
1894.0,0.02013307743509718
1893.0,0.02013307743509718
1892.0,0.020178569969774962
1891.0,0.020178569969774962
1890.0,0.02013307743509718
1889.0,0.020087589665283012
1888.0,0.019996628416253603
1887.0,0.019860222254245663
1886.0,0.019814763052665052
1885.0,0.019769308608968306
1884.0,0.019814763052665052
1883.0,0.019814763052665052
1882.0,0.019814763052665052
1881.0,0.019769308608968306
1880.0,0.019769308608968306
1879.0,0.019769308608968306
1878.0,0.019769308608968306
1877.0,0.019769308608968306
1876.0,0.019723858922159776
1875.0,0.019678413991243593
1874.0,0.019632973815224997
1873.0,0.019632973815224997
1872.0,0.019678413991243593
1871.0,0.019678413991243593
1870.0,0.019632973815224997
1869.0,0.01958753839310856
1868.0,0.01954210772389997
1867.0,0.01949668180660491
1866.0,0.01954210772389997
1865.0,0.01958753839310856
1864.0,0.019678413991243593
1863.0,0.019678413991243593
1862.0,0.019678413991243593
1861.0,0.019678413991243593
1860.0,0.019632973815224997
1859.0,0.01958753839310856
1858.0,0.01954210772389997
1857.0,0.01949668180660491
1856.0,0.01949668180660491
1855.0,0.01949668180660491
1854.0,0.01954210772389997
1853.0,0.01958753839310856
1852.0,0.01958753839310856
1851.0,0.01958753839310856
1850.0,0.01958753839310856
1849.0,0.019632973815224997
1848.0,0.019632973815224997
1847.0,0.019632973815224997
1846.0,0.01958753839310856
1845.0,0.01954210772389997
1844.0,0.01949668180660491
1843.0,0.01954210772389997
1842.0,0.01958753839310856
1841.0,0.019632973815224997
1840.0,0.019632973815224997
1839.0,0.01958753839310856
1838.0,0.01958753839310856
1837.0,0.01958753839310856
1836.0,0.019632973815224997
1835.0,0.019632973815224997
1834.0,0.019678413991243593
1833.0,0.019723858922159776
1832.0,0.019678413991243593
1831.0,0.01958753839310856
1830.0,0.01949668180660491
1829.0,0.01949668180660491
1828.0,0.01954210772389997
1827.0,0.01954210772389997
1826.0,0.01958753839310856
1825.0,0.01958753839310856
1824.0,0.019632973815224997
1823.0,0.01958753839310856
1822.0,0.01958753839310856
1821.0,0.01958753839310856
1820.0,0.01958753839310856
1819.0,0.01958753839310856
1818.0,0.01954210772389997
1817.0,0.01958753839310856
1816.0,0.019632973815224997
1815.0,0.019678413991243593
1814.0,0.019723858922159776
1813.0,0.019723858922159776
1812.0,0.019723858922159776
1811.0,0.019678413991243593
1810.0,0.019632973815224997
1809.0,0.01958753839310856
1808.0,0.01958753839310856
1807.0,0.01954210772389997
1806.0,0.01958753839310856
1805.0,0.019632973815224997
1804.0,0.019678413991243593
1803.0,0.019678413991243593
1802.0,0.019632973815224997
1801.0,0.019632973815224997
1800.0,0.019632973815224997
1799.0,0.01958753839310856
1798.0,0.019632973815224997
1797.0,0.019678413991243593
1796.0,0.019769308608968306
1795.0,0.019814763052665052
1794.0,0.019769308608968306
1793.0,0.019723858922159776
1792.0,0.019769308608968306
1791.0,0.019769308608968306
1790.0,0.019723858922159776
1789.0,0.019723858922159776
1788.0,0.019723858922159776
1787.0,0.019723858922159776
1786.0,0.019723858922159776
1785.0,0.019678413991243593
1784.0,0.019678413991243593
1783.0,0.019678413991243593
1782.0,0.019723858922159776
1781.0,0.019769308608968306
1780.0,0.019814763052665052
1779.0,0.019769308608968306
1778.0,0.019769308608968306
1777.0,0.019723858922159776
1776.0,0.019769308608968306
1775.0,0.019723858922159776
1774.0,0.019678413991243593
1773.0,0.019632973815224997
1772.0,0.019723858922159776
1771.0,0.019860222254245663
1770.0,0.01995115493504329
1769.0,0.01995115493504329
1768.0,0.01995115493504329
1767.0,0.01990568621470623
1766.0,0.01995115493504329
1765.0,0.02004210665933459
1764.0,0.02013307743509718
1763.0,0.020178569969774962
1762.0,0.020178569969774962
1761.0,0.02022406727031445
1760.0,0.020315076172974234
1759.0,0.020406104151069693
1758.0,0.02045162529590483
1757.0,0.020497151212598652
1756.0,0.02058821736556471
1755.0,0.02067930261797568
1754.0,0.020724852408976924
1753.0,0.020770406977844713
1752.0,0.020861530453190058
1751.0,0.020952673052035298
1750.0,0.021043834782408455
1749.0,0.021135015652343103
1748.0,0.021271822861508305
1747.0,0.021363051615525652
1746.0,0.0214542995372613
1745.0,0.021499930688540836
1744.0,0.021545566634771474
1743.0,0.02159120737696063
1742.0,0.02159120737696063
1741.0,0.021636852916117055
1740.0,0.02168250325324883
1739.0,0.021819483062586187
1738.0,0.021910826943857264
1737.0,0.02200219004126036
1736.0,0.02200219004126036
1735.0,0.021910826943857264
1734.0,0.021956506090037076
1733.0,0.02204787879853809
1732.0,0.0221849739168134
1731.0,0.02227639471115217
1730.0,0.022322112326006227
1729.0,0.022322112326006227
1728.0,0.022367834754000393
1727.0,0.02245929405346514
1726.0,0.02255077261765881
1725.0,0.022642270454698687
1724.0,0.022733787572707387
1723.0,0.02282532397981263
1722.0,0.02291687968414724
1721.0,0.023100049017062307
1720.0,0.023237476732539397
1719.0,0.023283295636617574
1718.0,0.023283295636617574
1717.0,0.023374947949272418
1716.0,0.02355831062115543
1715.0,0.023695883447997224
1714.0,0.023833499868024743
1713.0,0.023971159908874107
1712.0,0.024108863598207186
1711.0,0.024200690320592466
1710.0,0.024292536462819925
1709.0,0.024430342106337877
1708.0,0.024568191490736968
1707.0,0.02475205875931885
1706.0,0.02498200236711723
1705.0,0.025304128090317013
1704.0,0.02553436426275746
1703.0,0.025672564576383117
1702.0,0.02562649291857677
1701.0,0.025672564576383117
1700.0,0.026087429580295085
1699.0,0.026502691267936695
1698.0,0.02682594731702781
1697.0,0.02724191609646076
1696.0,0.0277045713888604
1695.0,0.028028723600243666
1694.0,0.028214062120885508
1693.0,0.028445846553939003
1692.0,0.028770552723758724
1691.0,0.029095501846216454
1690.0,0.029467170231675777
1689.0,0.029932203450862893
1688.0,0.030397735151460825
1687.0,0.030770520137356927
1686.0,0.031003673351687855
1685.0,0.03142366482450232
1684.0,0.032311649546687526
1683.0,0.032920265855503006
1682.0,0.0332483359486222
1681.0,0.03362357691107709
1680.0,0.034046110897937076
1679.0,0.03442204208947208
1678.0,0.03465716443937783
1677.0,0.03489241415094413
1676.0,0.03522197797762394
1675.0,0.03578752703018084
1674.0,0.03625938114211591
1673.0,0.03663723389626394
1672.0,0.03701541568300293
1671.0,0.03739392707587297
1670.0,0.03796231343498735
1669.0,0.03857890593355173
1668.0,0.03914884628031379
1667.0,0.03948165721929198
1666.0,0.039767126871487646
1665.0,0.040005161671583744
1664.0,0.040338629726504704
1663.0,0.04081545726880842
1662.0,0.041340572947066834
1661.0,0.0417706858116178
1660.0,0.04210551278710151
1659.0,0.042344833056508824
1658.0,0.042584285277331047
1657.0,0.042775942156833
1656.0,0.04301563225723992
1655.0,0.043063586155803746
1654.0,0.04320747962950522
1653.0,0.0439276630048171
1652.0,0.044312249686494276
1651.0,0.044360346976747955
1650.0,0.04440844959427559
1649.0,0.044456557540257124
1648.0,0.04455278942230456
1647.0,0.04484161307420642
1646.0,0.04513062893352182
1645.0,0.04527520902093718
1644.0,0.045323413081356456
1643.0,0.04537162249272897
1642.0,0.045323413081356456
1641.0,0.045323413081356456
1640.0,0.04527520902093718
1639.0,0.0451788169482068
1638.0,0.044986096961949995
1637.0,0.04460091336073302
1636.0,0.04421607108308856
1635.0,0.04387961360698034
1634.0,0.043495409683302455
1633.0,0.04315950984076644
1632.0,0.04287180232318688
1631.0,0.04248848854552012
1630.0,0.04210551278710151
1629.0,0.04167506835594681
1628.0,0.041340572947066834
1627.0,0.041006334969674096
1626.0,0.04062466342415694
1625.0,0.040243327009005014
1624.0,0.03986232513620536
1623.0,0.03957679292217042
1622.0,0.039338992729018196
1621.0,0.03914884628031379
1620.0,0.038958783046687984
1619.0,0.03862637240519895
1618.0,0.038199360808321536
1617.0,0.03777276864991497
1616.0,0.03753595394209874
1615.0,0.037346595106788616
1614.0,0.0371573187987575
1613.0,0.03701541568300293
1612.0,0.03682628362474838
1611.0,0.03658998431977123
1610.0,0.03644826642590382
1609.0,0.03630659476198117
1608.0,0.03616496929785207
1607.0,0.03597620715996652
1606.0,0.03583468937826462
1605.0,0.035693217696063595
1604.0,0.03555179208333925
1603.0,0.03541041251009669
1602.0,0.03531618502395939
1601.0,0.03526907894637077
1600.0,0.03512779136222477
1599.0,0.03503362516890207
1598.0,0.03489241415094413
1597.0,0.03479829897408804
1596.0,0.03470420418834386
1595.0,0.03465716443937783
1594.0,0.03456310022373987
1593.0,0.03456310022373987
1592.0,0.03456310022373987
1591.0,0.034516075754861264
1590.0,0.034516075754861264
1589.0,0.034516075754861264
1588.0,0.034469056377139484
1587.0,0.03442204208947208
1586.0,0.03432802877989327
1585.0,0.03428102975577918
1584.0,0.03423403581731388
1583.0,0.034187046963396917
1582.0,0.03409308450480819
1581.0,0.03399914237121604
1580.0,0.033905220553829274
1579.0,0.0338113190438627
1578.0,0.03362357691107709
1577.0,0.03338901331806565
1576.0,0.0332483359486222
1575.0,0.03310770413286357
1574.0,0.03301397488206215
1573.0,0.032920265855503006
1572.0,0.03282657704446046
1571.0,0.032686081712916426
1570.0,0.03249882527715853
1569.0,0.03240522732811035
1568.0,0.032311649546687526
1567.0,0.03217132066984485
1566.0,0.031984286006358165
1565.0,0.03184406285002961
1564.0,0.03175060589208267
1563.0,0.03170388495374454
1562.0,0.03170388495374454
1561.0,0.03151705144606498
1560.0,0.031190286087141805
1559.0,0.03105031901865729
1558.0,0.031003673351687855
1557.0,0.03081714076773867
1556.0,0.0307239045110681
1555.0,0.03063068826647264
1554.0,0.030490901403433135
1553.0,0.030351159519274695
1552.0,0.03030458888152676
1551.0,0.03025802323714588
1550.0,0.030118356253500123
1549.0,0.029978734171634214
1548.0,0.029839156962686353
1547.0,0.029746130405213123
1546.0,0.02960662792039992
1545.0,0.029513651152349718
1544.0,0.029467170231675777
1543.0,0.029281296279810798
1542.0,0.028956208163971375
1541.0,0.028770552723758724
1540.0,0.028816959143838528
1539.0,0.02872415126189476
1538.0,0.028538594975413334
1537.0,0.028445846553939003
1536.0,0.028445846553939003
1535.0,0.028306761050139073
1534.0,0.028075050815808744
1533.0,0.027936083991977778
1532.0,0.027797161620935595
1531.0,0.027565723042634938
1530.0,0.02738066094037661
1529.0,0.027288159452933503
1528.0,0.02724191609646076
1527.0,0.02710321556345563
1526.0,0.026872146400301444
1525.0,0.026733563891471412
1524.0,0.026687379547098322
1523.0,0.02654885597506529
1522.0,0.026410376572743033
1521.0,0.02636422658259252
1520.0,0.026318081496016443
1519.0,0.02613355016462182
1518.0,0.025902996205869
1517.0,0.025856900097785074
1516.0,0.025856900097785074
1515.0,0.025764722556973707
1514.0,0.02553436426275746
1513.0,0.02544225514642018
1512.0,0.02539620791296726
1511.0,0.025350165561278004
1510.0,0.025304128090317013
1509.0,0.025258095499050004
1508.0,0.025258095499050004
1507.0,0.025258095499050004
1506.0,0.025028005701930978
1505.0,0.02484402159331056
1504.0,0.02475205875931885
1503.0,0.024660115394541604
1502.0,0.024522236834125355
1501.0,0.024476287039668643
1500.0,0.024430342106337877
1499.0,0.024292536462819925
1498.0,0.024108863598207186
1497.0,0.02406295751688936
1496.0,0.024108863598207186
1495.0,0.02406295751688936
1494.0,0.023925268380126097
1493.0,0.023971159908874107
1492.0,0.02406295751688936
1491.0,0.023925268380126097
1490.0,0.023604163388120325
1489.0,0.02355831062115543
1488.0,0.02355831062115543
1487.0,0.023374947949272418
1486.0,0.02314585342378117
1485.0,0.023054249440757957
1484.0,0.023100049017062307
1483.0,0.023054249440757957
1482.0,0.023100049017062307
1481.0,0.023466619608062178
1480.0,0.024154774532432866
1479.0,0.025488307262671706
1478.0,0.02863136320857662
1477.0,0.03541041251009669
1476.0,0.04677202844014605
1475.0,0.06193081377661436
1474.0,0.07966792846041071
1473.0,0.09447395156495153
1472.0,0.09859617317474823
1471.0,0.09415017335768128
1470.0,0.08825662214406838
1469.0,0.08370400543686918
1468.0,0.08060807322614072
1467.0,0.07951143534170213
1466.0,0.08249449044745338
1465.0,0.09119340059432579
1464.0,0.10187842445889239
1463.0,0.10851829616048003
1462.0,0.10896458468468917
1461.0,0.10391491457671487
1460.0,0.09490603167212863
1459.0,0.08380934001946239
1458.0,0.07309189829456408
1457.0,0.06565307326174441
1456.0,0.061830653609679764
1455.0,0.05968277842578207
1454.0,0.05789269101064454
1453.0,0.05610995175152733
1452.0,0.05423607688882637
1451.0,0.05271335532220167
1450.0,0.05153812993871654
1449.0,0.05056119896349576
1448.0,0.04958646063061889
1447.0,0.04885683989244738
1446.0,0.04827402457540786
1445.0,0.04774046340917959
1444.0,0.04720755695590784
1443.0,0.04667530361081473
1442.0,0.04624030826677128
1441.0,0.04580574818413763
1440.0,0.045323413081356456
1439.0,0.04488976902944808
1438.0,0.04450467081587295
1437.0,0.044167989767578186
1436.0,0.0437835307566099
1435.0,0.04344740808260106
1434.0,0.0431115453499229
1433.0,0.04263219156847242
1432.0,0.042057664554595586
1431.0,0.041483896576958834
1430.0,0.040958607678906356
1429.0,0.04043395336207234
1428.0,0.039909932095080425
1427.0,0.03948165721929198
1426.0,0.03914884628031379
1425.0,0.038721320914956836
1424.0,0.038341651362284734
1423.0,0.03810452633214956
1422.0,0.03786753070176463
1421.0,0.037583306554248797
1420.0,0.037299268295658994
1419.0,0.0371100126082089
1418.0,0.03701541568300293
1417.0,0.03682628362474838
1416.0,0.036542739883292485
1415.0,0.03630659476198117
1414.0,0.036117771071222604
1413.0,0.03583468937826462
1412.0,0.03555179208333925
1411.0,0.03531618502395939
1410.0,0.03508070571335731
1409.0,0.03479829897408804
1408.0,0.034516075754861264
1407.0,0.03423403581731388
1406.0,0.033952178923546183
1405.0,0.03367050483612166
1404.0,0.03334211579824231
1403.0,0.033154576345083564
1402.0,0.032920265855503006
1401.0,0.03273290844021437
1400.0,0.03245202378113787
1399.0,0.032311649546687526
1398.0,0.03217132066984485
1397.0,0.031984286006358165
1396.0,0.03161045815293173
1395.0,0.03128362253321426
1394.0,0.031003673351687855
1393.0,0.030770520137356927
1392.0,0.03058408764601861
1391.0,0.030490901403433135
1390.0,0.030397735151460825
1389.0,0.03025802323714588
1388.0,0.030164906924202484
1387.0,0.030164906924202484
1386.0,0.030164906924202484
1385.0,0.030118356253500123
1384.0,0.03002526987828502
1383.0,0.030118356253500123
1382.0,0.03030458888152676
1381.0,0.030490901403433135
1380.0,0.0307239045110681
1379.0,0.030910397045078586
1378.0,0.03105031901865729
1377.0,0.031096969696171817
1376.0,0.03105031901865729
1375.0,0.031096969696171817
1374.0,0.031236951802751545
1373.0,0.03137697904301118
1372.0,0.03142366482450232
1371.0,0.03151705144606498
1370.0,0.031657169041054534
1369.0,0.03179733185715028
1368.0,0.03179733185715028
1367.0,0.03170388495374454
1366.0,0.03161045815293173
1365.0,0.03147035562516054
1364.0,0.03133029827960798
1363.0,0.031236951802751545
1362.0,0.031096969696171817
1361.0,0.030910397045078586
1360.0,0.03063068826647264
1359.0,0.030444315779156517
1358.0,0.03030458888152676
1357.0,0.03025802323714588
1356.0,0.03025802323714588
1355.0,0.03030458888152676
1354.0,0.030351159519274695
1353.0,0.030397735151460825
1352.0,0.030351159519274695
1351.0,0.03025802323714588
1350.0,0.030211462585061133
1349.0,0.030118356253500123
1348.0,0.029978734171634214
1347.0,0.029839156962686353
1346.0,0.029746130405213123
1345.0,0.029653123769906697
1344.0,0.029560137048236124
1343.0,0.029513651152349718
1342.0,0.029467170231675777
1341.0,0.02942069428514915
1340.0,0.02932775731028059
1339.0,0.029281296279810798
1338.0,0.029188389127482228
1337.0,0.02904906565457588
1336.0,0.02890978686288448
1335.0,0.028770552723758724
1334.0,0.028677754757187035
1333.0,0.02858497661500481
1332.0,0.028538594975413334
1331.0,0.028538594975413334
1330.0,0.028538594975413334
1329.0,0.02849221828874393
1328.0,0.02849221828874393
1327.0,0.02849221828874393
1326.0,0.028538594975413334
1325.0,0.02863136320857662
1324.0,0.028677754757187035
1323.0,0.028770552723758724
1322.0,0.028863370523193765
1321.0,0.028956208163971375
1320.0,0.029002634427514717
1319.0,0.02904906565457588
1318.0,0.029095501846216454
1317.0,0.029095501846216454
1316.0,0.029095501846216454
1315.0,0.029141943003497595
1314.0,0.029234840219232394
1313.0,0.029281296279810798
1312.0,0.029281296279810798
1311.0,0.02932775731028059
1310.0,0.02942069428514915
1309.0,0.029467170231675777
1308.0,0.029513651152349718
1307.0,0.029513651152349718
1306.0,0.029560137048236124
1305.0,0.029560137048236124
1304.0,0.029560137048236124
1303.0,0.02960662792039992
1302.0,0.029653123769906697
1301.0,0.029653123769906697
1300.0,0.029653123769906697
1299.0,0.02960662792039992
1298.0,0.029560137048236124
1297.0,0.029467170231675777
1296.0,0.029374223311705583
1295.0,0.029374223311705583
1294.0,0.029374223311705583
1293.0,0.02932775731028059
1292.0,0.029281296279810798
1291.0,0.029234840219232394
1290.0,0.029188389127482228
1289.0,0.029188389127482228
1288.0,0.029141943003497595
1287.0,0.029141943003497595
1286.0,0.029141943003497595
1285.0,0.029095501846216454
1284.0,0.02904906565457588
1283.0,0.02904906565457588
1282.0,0.029095501846216454
1281.0,0.029095501846216454
1280.0,0.029095501846216454
1279.0,0.029141943003497595
1278.0,0.029141943003497595
1277.0,0.029095501846216454
1276.0,0.029095501846216454
1275.0,0.02904906565457588
1274.0,0.029095501846216454
1273.0,0.029095501846216454
1272.0,0.029141943003497595
1271.0,0.029188389127482228
1270.0,0.029234840219232394
1269.0,0.029234840219232394
1268.0,0.029281296279810798
1267.0,0.02932775731028059
1266.0,0.029374223311705583
1265.0,0.02942069428514915
1264.0,0.02942069428514915
1263.0,0.029513651152349718
1262.0,0.029560137048236124
1261.0,0.02960662792039992
1260.0,0.02960662792039992
1259.0,0.02960662792039992
1258.0,0.02960662792039992
1257.0,0.029560137048236124
1256.0,0.029513651152349718
1255.0,0.029513651152349718
1254.0,0.02942069428514915
1253.0,0.029374223311705583
1252.0,0.02932775731028059
1251.0,0.029281296279810798
1250.0,0.02932775731028059
1249.0,0.029374223311705583
1248.0,0.02942069428514915
1247.0,0.02942069428514915
1246.0,0.02942069428514915
1245.0,0.02942069428514915
1244.0,0.029374223311705583
1243.0,0.029374223311705583
1242.0,0.029374223311705583
1241.0,0.029374223311705583
1240.0,0.02942069428514915
1239.0,0.029467170231675777
1238.0,0.029467170231675777
1237.0,0.029467170231675777
1236.0,0.029467170231675777
1235.0,0.02942069428514915
1234.0,0.02942069428514915
1233.0,0.029374223311705583
1232.0,0.02932775731028059
1231.0,0.02932775731028059
1230.0,0.02932775731028059
1229.0,0.029374223311705583
1228.0,0.029374223311705583
1227.0,0.02932775731028059
1226.0,0.02932775731028059
1225.0,0.029281296279810798
1224.0,0.029281296279810798
1223.0,0.029374223311705583
1222.0,0.029467170231675777
1221.0,0.029513651152349718
1220.0,0.029513651152349718
1219.0,0.029560137048236124
1218.0,0.029560137048236124
1217.0,0.029560137048236124
1216.0,0.02960662792039992
1215.0,0.029653123769906697
1214.0,0.029746130405213123
1213.0,0.029839156962686353
1212.0,0.029932203450862893
1211.0,0.03002526987828502
1210.0,0.030071810571884017
1209.0,0.030118356253500123
1208.0,0.030164906924202484
1207.0,0.030211462585061133
1206.0,0.03030458888152676
1205.0,0.030397735151460825
1204.0,0.030537492025363155
1203.0,0.03063068826647264
1202.0,0.0307239045110681
1201.0,0.03081714076773867
1200.0,0.030863766403287585
1199.0,0.030863766403287585
1198.0,0.030910397045078586
1197.0,0.030957032694186815
1196.0,0.03105031901865729
1195.0,0.031190286087141805
1194.0,0.03133029827960798
1193.0,0.03147035562516054
1192.0,0.03161045815293173
1191.0,0.03175060589208267
1190.0,0.03184406285002961
1189.0,0.031984286006358165
1188.0,0.03207779326948268
1187.0,0.03226486821611996
1186.0,0.03245202378113787
1185.0,0.032592443402527316
1184.0,0.03273290844021437
1183.0,0.032873418923587305
1182.0,0.033060836978886954
1181.0,0.0332483359486222
1180.0,0.03352973627071565
1179.0,0.03376437590141812
1178.0,0.034046110897937076
1177.0,0.03428102975577918
1176.0,0.034469056377139484
1175.0,0.03470420418834386
1174.0,0.0349394793888016
1173.0,0.03517488211661135
1172.0,0.03541041251009669
1171.0,0.03559892883726867
1170.0,0.03583468937826462
1169.0,0.0360705779734416
1168.0,0.03630659476198117
1167.0,0.036542739883292485
1166.0,0.036731748473764814
1165.0,0.0369681249461018
1164.0,0.0371573187987575
1163.0,0.03739392707587297
1162.0,0.03767802727041558
1161.0,0.03796231343498735
1160.0,0.03829421599749461
1159.0,0.038673844065289176
1158.0,0.03905380426616856
1157.0,0.03938654235209116
1156.0,0.039719535563357944
1155.0,0.0400527842915015
1154.0,0.04038628892895613
1153.0,0.04072004986906119
1152.0,0.041101805289228244
1151.0,0.041483896576958834
1150.0,0.041914151478914974
1149.0,0.042344833056508824
1148.0,0.04272802000705722
1147.0,0.04315950984076644
1146.0,0.04363944632667782
1145.0,0.04411991377462465
1144.0,0.04460091336073302
1143.0,0.04513062893352182
1142.0,0.045612749855485024
1141.0,0.046047116768076934
1140.0,0.046481918555007384
1139.0,0.04696554274964315
1138.0,0.04754660357696672
1137.0,0.048128442871635535
1136.0,0.04875964967565971
1135.0,0.04934311749548925
1134.0,0.04987865248862655
1133.0,0.05036607620073763
1132.0,0.050805225762017736
1131.0,0.051244819831730126
1130.0,0.051684859310652254
1129.0,0.05207638016827354
1128.0,0.0525172634430815
1127.0,0.05290953578037816
1126.0,0.053351266093323746
1125.0,0.05374429280060267
1124.0,0.054088483180726676
1123.0,0.05443294655761144
1122.0,0.05482695382609992
1121.0,0.055172003656783764
1120.0,0.055566682299785564
1119.0,0.05586292684190197
1118.0,0.056159373598738904
1117.0,0.056456022846545606
1116.0,0.0567528748621382
1115.0,0.057000406633959555
1114.0,0.057198533682059516
1113.0,0.057396751157843484
1112.0,0.0575950591438934
1111.0,0.057743849580535134
1110.0,0.05789269101064454
1109.0,0.05799194697768684
1108.0,0.05804158346918653
1107.0,0.05804158346918653
1106.0,0.05814087347462649
1105.0,0.05824018618530458
1104.0,0.0583395216116076
1103.0,0.05848856736559682
1102.0,0.05858795962645047
1101.0,0.05863766428823891
1100.0,0.05868737463933793
1099.0,0.058737090681050264
1098.0,0.058737090681050264
1097.0,0.05868737463933793
1096.0,0.058737090681050264
1095.0,0.058737090681050264
1094.0,0.058786812414678646
1093.0,0.058836539841526925
1092.0,0.058786812414678646
1091.0,0.05863766428823891
1090.0,0.05843887976392925
1089.0,0.05824018618530458
1088.0,0.05804158346918653
1087.0,0.05784307153250956
1086.0,0.05764465029232335
1085.0,0.057396751157843484
1084.0,0.057198533682059516
1083.0,0.057049929922901255
1082.0,0.05685187064143715
1081.0,0.05665390164340933
1080.0,0.056406567231630955
1079.0,0.05610995175152733
1078.0,0.05581353871631256
1077.0,0.05541863577307371
1076.0,0.05502409158795207
1075.0,0.05462990550969615
1074.0,0.05428528594013993
1073.0,0.05389176956309405
1072.0,0.053449489430144714
1071.0,0.05305672930217464
1070.0,0.05256627811294923
1069.0,0.05197846685889629
1068.0,0.05134256785867963
1067.0,0.05065879322950262
1066.0,0.050073556332087765
1065.0,0.04963514562387683
1064.0,0.049245818406496555
1063.0,0.04885683989244738
1062.0,0.04837110616336182
1061.0,0.0478374257855374
1060.0,0.04730440041308315
1059.0,0.04672366333269573
1058.0,0.04624030826677128
1057.0,0.04570923829887308
1056.0,0.04522701031028298
1055.0,0.04474531717982
1054.0,0.04426415772233416
1053.0,0.04383156952463674
1052.0,0.04344740808260106
1051.0,0.043063586155803746
1050.0,0.04268010314465909
1049.0,0.042344833056508824
1048.0,0.042057664554595586
1047.0,0.0417706858116178
1046.0,0.041483896576958834
1045.0,0.04124505013091051
1044.0,0.041006334969674096
1043.0,0.04076775094900409
1042.0,0.040529297924893015
1041.0,0.0402909757535701
1040.0,0.04010041213405646
1039.0,0.039909932095080425
1038.0,0.039767126871487646
1037.0,0.03962436858984186
1036.0,0.03948165721929198
1035.0,0.03938654235209116
1034.0,0.03929144831144349
1033.0,0.03919637508823026
1032.0,0.03905380426616856
1031.0,0.038911280232103884
1030.0,0.038673844065289176
1029.0,0.038436537637930535
1028.0,0.03810452633214956
1027.0,0.03786753070176463
1026.0,0.03772539537668518
1025.0,0.03767802727041558
1024.0,0.03763066432997886
1023.0,0.03763066432997886
1022.0,0.037583306554248797
1021.0,0.037488606492403154
1020.0,0.03739392707587297
1019.0,0.037251946641359446
1018.0,0.0371573187987575
1017.0,0.037062711569998186
1016.0,0.03701541568300293
1015.0,0.03692083935817303
1014.0,0.036779013477011624
1013.0,0.03658998431977123
1012.0,0.03644826642590382
1011.0,0.03635381351515665
1010.0,0.03625938114211591
1009.0,0.03616496929785207
1008.0,0.03602339000339416
1007.0,0.03592902944204468
1006.0,0.03588185684851508
1005.0,0.03588185684851508
1004.0,0.03578752703018084
1003.0,0.035740369803151095
1002.0,0.035646070707806565
1001.0,0.03555179208333925
1000.0,0.03545753392086315
999.0,0.035363296211498474
998.0,0.03522197797762394
997.0,0.03508070571335731
996.0,0.03498654972775217
995.0,0.0349394793888016
994.0,0.03489241415094413
993.0,0.03489241415094413
992.0,0.03484535401307465
991.0,0.03479829897408804
990.0,0.03484535401307465
989.0,0.03489241415094413
988.0,0.03498654972775217
987.0,0.03512779136222477
986.0,0.03541041251009669
985.0,0.035646070707806565
984.0,0.035740369803151095
983.0,0.035646070707806565
982.0,0.035363296211498474
981.0,0.03503362516890207
980.0,0.03475124903287918
979.0,0.03456310022373987
978.0,0.034469056377139484
977.0,0.03437503289075727
976.0,0.03432802877989327
975.0,0.03428102975577918
974.0,0.03423403581731388
973.0,0.034187046963396917
972.0,0.034187046963396917
971.0,0.034187046963396917
970.0,0.034187046963396917
969.0,0.034187046963396917
968.0,0.034187046963396917
967.0,0.034187046963396917
966.0,0.034187046963396917
965.0,0.03414006319292828
964.0,0.034046110897937076
963.0,0.033905220553829274
962.0,0.0338113190438627
961.0,0.03376437590141812
960.0,0.03376437590141812
959.0,0.0338113190438627
958.0,0.033905220553829274
957.0,0.033952178923546183
956.0,0.033905220553829274
955.0,0.03376437590141812
954.0,0.03367050483612166
953.0,0.03362357691107709
952.0,0.03352973627071565
951.0,0.03343591590268957
950.0,0.03334211579824231
949.0,0.0332483359486222
948.0,0.0332483359486222
947.0,0.0332483359486222
946.0,0.033295223342125535
945.0,0.033295223342125535
944.0,0.033295223342125535
943.0,0.033295223342125535
942.0,0.033295223342125535
941.0,0.033295223342125535
940.0,0.03334211579824231
939.0,0.03338901331806565
938.0,0.03338901331806565
937.0,0.03343591590268957
936.0,0.03343591590268957
935.0,0.03343591590268957
934.0,0.03343591590268957
933.0,0.033482823553208085
932.0,0.033482823553208085
931.0,0.033482823553208085
930.0,0.03343591590268957
929.0,0.03334211579824231
928.0,0.0332483359486222
927.0,0.0332483359486222
926.0,0.033295223342125535
925.0,0.03338901331806565
924.0,0.033482823553208085
923.0,0.03352973627071565
922.0,0.03357665405630694
921.0,0.03367050483612166
920.0,0.03367050483612166
919.0,0.03367050483612166
918.0,0.03362357691107709
917.0,0.03352973627071565
916.0,0.033482823553208085
915.0,0.03343591590268957
914.0,0.03338901331806565
913.0,0.03343591590268957
912.0,0.033482823553208085
911.0,0.03352973627071565
910.0,0.03362357691107709
909.0,0.03371743783253667
908.0,0.03376437590141812
907.0,0.0338113190438627
906.0,0.03385826726096752
905.0,0.033905220553829274
904.0,0.033905220553829274
903.0,0.033952178923546183
902.0,0.033905220553829274
901.0,0.03385826726096752
900.0,0.0338113190438627
899.0,0.0338113190438627
898.0,0.0338113190438627
897.0,0.03385826726096752
896.0,0.03385826726096752
895.0,0.033905220553829274
894.0,0.033952178923546183
893.0,0.03399914237121604
892.0,0.03409308450480819
891.0,0.034187046963396917
890.0,0.03432802877989327
889.0,0.03442204208947208
888.0,0.03442204208947208
887.0,0.034516075754861264
886.0,0.03461012978487776
885.0,0.03475124903287918
884.0,0.03484535401307465
883.0,0.03498654972775217
882.0,0.03512779136222477
881.0,0.03531618502395939
880.0,0.03550466044490741
879.0,0.035740369803151095
878.0,0.03602339000339416
877.0,0.03630659476198117
876.0,0.036542739883292485
875.0,0.036731748473764814
874.0,0.036873558918095295
873.0,0.0369681249461018
872.0,0.03682628362474838
871.0,0.03658998431977123
870.0,0.03644826642590382
869.0,0.036401037402758574
868.0,0.03649550058570927
867.0,0.03658998431977123
866.0,0.03658998431977123
865.0,0.036542739883292485
864.0,0.03644826642590382
863.0,0.036401037402758574
862.0,0.036401037402758574
861.0,0.03649550058570927
860.0,0.03663723389626394
859.0,0.036731748473764814
858.0,0.036779013477011624
857.0,0.036873558918095295
856.0,0.0369681249461018
855.0,0.0371573187987575
854.0,0.037346595106788616
853.0,0.03744126420403626
852.0,0.03744126420403626
851.0,0.03739392707587297
850.0,0.037346595106788616
849.0,0.03744126420403626
848.0,0.037488606492403154
847.0,0.037488606492403154
846.0,0.03744126420403626
845.0,0.037346595106788616
844.0,0.037299268295658994
843.0,0.037299268295658994
842.0,0.03739392707587297
841.0,0.037583306554248797
840.0,0.03782014709123227
839.0,0.038057116858612794
838.0,0.03824678581321739
837.0,0.038341651362284734
836.0,0.038341651362284734
835.0,0.03824678581321739
834.0,0.038199360808321536
833.0,0.03824678581321739
832.0,0.038341651362284734
831.0,0.03848398855105106
830.0,0.038673844065289176
829.0,0.03876880295533702
828.0,0.038816290187564384
827.0,0.038816290187564384
826.0,0.038721320914956836
825.0,0.038673844065289176
824.0,0.038673844065289176
823.0,0.03876880295533702
822.0,0.038911280232103884
821.0,0.03905380426616856
820.0,0.03914884628031379
819.0,0.03924390909822728
818.0,0.03938654235209116
817.0,0.03948165721929198
816.0,0.03962436858984186
815.0,0.039767126871487646
814.0,0.039909932095080425
813.0,0.04010041213405646
812.0,0.0402909757535701
811.0,0.04038628892895613
810.0,0.040481623027001756
809.0,0.04062466342415694
808.0,0.04081545726880842
807.0,0.04105406750606355
806.0,0.041197296600497646
805.0,0.04129280891271536
804.0,0.04129280891271536
803.0,0.04138834223512067
802.0,0.04153168163305643
801.0,0.0417706858116178
800.0,0.042057664554595586
799.0,0.04224908912272074
798.0,0.04244059810252043
797.0,0.04253638427006878
796.0,0.04268010314465909
795.0,0.04282386959515394
794.0,0.042967683653061695
793.0,0.04315950984076644
792.0,0.04339941178682327
791.0,0.043735497301724546
790.0,0.044071843103049346
789.0,0.04426415772233416
788.0,0.04426415772233416
787.0,0.04421607108308856
786.0,0.04426415772233416
785.0,0.04450467081587295
784.0,0.04484161307420642
783.0,0.0451788169482068
782.0,0.045516282844447975
781.0,0.04575749056067524
780.0,0.04595055323640551
779.0,0.046047116768076934
778.0,0.04609540658654021
777.0,0.04624030826677128
776.0,0.046481918555007384
775.0,0.04672366333269573
774.0,0.04696554274964315
773.0,0.04715914332429838
772.0,0.04730440041308315
771.0,0.04749815213697639
770.0,0.047643522676209304
769.0,0.0478374257855374
768.0,0.047982909952573705
767.0,0.04807992647970649
766.0,0.048225491918274965
765.0,0.04841965509660828
764.0,0.0486139051197072
763.0,0.048808242065293994
762.0,0.048954051864180226
761.0,0.04909991063361274
760.0,0.04919717703534143
759.0,0.04919717703534143
758.0,0.04919717703534143
757.0,0.049245818406496555
756.0,0.049245818406496555
755.0,0.04919717703534143
754.0,0.049148541111453614
753.0,0.049245818406496555
752.0,0.04939177521576932
751.0,0.04944043838819989
750.0,0.04939177521576932
749.0,0.04948910701400333
748.0,0.04953778109440221
747.0,0.04953778109440221
746.0,0.04944043838819989
745.0,0.049245818406496555
744.0,0.04909991063361274
743.0,0.04900266601119507
742.0,0.048954051864180226
741.0,0.048905443158337114
740.0,0.048808242065293994
739.0,0.04871106272232795
738.0,0.04885683989244738
737.0,0.04948910701400333
736.0,0.051244819831730126
735.0,0.05551732784983132
734.0,0.06419054619006714
733.0,0.07805354577058976
732.0,0.09479797133768142
731.0,0.10890877353227624
730.0,0.11526126223036814
729.0,0.112945621949043
728.0,0.10557316203581202
727.0,0.09772507952549825
726.0,0.09226626300234453
725.0,0.09012318200960712
724.0,0.0917295005042762
723.0,0.09794268919153337
722.0,0.11019424813191447
721.0,0.1280769681176266
720.0,0.14642345638035836
719.0,0.15745316350498495
718.0,0.15732836623921154
717.0,0.148864004988426
716.0,0.13661765155921235
715.0,0.12372441132212098
714.0,0.1120452961911984
713.0,0.10259286033841963
712.0,0.09560907998763835
711.0,0.0908185240221473
710.0,0.08740600224789441
709.0,0.08470571697731355
708.0,0.08254700807033655
707.0,0.08060807322614072
706.0,0.07878187880504961
705.0,0.07701518429111709
704.0,0.07546228222451012
703.0,0.07427547306393745
702.0,0.0734517753643813
701.0,0.07278366940873537
700.0,0.07237303755504598
699.0,0.07206531825882068
698.0,0.0718090519612431
697.0,0.07139934015547578
696.0,0.0709900145060387
695.0,0.07058107428570715
694.0,0.07022356719509815
693.0,0.0699173666076287
692.0,0.06966236426227002
691.0,0.06945847013556561
690.0,0.06925467168888666
689.0,0.0688982543673613
688.0,0.0685421293109949
687.0,0.06823711151882228
686.0,0.06803388527182741
685.0,0.06793230779927839
684.0,0.06788152797087754
683.0,0.06777998612288094
682.0,0.0676277178520861
681.0,0.06752623532284674
680.0,0.0675769736232612
679.0,0.06772922410050963
678.0,0.06777998612288094
677.0,0.06767846801070698
676.0,0.0676277178520861
675.0,0.0676277178520861
674.0,0.06772922410050963
673.0,0.06788152797087754
672.0,0.0681862960408608
671.0,0.06864384953207203
670.0,0.06869471857832687
669.0,0.06844043290919477
668.0,0.0685421293109949
667.0,0.06884736147670667
666.0,0.06869471857832687
665.0,0.06803388527182741
664.0,0.06747550294945781
663.0,0.06722192993944942
662.0,0.0671712330991534
661.0,0.0671712330991534
660.0,0.0671712330991534
659.0,0.06706985716921054
658.0,0.06676587128519196
657.0,0.06641148980334699
656.0,0.06625970050306473
655.0,0.0663102910421054
654.0,0.06646209802829528
653.0,0.06661395809694559
652.0,0.0666645899223488
651.0,0.06681652082538614
650.0,0.06701917807680191
649.0,0.06722192993944942
648.0,0.06747550294945781
647.0,0.0676277178520861
646.0,0.0676277178520861
645.0,0.06742477650170953
644.0,0.06732334137759932
643.0,0.06737405597821788
642.0,0.06747550294945781
641.0,0.0675769736232612
640.0,0.0678307540792078
639.0,0.068389593637038
638.0,0.06945847013556561
637.0,0.07109230975604719
636.0,0.07334892291111106
635.0,0.07566901529132153
634.0,0.07717078033335123
633.0,0.07711890879170658
632.0,0.0760310351245288
631.0,0.07468790850035045
630.0,0.07355465218161061
629.0,0.07288638806623937
628.0,0.07242434530888953
627.0,0.07232173586200852
626.0,0.07252697900472405
625.0,0.0729891310243489
624.0,0.07355465218161061
623.0,0.07396640332115534
622.0,0.07412091069849924
621.0,0.07412091069849924
620.0,0.07427547306393745
619.0,0.07479107858799638
618.0,0.07556563645676939
617.0,0.07623803917129979
616.0,0.07660053384128362
615.0,0.07670415934449615
614.0,0.07685964397479927
613.0,0.07727454200674
612.0,0.0777417765670334
611.0,0.07800156869172903
610.0,0.07779372256098371
609.0,0.07732643214144574
608.0,0.07691148455760066
607.0,0.07660053384128362
606.0,0.0763933569825408
605.0,0.07608277688689435
604.0,0.07556563645676939
603.0,0.07494587968815725
602.0,0.07463633264589853
601.0,0.07489427319033615
600.0,0.07546228222451012
599.0,0.07608277688689435
598.0,0.07680780957933253
597.0,0.07779372256098371
596.0,0.07872981449018734
595.0,0.07878187880504961
594.0,0.07758597585436577
593.0,0.07582412969807906
592.0,0.07432700607875953
591.0,0.07365755337434488
590.0,0.07396640332115534
589.0,0.07530729697981409
588.0,0.07696333132921396
587.0,0.07768983678560404
586.0,0.07660053384128362
585.0,0.07417242537525759
584.0,0.07145053299833615
583.0,0.06905096883247697
582.0,0.06701917807680191
581.0,0.06469430971007495
580.0,0.060880282351513104
579.0,0.05477768336465916
578.0,0.047062332249019345
577.0,0.03943409718180235
576.0,0.03334211579824231
575.0,0.02942069428514915
574.0,0.026595025589939425
573.0,0.023329119375188556
572.0,0.02022406727031445
571.0,0.019451260640229506
570.0,0.019723858922159776
569.0,0.016689514205884493
568.0,0.009439170005980158
567.0,0.001609869681952425
566.0,-0.004149341900058889
565.0,-0.008174184006426444
564.0,-0.009110806132212712
563.0,-0.004063300397667113
562.0,0.0040578370074493275
561.0,0.008685301823389224
560.0,0.007976972236149349
559.0,0.004628093971837721
558.0,-4.3427276862573194e-05
557.0,-0.006380458549692936
556.0,-0.011655010724778148
555.0,-0.010893313104380464
554.0,-0.006080782716094024
553.0,-0.006037954997317296
552.0,-0.015569306429879859
551.0,-0.028855809390444076
550.0,-0.03642926562667492
549.0,-0.03558981724345722
548.0,-0.02983001931065843
547.0,-0.023005397249934667
546.0,-0.017826038030424485
545.0,-0.015694988526518294
544.0,-0.015778756389040804
543.0,-0.01602996307602389
542.0,-0.015527404313787407
541.0,-0.01460453343605117
540.0,-0.012162067970823198
539.0,-0.007064656378331868
538.0,-0.0022956825549340643
537.0,-0.0032450548131470747
536.0,-0.010469569796391909
535.0,-0.018117720591000364
534.0,-0.02098244291841933
533.0,-0.020278394111927334
532.0,-0.019946681678842282
531.0,-0.021065197202569053
530.0,-0.02234587626988027
529.0,-0.023087766995445236
528.0,-0.023087766995445236
527.0,-0.021602716028242153
526.0,-0.01895002150097458
525.0,-0.016991578206205116
524.0,-0.016782712486840712
523.0,-0.016782712486840712
522.0,-0.015569306429879859
521.0,-0.013763854733932934
520.0,-0.012584163914150626
519.0,-0.011908613349154162
518.0,-0.011570443597278324
517.0,-0.011993114659256676
516.0,-0.0127107127417867
515.0,-0.011697288114142612
514.0,-0.007961033336183032
513.0,-0.0035897671891400584
512.0,-0.0010843812922201046
511.0,-0.0009543984064577238
510.0,-0.0020364022595291686
509.0,-0.0035897671891400584
508.0,-0.006209240537657479
507.0,-0.010554351540322138
506.0,-0.015569306429879859
505.0,-0.01845083238635592
504.0,-0.016699138064971475
503.0,-0.011189687609991505
502.0,-0.0064660422492317515
501.0,-0.005738042651424635
500.0,-0.007278247334244092
499.0,-0.007790437445978515
498.0,-0.007961033336183032
497.0,-0.010850957373922832
496.0,-0.01586250809731382
495.0,-0.018534070428183114
494.0,-0.016573746269123113
493.0,-0.012584163914150626
492.0,-0.010087846998524608
491.0,-0.00923837096846647
490.0,-0.008770449937752556
489.0,-0.00851500763145463
488.0,-0.009110806132212712
487.0,-0.010172703286778884
486.0,-0.011062694729734535
485.0,-0.011824095594308748
484.0,-0.012457578200773423
483.0,-0.01296369982577783
482.0,-0.013595523537289544
481.0,-0.014142361545006032
480.0,-0.012795058145412597
479.0,-0.008344629252689195
478.0,-0.003115717099805959
477.0,-0.0008677215312267172
476.0,-0.0020796263931210923
475.0,-0.003891166236910326
474.0,-0.0042353663594676405
473.0,-0.003546693102131737
472.0,-0.0024684501283323
471.0,-0.0009977303577937136
470.0,0.0
469.0,-0.0008243766056055257
468.0,-0.0027274726898296464
467.0,-0.003503614742536687
466.0,-0.0033743540197499478
465.0,-0.005137595908863979
464.0,-0.00923837096846647
463.0,-0.01241537476243293
462.0,-0.011358953706610553
461.0,-0.006551609086648202
460.0,-0.0004774613744551459
459.0,0.004628093971837721
458.0,0.007049039429553483
457.0,0.00621118618129457
456.0,0.0035321097382827737
455.0,0.0012177301682640973
454.0,-0.0015173768235041685
453.0,-0.006808208492578682
452.0,-0.01468851187233744
451.0,-0.01949016299750772
450.0,-0.018367578387844752
