cm-1,A
4000.0,0.004540313378935901
3999.0,0.004671990922590297
3998.0,0.004803708402820517
3997.0,0.004935465843858511
3996.0,0.004979393875242044
3995.0,0.004979393875242044
3994.0,0.004935465843858511
3993.0,0.00484762310854614
3992.0,0.004803708402820517
3991.0,0.004803708402820517
3990.0,0.00484762310854614
3989.0,0.00489154225525934
3988.0,0.004935465843858511
3987.0,0.004935465843858511
3986.0,0.004979393875242044
3985.0,0.005023326350308999
3984.0,0.005067263269958211
3983.0,0.005067263269958211
3982.0,0.005023326350308999
3981.0,0.005023326350308999
3980.0,0.004979393875242044
3979.0,0.004935465843858511
3978.0,0.00489154225525934
3977.0,0.004803708402820517
3976.0,0.004803708402820517
3975.0,0.004803708402820517
3974.0,0.00484762310854614
3973.0,0.00484762310854614
3972.0,0.004759798137184523
3971.0,0.004671990922590297
3970.0,0.004628093971837721
3969.0,0.004671990922590297
3968.0,0.004715892310740433
3967.0,0.004759798137184523
3966.0,0.004803708402820517
3965.0,0.004803708402820517
3964.0,0.004803708402820517
3963.0,0.004803708402820517
3962.0,0.004803708402820517
3961.0,0.00484762310854614
3960.0,0.004935465843858511
3959.0,0.005067263269958211
3958.0,0.005155150446602086
3957.0,0.005199100705396198
3956.0,0.005199100705396198
3955.0,0.005111204635089406
3954.0,0.005067263269958211
3953.0,0.004979393875242044
3952.0,0.004935465843858511
3951.0,0.00489154225525934
3950.0,0.00489154225525934
3949.0,0.00489154225525934
3948.0,0.004935465843858511
3947.0,0.005067263269958211
3946.0,0.005111204635089406
3945.0,0.005023326350308999
3944.0,0.00489154225525934
3943.0,0.00484762310854614
3942.0,0.00489154225525934
3941.0,0.00489154225525934
3940.0,0.00484762310854614
3939.0,0.004671990922590297
3938.0,0.004540313378935901
3937.0,0.004540313378935901
3936.0,0.004671990922590297
3935.0,0.004803708402820517
3934.0,0.00489154225525934
3933.0,0.00489154225525934
3932.0,0.004935465843858511
3931.0,0.004979393875242044
3930.0,0.005023326350308999
3929.0,0.005111204635089406
3928.0,0.005199100705396198
3927.0,0.005111204635089406
3926.0,0.004935465843858511
3925.0,0.00489154225525934
3924.0,0.004935465843858511
3923.0,0.005111204635089406
3922.0,0.005199100705396198
3921.0,0.005155150446602086
3920.0,0.005111204635089406
3919.0,0.005111204635089406
3918.0,0.005111204635089406
3917.0,0.005155150446602086
3916.0,0.005199100705396198
3915.0,0.005243055412371911
3914.0,0.005199100705396198
3913.0,0.005067263269958211
3912.0,0.00489154225525934
3911.0,0.004803708402820517
3910.0,0.004715892310740433
3909.0,0.004715892310740433
3908.0,0.004759798137184523
3907.0,0.004759798137184523
3906.0,0.004671990922590297
3905.0,0.004628093971837721
3904.0,0.004671990922590297
3903.0,0.004803708402820517
3902.0,0.00489154225525934
3901.0,0.004803708402820517
3900.0,0.004759798137184523
3899.0,0.00484762310854614
3898.0,0.004935465843858511
3897.0,0.005023326350308999
3896.0,0.005023326350308999
3895.0,0.004979393875242044
3894.0,0.00489154225525934
3893.0,0.004715892310740433
3892.0,0.00458420145758498
3891.0,0.00458420145758498
3890.0,0.00484762310854614
3889.0,0.005111204635089406
3888.0,0.005111204635089406
3887.0,0.004803708402820517
3886.0,0.004540313378935901
3885.0,0.004671990922590297
3884.0,0.005023326350308999
3883.0,0.005243055412371911
3882.0,0.005155150446602086
3881.0,0.004979393875242044
3880.0,0.004935465843858511
3879.0,0.005067263269958211
3878.0,0.005199100705396198
3877.0,0.005155150446602086
3876.0,0.00484762310854614
3875.0,0.004628093971837721
3874.0,0.00484762310854614
3873.0,0.005243055412371911
3872.0,0.00537494623139545
3871.0,0.005067263269958211
3870.0,0.004803708402820517
3869.0,0.00489154225525934
3868.0,0.005155150446602086
3867.0,0.005243055412371911
3866.0,0.005155150446602086
3865.0,0.005111204635089406
3864.0,0.005199100705396198
3863.0,0.005199100705396198
3862.0,0.004979393875242044
3861.0,0.00458420145758498
3860.0,0.0040578370074493275
3859.0,0.0036634819042162814
3858.0,0.0035321097382827737
3857.0,0.003707281458678491
3856.0,0.0036634819042162814
3855.0,0.0032694845648473247
3854.0,0.0032257291386954545
3853.0,0.003794893821675638
3852.0,0.004452550524862486
3851.0,0.00484762310854614
3850.0,0.004935465843858511
3849.0,0.00489154225525934
3848.0,0.00484762310854614
3847.0,0.004803708402820517
3846.0,0.004759798137184523
3845.0,0.004628093971837721
3844.0,0.0044964297349936455
3843.0,0.004408675747646695
3842.0,0.0043648054024501
3841.0,0.0043648054024501
3840.0,0.0043648054024501
3839.0,0.0044964297349936455
3838.0,0.004671990922590297
3837.0,0.004759798137184523
3836.0,0.004759798137184523
3835.0,0.004671990922590297
3834.0,0.0044964297349936455
3833.0,0.0043648054024501
3832.0,0.004408675747646695
3831.0,0.00458420145758498
3830.0,0.00484762310854614
3829.0,0.004935465843858511
3828.0,0.004671990922590297
3827.0,0.004408675747646695
3826.0,0.004452550524862486
3825.0,0.004803708402820517
3824.0,0.005155150446602086
3823.0,0.004935465843858511
3822.0,0.004540313378935901
3821.0,0.004452550524862486
3820.0,0.004628093971837721
3819.0,0.004803708402820517
3818.0,0.004671990922590297
3817.0,0.0043648054024501
3816.0,0.0043648054024501
3815.0,0.004715892310740433
3814.0,0.004935465843858511
3813.0,0.00489154225525934
3812.0,0.004715892310740433
3811.0,0.004671990922590297
3810.0,0.004715892310740433
3809.0,0.00458420145758498
3808.0,0.004277078004534696
3807.0,0.004233220950025984
3806.0,0.00458420145758498
3805.0,0.005067263269958211
3804.0,0.005199100705396198
3803.0,0.004803708402820517
3802.0,0.0044964297349936455
3801.0,0.004628093971837721
3800.0,0.005023326350308999
3799.0,0.005243055412371911
3798.0,0.005199100705396198
3797.0,0.005067263269958211
3796.0,0.005023326350308999
3795.0,0.005067263269958211
3794.0,0.005067263269958211
3793.0,0.004935465843858511
3792.0,0.004803708402820517
3791.0,0.004671990922590297
3790.0,0.004628093971837721
3789.0,0.004671990922590297
3788.0,0.004803708402820517
3787.0,0.00489154225525934
3786.0,0.004979393875242044
3785.0,0.005023326350308999
3784.0,0.005155150446602086
3783.0,0.005330978174470591
3782.0,0.00541891874010525
3781.0,0.00537494623139545
3780.0,0.005330978174470591
3779.0,0.00537494623139545
3778.0,0.00537494623139545
3777.0,0.005243055412371911
3776.0,0.004935465843858511
3775.0,0.004715892310740433
3774.0,0.004671990922590297
3773.0,0.004803708402820517
3772.0,0.004803708402820517
3771.0,0.004803708402820517
3770.0,0.00484762310854614
3769.0,0.005067263269958211
3768.0,0.005155150446602086
3767.0,0.005023326350308999
3766.0,0.00484762310854614
3765.0,0.004803708402820517
3764.0,0.004979393875242044
3763.0,0.005155150446602086
3762.0,0.005243055412371911
3761.0,0.005155150446602086
3760.0,0.005067263269958211
3759.0,0.004935465843858511
3758.0,0.004715892310740433
3757.0,0.0044964297349936455
3756.0,0.0043648054024501
3755.0,0.004233220950025984
3754.0,0.00401400208620073
3753.0,0.0037510854308679953
3752.0,0.0036634819042162814
3751.0,0.0036634819042162814
3750.0,0.003619686766589858
3749.0,0.003707281458678491
3748.0,0.004101676353562844
3747.0,0.0044964297349936455
3746.0,0.0043648054024501
3745.0,0.004277078004534696
3744.0,0.00458420145758498
3743.0,0.004935465843858511
3742.0,0.005023326350308999
3741.0,0.004803708402820517
3740.0,0.00458420145758498
3739.0,0.004452550524862486
3738.0,0.0043648054024501
3737.0,0.004320939488377862
3736.0,0.004452550524862486
3735.0,0.004671990922590297
3734.0,0.00458420145758498
3733.0,0.004277078004534696
3732.0,0.004101676353562844
3731.0,0.004189368323957332
3730.0,0.004452550524862486
3729.0,0.004540313378935901
3728.0,0.004408675747646695
3727.0,0.004277078004534696
3726.0,0.004320939488377862
3725.0,0.0044964297349936455
3724.0,0.004540313378935901
3723.0,0.0044964297349936455
3722.0,0.0044964297349936455
3721.0,0.004540313378935901
3720.0,0.004540313378935901
3719.0,0.0044964297349936455
3718.0,0.0044964297349936455
3717.0,0.004540313378935901
3716.0,0.004759798137184523
3715.0,0.004935465843858511
3714.0,0.00489154225525934
3713.0,0.004671990922590297
3712.0,0.0044964297349936455
3711.0,0.004408675747646695
3710.0,0.004320939488377862
3709.0,0.004145520125434121
3708.0,0.0038825238627120395
3707.0,0.0036634819042162814
3706.0,0.0036634819042162814
3705.0,0.0037510854308679953
3704.0,0.003794893821675638
3703.0,0.003707281458678491
3702.0,0.003488327845821315
3701.0,0.0032257291386954545
3700.0,0.0029632891174733444
3699.0,0.002701007590486082
3698.0,0.002395212539545666
3697.0,0.0021332737608552588
3696.0,0.0020459959305969555
3695.0,0.0020459959305969555
3694.0,0.0020023635919956817
3693.0,0.0019587356365717845
3692.0,0.0019587356365717845
3691.0,0.0020023635919956817
3690.0,0.0020023635919956817
3689.0,0.0019587356365717845
3688.0,0.001915112063444413
3687.0,0.0018714928717336043
3686.0,0.0018278780605593958
3685.0,0.0017406615763013722
3684.0,0.0016970599014589638
3683.0,0.0017406615763013722
3682.0,0.0016970599014589638
3681.0,0.0014791171649619628
3680.0,0.001348404001626502
3679.0,0.0013919706849057079
3678.0,0.001304841688344327
3677.0,0.0008259444115150671
3676.0,0.0004779868710962365
3675.0,0.0006084382809090627
3674.0,0.0009129773741116676
3673.0,0.0011741809597138886
3672.0,0.0010435595295137379
3671.0,0.0007824344698965646
3670.0,0.0009129773741116676
3669.0,0.0012177301682640973
3668.0,0.0013919706849057079
3667.0,0.0013919706849057079
3666.0,0.001348404001626502
3665.0,0.001348404001626502
3664.0,0.0013919706849057079
3663.0,0.0013919706849057079
3662.0,0.001304841688344327
3661.0,0.001348404001626502
3660.0,0.0015226969634936083
3659.0,0.0017406615763013722
3658.0,0.0018278780605593958
3657.0,0.0018278780605593958
3656.0,0.001915112063444413
3655.0,0.0022205691343961664
3654.0,0.002569926202528716
3653.0,0.0027884171674950053
3652.0,0.0026573093983774942
3651.0,0.002482560585275184
3650.0,0.0026573093983774942
3649.0,0.0031382315093266833
3648.0,0.003488327845821315
3647.0,0.0036634819042162814
3646.0,0.003794893821675638
3645.0,0.003794893821675638
3644.0,0.0037510854308679953
3643.0,0.0036634819042162814
3642.0,0.003619686766589858
3641.0,0.0036634819042162814
3640.0,0.003707281458678491
3639.0,0.0037510854308679953
3638.0,0.0038825238627120395
3637.0,0.00401400208620073
3636.0,0.00401400208620073
3635.0,0.0038387066319929275
3634.0,0.0037510854308679953
3633.0,0.003970171588923321
3632.0,0.004233220950025984
3631.0,0.004145520125434121
3630.0,0.0038387066319929275
3629.0,0.003926345514724705
3628.0,0.004320939488377862
3627.0,0.00458420145758498
3626.0,0.004671990922590297
3625.0,0.004628093971837721
3624.0,0.004715892310740433
3623.0,0.004935465843858511
3622.0,0.005199100705396198
3621.0,0.005243055412371911
3620.0,0.005155150446602086
3619.0,0.004979393875242044
3618.0,0.004979393875242044
3617.0,0.005067263269958211
3616.0,0.005111204635089406
3615.0,0.005067263269958211
3614.0,0.005023326350308999
3613.0,0.005111204635089406
3612.0,0.005330978174470591
3611.0,0.005506877116487674
3610.0,0.005506877116487674
3609.0,0.00541891874010525
3608.0,0.00541891874010525
3607.0,0.005506877116487674
3606.0,0.005594853310833647
3605.0,0.005726851026829571
3604.0,0.00577085918230158
3603.0,0.005814871797682919
3602.0,0.005726851026829571
3601.0,0.005594853310833647
3600.0,0.005550862985963967
3599.0,0.005594853310833647
3598.0,0.005638848091999105
3597.0,0.005594853310833647
3596.0,0.005462895701502157
3595.0,0.0052870145684298375
3594.0,0.005199100705396198
3593.0,0.005199100705396198
3592.0,0.00541891874010525
3591.0,0.005682847330363394
3590.0,0.00590291041179003
3589.0,0.005946936412324799
3588.0,0.00590291041179003
3587.0,0.005858888873877532
3586.0,0.005726851026829571
3585.0,0.005594853310833647
3584.0,0.005506877116487674
3583.0,0.005462895701502157
3582.0,0.005506877116487674
3581.0,0.005550862985963967
3580.0,0.005638848091999105
3579.0,0.005682847330363394
3578.0,0.005726851026829571
3577.0,0.005726851026829571
3576.0,0.005726851026829571
3575.0,0.005726851026829571
3574.0,0.005682847330363394
3573.0,0.005682847330363394
3572.0,0.005726851026829571
3571.0,0.00577085918230158
3570.0,0.005726851026829571
3569.0,0.005594853310833647
3568.0,0.005506877116487674
3567.0,0.005638848091999105
3566.0,0.005858888873877532
3565.0,0.00590291041179003
3564.0,0.005814871797682919
3563.0,0.005638848091999105
3562.0,0.005506877116487674
3561.0,0.005462895701502157
3560.0,0.005462895701502157
3559.0,0.005462895701502157
3558.0,0.005506877116487674
3557.0,0.005506877116487674
3556.0,0.005550862985963967
3555.0,0.005506877116487674
3554.0,0.005462895701502157
3553.0,0.00541891874010525
3552.0,0.00541891874010525
3551.0,0.005462895701502157
3550.0,0.005506877116487674
3549.0,0.005594853310833647
3548.0,0.005638848091999105
3547.0,0.005682847330363394
3546.0,0.00577085918230158
3545.0,0.005814871797682919
3544.0,0.005858888873877532
3543.0,0.005858888873877532
3542.0,0.00590291041179003
3541.0,0.005946936412324799
3540.0,0.00590291041179003
3539.0,0.005814871797682919
3538.0,0.005682847330363394
3537.0,0.005550862985963967
3536.0,0.005506877116487674
3535.0,0.005550862985963967
3534.0,0.005638848091999105
3533.0,0.005682847330363394
3532.0,0.005726851026829571
3531.0,0.005726851026829571
3530.0,0.005594853310833647
3529.0,0.00541891874010525
3528.0,0.0052870145684298375
3527.0,0.005243055412371911
3526.0,0.0052870145684298375
3525.0,0.00537494623139545
3524.0,0.00537494623139545
3523.0,0.0052870145684298375
3522.0,0.0052870145684298375
3521.0,0.00537494623139545
3520.0,0.005550862985963967
3519.0,0.005682847330363394
3518.0,0.00577085918230158
3517.0,0.005814871797682919
3516.0,0.005858888873877532
3515.0,0.005858888873877532
3514.0,0.00590291041179003
3513.0,0.00590291041179003
3512.0,0.005858888873877532
3511.0,0.00577085918230158
3510.0,0.005682847330363394
3509.0,0.005594853310833647
3508.0,0.005550862985963967
3507.0,0.005594853310833647
3506.0,0.005682847330363394
3505.0,0.005814871797682919
3504.0,0.005946936412324799
3503.0,0.005990966876386672
3502.0,0.005990966876386672
3501.0,0.005946936412324799
3500.0,0.00590291041179003
3499.0,0.005814871797682919
3498.0,0.005726851026829571
3497.0,0.005682847330363394
3496.0,0.005726851026829571
3495.0,0.005726851026829571
3494.0,0.005726851026829571
3493.0,0.005682847330363394
3492.0,0.005682847330363394
3491.0,0.005726851026829571
3490.0,0.005814871797682919
3489.0,0.005814871797682919
3488.0,0.00577085918230158
3487.0,0.005594853310833647
3486.0,0.00541891874010525
3485.0,0.0052870145684298375
3484.0,0.005330978174470591
3483.0,0.005506877116487674
3482.0,0.00577085918230158
3481.0,0.005946936412324799
3480.0,0.00590291041179003
3479.0,0.00577085918230158
3478.0,0.005594853310833647
3477.0,0.005462895701502157
3476.0,0.00537494623139545
3475.0,0.00537494623139545
3474.0,0.00541891874010525
3473.0,0.005506877116487674
3472.0,0.005550862985963967
3471.0,0.005594853310833647
3470.0,0.005638848091999105
3469.0,0.005682847330363394
3468.0,0.00577085918230158
3467.0,0.005814871797682919
3466.0,0.00590291041179003
3465.0,0.00590291041179003
3464.0,0.005814871797682919
3463.0,0.005726851026829571
3462.0,0.005638848091999105
3461.0,0.005638848091999105
3460.0,0.005682847330363394
3459.0,0.005726851026829571
3458.0,0.00577085918230158
3457.0,0.00577085918230158
3456.0,0.005814871797682919
3455.0,0.005814871797682919
3454.0,0.005726851026829571
3453.0,0.005682847330363394
3452.0,0.005638848091999105
3451.0,0.005682847330363394
3450.0,0.00577085918230158
3449.0,0.005858888873877532
3448.0,0.005858888873877532
3447.0,0.005858888873877532
3446.0,0.005814871797682919
3445.0,0.005814871797682919
3444.0,0.00577085918230158
3443.0,0.005726851026829571
3442.0,0.005682847330363394
3441.0,0.005638848091999105
3440.0,0.005682847330363394
3439.0,0.00577085918230158
3438.0,0.005858888873877532
3437.0,0.005946936412324799
3436.0,0.005946936412324799
3435.0,0.005946936412324799
3434.0,0.005946936412324799
3433.0,0.005946936412324799
3432.0,0.005946936412324799
3431.0,0.00590291041179003
3430.0,0.005858888873877532
3429.0,0.005858888873877532
3428.0,0.00590291041179003
3427.0,0.00590291041179003
3426.0,0.005946936412324799
3425.0,0.005990966876386672
3424.0,0.005990966876386672
3423.0,0.005858888873877532
3422.0,0.005682847330363394
3421.0,0.005550862985963967
3420.0,0.005594853310833647
3419.0,0.005814871797682919
3418.0,0.006079041198713275
3417.0,0.00625524344553785
3416.0,0.00625524344553785
3415.0,0.006035001804881146
3414.0,0.00577085918230158
3413.0,0.005638848091999105
3412.0,0.005726851026829571
3411.0,0.00590291041179003
3410.0,0.006035001804881146
3409.0,0.005990966876386672
3408.0,0.00577085918230158
3407.0,0.005594853310833647
3406.0,0.005550862985963967
3405.0,0.005726851026829571
3404.0,0.005946936412324799
3403.0,0.00612308505878878
3402.0,0.00612308505878878
3401.0,0.006079041198713275
3400.0,0.005946936412324799
3399.0,0.005814871797682919
3398.0,0.005858888873877532
3397.0,0.005990966876386672
3396.0,0.006167133386013823
3395.0,0.00621118618129457
3394.0,0.006079041198713275
3393.0,0.005858888873877532
3392.0,0.005726851026829571
3391.0,0.00577085918230158
3390.0,0.005946936412324799
3389.0,0.00621118618129457
3388.0,0.006299305179649828
3387.0,0.006299305179649828
3386.0,0.00612308505878878
3385.0,0.005990966876386672
3384.0,0.005858888873877532
3383.0,0.005858888873877532
3382.0,0.00590291041179003
3381.0,0.005946936412324799
3380.0,0.005946936412324799
3379.0,0.00590291041179003
3378.0,0.005814871797682919
3377.0,0.005726851026829571
3376.0,0.005726851026829571
3375.0,0.005814871797682919
3374.0,0.00590291041179003
3373.0,0.005946936412324799
3372.0,0.005990966876386672
3371.0,0.006035001804881146
3370.0,0.006035001804881146
3369.0,0.006035001804881146
3368.0,0.005946936412324799
3367.0,0.005858888873877532
3366.0,0.00577085918230158
3365.0,0.005726851026829571
3364.0,0.005682847330363394
3363.0,0.00577085918230158
3362.0,0.00590291041179003
3361.0,0.005990966876386672
3360.0,0.005946936412324799
3359.0,0.005814871797682919
3358.0,0.005682847330363394
3357.0,0.005594853310833647
3356.0,0.005638848091999105
3355.0,0.005682847330363394
3354.0,0.005814871797682919
3353.0,0.00590291041179003
3352.0,0.005946936412324799
3351.0,0.005946936412324799
3350.0,0.005858888873877532
3349.0,0.00577085918230158
3348.0,0.005726851026829571
3347.0,0.00577085918230158
3346.0,0.005814871797682919
3345.0,0.005814871797682919
3344.0,0.00577085918230158
3343.0,0.005726851026829571
3342.0,0.005682847330363394
3341.0,0.00577085918230158
3340.0,0.005858888873877532
3339.0,0.005990966876386672
3338.0,0.005990966876386672
3337.0,0.005946936412324799
3336.0,0.005858888873877532
3335.0,0.00577085918230158
3334.0,0.005726851026829571
3333.0,0.005682847330363394
3332.0,0.005638848091999105
3331.0,0.005550862985963967
3330.0,0.005462895701502157
3329.0,0.005462895701502157
3328.0,0.005462895701502157
3327.0,0.005462895701502157
3326.0,0.00537494623139545
3325.0,0.005243055412371911
3324.0,0.005199100705396198
3323.0,0.005243055412371911
3322.0,0.00537494623139545
3321.0,0.005506877116487674
3320.0,0.005506877116487674
3319.0,0.005462895701502157
3318.0,0.005330978174470591
3317.0,0.005243055412371911
3316.0,0.005243055412371911
3315.0,0.0052870145684298375
3314.0,0.005330978174470591
3313.0,0.005330978174470591
3312.0,0.0052870145684298375
3311.0,0.0052870145684298375
3310.0,0.005243055412371911
3309.0,0.005199100705396198
3308.0,0.005155150446602086
3307.0,0.005111204635089406
3306.0,0.005067263269958211
3305.0,0.005111204635089406
3304.0,0.005155150446602086
3303.0,0.005243055412371911
3302.0,0.005330978174470591
3301.0,0.005462895701502157
3300.0,0.005550862985963967
3299.0,0.005594853310833647
3298.0,0.005594853310833647
3297.0,0.005550862985963967
3296.0,0.005462895701502157
3295.0,0.00537494623139545
3294.0,0.0052870145684298375
3293.0,0.005199100705396198
3292.0,0.005199100705396198
3291.0,0.005243055412371911
3290.0,0.0052870145684298375
3289.0,0.00537494623139545
3288.0,0.00541891874010525
3287.0,0.00541891874010525
3286.0,0.005330978174470591
3285.0,0.005199100705396198
3284.0,0.005111204635089406
3283.0,0.005067263269958211
3282.0,0.005067263269958211
3281.0,0.005111204635089406
3280.0,0.005111204635089406
3279.0,0.005111204635089406
3278.0,0.005111204635089406
3277.0,0.005111204635089406
3276.0,0.005067263269958211
3275.0,0.004935465843858511
3274.0,0.004803708402820517
3273.0,0.004715892310740433
3272.0,0.004715892310740433
3271.0,0.004759798137184523
3270.0,0.00484762310854614
3269.0,0.00484762310854614
3268.0,0.004803708402820517
3267.0,0.004715892310740433
3266.0,0.004671990922590297
3265.0,0.004628093971837721
3264.0,0.00458420145758498
3263.0,0.004540313378935901
3262.0,0.004540313378935901
3261.0,0.004628093971837721
3260.0,0.004715892310740433
3259.0,0.004759798137184523
3258.0,0.004759798137184523
3257.0,0.004759798137184523
3256.0,0.004759798137184523
3255.0,0.004759798137184523
3254.0,0.004715892310740433
3253.0,0.004628093971837721
3252.0,0.004628093971837721
3251.0,0.004715892310740433
3250.0,0.00484762310854614
3249.0,0.004979393875242044
3248.0,0.004979393875242044
3247.0,0.004935465843858511
3246.0,0.00484762310854614
3245.0,0.004759798137184523
3244.0,0.004715892310740433
3243.0,0.004671990922590297
3242.0,0.004715892310740433
3241.0,0.004803708402820517
3240.0,0.00489154225525934
3239.0,0.004935465843858511
3238.0,0.004935465843858511
3237.0,0.00484762310854614
3236.0,0.004759798137184523
3235.0,0.004715892310740433
3234.0,0.004803708402820517
3233.0,0.00489154225525934
3232.0,0.00489154225525934
3231.0,0.004803708402820517
3230.0,0.004628093971837721
3229.0,0.004452550524862486
3228.0,0.004320939488377862
3227.0,0.004277078004534696
3226.0,0.004277078004534696
3225.0,0.004233220950025984
3224.0,0.004189368323957332
3223.0,0.004145520125434121
3222.0,0.004101676353562844
3221.0,0.004101676353562844
3220.0,0.004189368323957332
3219.0,0.004233220950025984
3218.0,0.004189368323957332
3217.0,0.004145520125434121
3216.0,0.00401400208620073
3215.0,0.003970171588923321
3214.0,0.003926345514724705
3213.0,0.003970171588923321
3212.0,0.003970171588923321
3211.0,0.00401400208620073
3210.0,0.003970171588923321
3209.0,0.003970171588923321
3208.0,0.003970171588923321
3207.0,0.00401400208620073
3206.0,0.003970171588923321
3205.0,0.0038825238627120395
3204.0,0.0038387066319929275
3203.0,0.0038387066319929275
3202.0,0.003926345514724705
3201.0,0.00401400208620073
3200.0,0.004101676353562844
3199.0,0.0040578370074493275
3198.0,0.0040578370074493275
3197.0,0.0040578370074493275
3196.0,0.004101676353562844
3195.0,0.004145520125434121
3194.0,0.004189368323957332
3193.0,0.004233220950025984
3192.0,0.004189368323957332
3191.0,0.004101676353562844
3190.0,0.00401400208620073
3189.0,0.0040578370074493275
3188.0,0.004189368323957332
3187.0,0.004320939488377862
3186.0,0.0043648054024501
3185.0,0.004277078004534696
3184.0,0.0040578370074493275
3183.0,0.0038825238627120395
3182.0,0.0037510854308679953
3181.0,0.0037510854308679953
3180.0,0.003707281458678491
3179.0,0.003707281458678491
3178.0,0.003707281458678491
3177.0,0.0037510854308679953
3176.0,0.003794893821675638
3175.0,0.0038387066319929275
3174.0,0.0038387066319929275
3173.0,0.0038387066319929275
3172.0,0.0038387066319929275
3171.0,0.003926345514724705
3170.0,0.003970171588923321
3169.0,0.003926345514724705
3168.0,0.0038387066319929275
3167.0,0.0036634819042162814
3166.0,0.003488327845821315
3165.0,0.0033570086445275926
3164.0,0.0032694845648473247
3163.0,0.0032694845648473247
3162.0,0.0033132443998284966
3161.0,0.0033570086445275926
3160.0,0.0034007772998332353
3159.0,0.0034007772998332353
3158.0,0.0034445503666347133
3157.0,0.0034445503666347133
3156.0,0.003488327845821315
3155.0,0.0035321097382827737
3154.0,0.003488327845821315
3153.0,0.0034445503666347133
3152.0,0.0034007772998332353
3151.0,0.0034007772998332353
3150.0,0.0033570086445275926
3149.0,0.0033570086445275926
3148.0,0.0032694845648473247
3147.0,0.0032257291386954545
3146.0,0.0032257291386954545
3145.0,0.0032694845648473247
3144.0,0.0032694845648473247
3143.0,0.0033132443998284966
3142.0,0.0033570086445275926
3141.0,0.0033570086445275926
3140.0,0.0034007772998332353
3139.0,0.0033570086445275926
3138.0,0.0032694845648473247
3137.0,0.0032257291386954545
3136.0,0.0032257291386954545
3135.0,0.0032694845648473247
3134.0,0.0032694845648473247
3133.0,0.0032694845648473247
3132.0,0.0032257291386954545
3131.0,0.0032257291386954545
3130.0,0.0032257291386954545
3129.0,0.0031819781204844855
3128.0,0.0031382315093266833
3127.0,0.003050751504618754
3126.0,0.0029632891174733444
3125.0,0.0029195645282691363
3124.0,0.0028758443407954637
3123.0,0.0028758443407954637
3122.0,0.0029632891174733444
3121.0,0.0031382315093266833
3120.0,0.0032694845648473247
3119.0,0.0033132443998284966
3118.0,0.0032694845648473247
3117.0,0.0031819781204844855
3116.0,0.0031382315093266833
3115.0,0.0030944893043338695
3114.0,0.0031382315093266833
3113.0,0.0031382315093266833
3112.0,0.0031819781204844855
3111.0,0.0032694845648473247
3110.0,0.0033132443998284966
3109.0,0.0032694845648473247
3108.0,0.0031819781204844855
3107.0,0.003050751504618754
3106.0,0.0029632891174733444
3105.0,0.0028758443407954637
3104.0,0.0028321285541661467
3103.0,0.0027884171674950053
3102.0,0.0027884171674950053
3101.0,0.0028758443407954637
3100.0,0.0029632891174733444
3099.0,0.0030070181092942683
3098.0,0.0029632891174733444
3097.0,0.0028321285541661467
3096.0,0.002701007590486082
3095.0,0.002701007590486082
3094.0,0.0027884171674950053
3093.0,0.0029195645282691363
3092.0,0.003050751504618754
3091.0,0.0031382315093266833
3090.0,0.0031382315093266833
3089.0,0.0031382315093266833
3088.0,0.0031382315093266833
3087.0,0.0032257291386954545
3086.0,0.0033132443998284966
3085.0,0.0034007772998332353
3084.0,0.0034007772998332353
3083.0,0.0033570086445275926
3082.0,0.0033132443998284966
3081.0,0.0032694845648473247
3080.0,0.0033132443998284966
3079.0,0.0033132443998284966
3078.0,0.0033132443998284966
3077.0,0.0032694845648473247
3076.0,0.0032257291386954545
3075.0,0.0031382315093266833
3074.0,0.003050751504618754
3073.0,0.0029632891174733444
3072.0,0.0028758443407954637
3071.0,0.0028321285541661467
3070.0,0.0027884171674950053
3069.0,0.0028321285541661467
3068.0,0.0029195645282691363
3067.0,0.0029632891174733444
3066.0,0.0030070181092942683
3065.0,0.0030070181092942683
3064.0,0.0029632891174733444
3063.0,0.0029632891174733444
3062.0,0.0029632891174733444
3061.0,0.0028758443407954637
3060.0,0.0027884171674950053
3059.0,0.002701007590486082
3058.0,0.0026573093983774942
3057.0,0.002613615602686581
3056.0,0.0026573093983774942
3055.0,0.0026573093983774942
3054.0,0.002701007590486082
3053.0,0.002701007590486082
3052.0,0.002701007590486082
3051.0,0.002701007590486082
3050.0,0.002701007590486082
3049.0,0.002701007590486082
3048.0,0.0026573093983774942
3047.0,0.002569926202528716
3046.0,0.002482560585275184
3045.0,0.0024388843664115978
3044.0,0.002351545103793873
3043.0,0.0023078820582733695
3042.0,0.0022642234021015284
3041.0,0.0021769192542746563
3040.0,0.0020459959305969555
3039.0,0.0019587356365717845
3038.0,0.0018278780605593958
3037.0,0.0016970599014589638
3036.0,0.0015226969634936083
3035.0,0.001348404001626502
3034.0,0.0012612837441823288
3033.0,0.0011306361176557367
3032.0,0.0010435595295137379
3031.0,0.000869458712629001
3030.0,0.0006084382809090627
3029.0,0.0003475746339209884
3028.0,0.0001303078917322953
3027.0,-4.3427276862573194e-05
3026.0,-0.00017368305846510168
3025.0,-0.0003472966853634851
3024.0,-0.0005208409361854294
3023.0,-0.0007376737740329986
3022.0,-0.0009110621312231615
3021.0,-0.0010843812922201046
3020.0,-0.0013009330204178937
3019.0,-0.0015173768235041685
3018.0,-0.001776967077439462
3017.0,-0.0020796263931210923
3016.0,-0.0024252646779014952
3015.0,-0.0028137792246734072
3014.0,-0.003201946521692367
3013.0,-0.0035897671891400584
3012.0,-0.0039772418455368275
3011.0,-0.004321373782642635
3010.0,-0.004665233247877154
3009.0,-0.005008820672367076
3008.0,-0.005352136486216796
3007.0,-0.005780899954652252
3006.0,-0.006252051369364686
3005.0,-0.00659438618413688
3004.0,-0.0068937079479005625
3003.0,-0.007150105366684922
3002.0,-0.007491733295335923
3001.0,-0.007918390645599072
3000.0,-0.008387230114158761
2999.0,-0.00881300905208926
2998.0,-0.009110806132212712
2997.0,-0.00923837096846647
2996.0,-0.009280884255358668
2995.0,-0.00932339338101329
2994.0,-0.00945089579869407
2993.0,-0.009833178608563031
2992.0,-0.010511962737213665
2991.0,-0.011401259924743723
2990.0,-0.012119835804513368
2989.0,-0.012373167222489823
2988.0,-0.012246519985071203
2987.0,-0.011824095594308748
2986.0,-0.011358953706610553
2985.0,-0.010893313104380464
2984.0,-0.010511962737213665
2983.0,-0.010257542998301172
2982.0,-0.010087846998524608
2981.0,-0.009918084665901272
2980.0,-0.009663316679379363
2979.0,-0.009365898346244794
2978.0,-0.008983203815471796
2977.0,-0.008557591784247087
2976.0,-0.008088936291577475
2975.0,-0.007619774517403144
2974.0,-0.007192823557040651
2973.0,-0.006637159068586307
2972.0,-0.005952286887382918
2971.0,-0.005137595908863979
2970.0,-0.004192356259714369
2969.0,-0.003158833950862139
2968.0,-0.0020796263931210923
2967.0,-0.0009110621312231615
2966.0,0.00030411258916074324
2965.0,0.0016534626036355249
2964.0,0.0030070181092942683
2963.0,0.004233220950025984
2962.0,0.0052870145684298375
2961.0,0.006167133386013823
2960.0,0.00696076819309055
2959.0,0.007711646202907652
2958.0,0.008419542825660153
2957.0,0.00908424549391551
2956.0,0.009705553871561357
2955.0,0.01023881228122181
2954.0,0.01077272626946324
2953.0,0.011307297450183107
2952.0,0.011797899741219142
2951.0,0.012289056869694281
2950.0,0.012914970375878188
2949.0,0.013765869865004277
2948.0,0.014843078722943437
2947.0,0.016193358021584725
2946.0,0.017955020928509757
2945.0,0.02004210665933459
2944.0,0.022505030926963654
2943.0,0.025304128090317013
2942.0,0.02839947976994095
2941.0,0.03184406285002961
2940.0,0.03555179208333925
2939.0,0.03957679292217042
2938.0,0.04387961360698034
2937.0,0.04851676924770687
2936.0,0.053596866100945384
2935.0,0.059035506507200575
2934.0,0.06489597884855036
2933.0,0.07114346641808922
2932.0,0.0777417765670334
2931.0,0.08470571697731355
2930.0,0.09215885741705532
2929.0,0.10007011727213588
2928.0,0.10846254232743546
2927.0,0.1174754620451195
2926.0,0.12714475529518965
2925.0,0.1374512304752069
2924.0,0.14849704722945534
2923.0,0.160145015398115
2922.0,0.1721785723171978
2921.0,0.18422307970163732
2920.0,0.19565608152013425
2919.0,0.20551195334083028
2918.0,0.21282300752944616
2917.0,0.21652521241775347
2916.0,0.21623930425607596
2915.0,0.21190236661970263
2914.0,0.20446755728984556
2913.0,0.19504320014250842
2912.0,0.1848873418101875
2911.0,0.17496355877864622
2910.0,0.1657700971483227
2909.0,0.15745316350498495
2908.0,0.1500894416985039
2907.0,0.14357322752975565
2906.0,0.13768969004572962
2905.0,0.13235576609690147
2904.0,0.1275523522109867
2903.0,0.12314735239865637
2902.0,0.11935787359571504
2901.0,0.11611154211151953
2900.0,0.11345287660889425
2899.0,0.11103465569966264
2898.0,0.10862982530385179
2897.0,0.10601643278815298
2896.0,0.1033635694704158
2895.0,0.1005625457138224
2894.0,0.09772507952549825
2893.0,0.09490603167212863
2892.0,0.09215885741705532
2891.0,0.08942895151874142
2890.0,0.08661005636824437
2889.0,0.08375666953466032
2888.0,0.08076496207674921
2887.0,0.07779372256098371
2886.0,0.07473949048056472
2885.0,0.07175781684269089
2884.0,0.0688982543673613
2883.0,0.06620911585658007
2882.0,0.0636873663378068
2881.0,0.06133019897732073
2880.0,0.059135024033278416
2879.0,0.057049929922901255
2878.0,0.055122694036304765
2877.0,0.053449489430144714
2876.0,0.05192951848105887
2875.0,0.05065879322950262
2874.0,0.04958646063061889
2873.0,0.04866248120408234
2872.0,0.0478374257855374
2871.0,0.04715914332429838
2870.0,0.04662694927330402
2869.0,0.04633693625290869
2868.0,0.046481918555007384
2867.0,0.047062332249019345
2866.0,0.04817696468408794
2865.0,0.04987865248862655
2864.0,0.05222329153526162
2863.0,0.05536929814372171
2862.0,0.05943371350990989
2861.0,0.06439198148213077
2860.0,0.07042782092345012
2859.0,0.07763790321520991
2858.0,0.0861331881037608
2857.0,0.09604229147682952
2856.0,0.10757145305477
2855.0,0.12084675381575383
2854.0,0.13584504399797437
2853.0,0.15224231160766877
2852.0,0.16902660267734948
2851.0,0.18422307970163732
2850.0,0.19531548509305963
2849.0,0.20010831534313467
2848.0,0.19756837356927637
2847.0,0.18869315991866387
2846.0,0.17561379768122598
2845.0,0.16077342598656452
2844.0,0.14599776687301103
2843.0,0.13235576609690147
2842.0,0.12015894401343741
2841.0,0.10946720807225518
2840.0,0.10028890542885538
2839.0,0.09237369515673355
2838.0,0.0856568428805593
2837.0,0.07998108397108505
2836.0,0.07510073598571654
2835.0,0.0709900145060387
2834.0,0.06732334137759932
2833.0,0.06403953101083348
2832.0,0.0611301784870133
2831.0,0.05858795962645047
2830.0,0.05630767289398331
2829.0,0.05423607688882637
2828.0,0.05232126006306337
2827.0,0.05065879322950262
2826.0,0.049148541111453614
2825.0,0.04778894189133087
2824.0,0.04653025674659861
2823.0,0.045323413081356456
2822.0,0.044167989767578186
2821.0,0.0431115453499229
2820.0,0.04210551278710151
2819.0,0.041149548320321694
2818.0,0.0402909757535701
2817.0,0.03952922246570112
2816.0,0.03876880295533702
2815.0,0.038057116858612794
2814.0,0.037299268295658994
2813.0,0.03658998431977123
2812.0,0.03583468937826462
2811.0,0.03512779136222477
2810.0,0.03442204208947208
2809.0,0.03376437590141812
2808.0,0.033154576345083564
2807.0,0.03263926003405038
2806.0,0.032124554451966825
2805.0,0.03161045815293173
2804.0,0.031143625385307683
2803.0,0.0307239045110681
2802.0,0.030397735151460825
2801.0,0.030071810571884017
2800.0,0.029746130405213123
2799.0,0.02932775731028059
2798.0,0.02890978686288448
2797.0,0.02849221828874393
2796.0,0.02812138297373412
2795.0,0.027797161620935595
2794.0,0.02747318213414429
2793.0,0.027195677663422346
2792.0,0.026872146400301444
2791.0,0.026502691267936695
2790.0,0.026087429580295085
2789.0,0.02562649291857677
2788.0,0.02521206778644225
2787.0,0.024890010313838973
2786.0,0.02461415101053266
2785.0,0.024430342106337877
2784.0,0.024200690320592466
2783.0,0.023925268380126097
2782.0,0.02355831062115543
2781.0,0.023237476732539397
2780.0,0.023054249440757957
2779.0,0.02291687968414724
2778.0,0.02277955336461468
2777.0,0.02259651912656535
2776.0,0.022413561996148967
2775.0,0.0221849739168134
2774.0,0.02200219004126036
2773.0,0.021819483062586187
2772.0,0.021636852916117055
2771.0,0.021499930688540836
2770.0,0.02140867317992523
2769.0,0.021271822861508305
2768.0,0.021135015652343103
2767.0,0.020907099361673565
2766.0,0.020633757603838898
2765.0,0.020406104151069693
2764.0,0.02022406727031445
2763.0,0.020087589665283012
2762.0,0.019996628416253603
2761.0,0.019860222254245663
2760.0,0.019678413991243593
2759.0,0.019451260640229506
2758.0,0.0192242260373785
2757.0,0.0190880622231564
2756.0,0.01899731005860028
2755.0,0.018951941086827073
2754.0,0.018906576854070378
2753.0,0.018861217359339655
2752.0,0.018815862601645694
2751.0,0.018770512579999288
2750.0,0.018725167293411005
2749.0,0.018634490921455527
2748.0,0.01858915983411169
2747.0,0.018498511851753108
2746.0,0.01845319495476394
2745.0,0.01840788278591865
2744.0,0.018362575344230914
2743.0,0.01831727262871463
2742.0,0.018226681372252695
2741.0,0.018136109008649592
2740.0,0.018045555530026514
2739.0,0.01800028587012159
2738.0,0.017955020928509757
2737.0,0.017955020928509757
2736.0,0.017955020928509757
2735.0,0.017955020928509757
2734.0,0.017909760704207134
2733.0,0.01781925440359733
2732.0,0.017728766960431575
2731.0,0.01759307113620534
2730.0,0.017502630802287644
2729.0,0.017412209298337533
2728.0,0.017321806616515723
2727.0,0.017321806616515723
2726.0,0.017412209298337533
2725.0,0.017412209298337533
2724.0,0.017321806616515723
2723.0,0.017141057687924732
2722.0,0.016870075265299933
2721.0,0.016644385668211692
2720.0,0.016509028184833463
2719.0,0.016418813294209356
2718.0,0.016418813294209356
2717.0,0.01646391839700767
2716.0,0.016509028184833463
2715.0,0.016554142658660398
2714.0,0.016554142658660398
2713.0,0.01646391839700767
2712.0,0.016373712875465518
2711.0,0.01632861713980338
2710.0,0.016238439713835096
2709.0,0.016193358021584725
2708.0,0.016058141016111804
2707.0,0.015922966097169144
2706.0,0.015832872853011715
2705.0,0.015832872853011715
2704.0,0.015832872853011715
2703.0,0.015832872853011715
2702.0,0.015832872853011715
2701.0,0.015832872853011715
2700.0,0.01578783323856614
2699.0,0.015742798294583915
2698.0,0.015652742414136167
2697.0,0.015562705203923999
2696.0,0.015562705203923999
2695.0,0.015607721475734415
2694.0,0.015652742414136167
2693.0,0.015607721475734415
2692.0,0.015562705203923999
2691.0,0.01547268665620738
2690.0,0.01547268665620738
2689.0,0.01547268665620738
2688.0,0.01547268665620738
2687.0,0.01547268665620738
2686.0,0.015427684378367834
2685.0,0.015427684378367834
2684.0,0.01538268676325183
2683.0,0.015427684378367834
2682.0,0.015427684378367834
2681.0,0.015427684378367834
2680.0,0.01538268676325183
2679.0,0.015427684378367834
2678.0,0.01547268665620738
2677.0,0.015517693597737248
2676.0,0.015562705203923999
2675.0,0.015562705203923999
2674.0,0.015517693597737248
2673.0,0.01547268665620738
2672.0,0.015427684378367834
2671.0,0.015427684378367834
2670.0,0.015427684378367834
2669.0,0.015427684378367834
2668.0,0.015427684378367834
2667.0,0.01538268676325183
2666.0,0.01538268676325183
2665.0,0.015337693809893471
2664.0,0.015337693809893471
2663.0,0.015337693809893471
2662.0,0.01538268676325183
2661.0,0.01538268676325183
2660.0,0.01538268676325183
2659.0,0.015337693809893471
2658.0,0.015292705517326866
2657.0,0.015292705517326866
2656.0,0.015247721884586563
2655.0,0.015202742910707112
2654.0,0.015157768594724175
2653.0,0.015067833932588037
2652.0,0.015022873584506602
2651.0,0.014977917890464765
2650.0,0.014932966849499074
2649.0,0.014888020460646079
2648.0,0.014888020460646079
2647.0,0.014932966849499074
2646.0,0.014977917890464765
2645.0,0.014977917890464765
2644.0,0.014932966849499074
2643.0,0.014843078722943437
2642.0,0.014798141635428141
2641.0,0.014753209197138295
2640.0,0.014843078722943437
2639.0,0.014888020460646079
2638.0,0.014932966849499074
2637.0,0.014932966849499074
2636.0,0.014932966849499074
2635.0,0.014932966849499074
2634.0,0.014932966849499074
2633.0,0.014888020460646079
2632.0,0.014798141635428141
2631.0,0.014663358264387139
2630.0,0.014573525916998342
2629.0,0.014438812226654996
2628.0,0.014349026309051105
2627.0,0.014259258949925524
2626.0,0.014169510141607944
2625.0,0.014124642691606404
2624.0,0.014124642691606404
2623.0,0.014169510141607944
2622.0,0.014169510141607944
2621.0,0.014169510141607944
2620.0,0.014169510141607944
2619.0,0.014169510141607944
2618.0,0.014124642691606404
2617.0,0.014079779876432497
2616.0,0.013945219230304673
2615.0,0.01381070026317599
2614.0,0.01372104409400876
2613.0,0.013676222949234651
2612.0,0.013631406429727155
2611.0,0.013586594534531482
2610.0,0.013541787262693505
2609.0,0.013452186585275916
2608.0,0.013362604389846044
2607.0,0.013273040668781544
2606.0,0.01322826573375524
2605.0,0.01318349541446362
2604.0,0.01318349541446362
2603.0,0.013093968619278806
2602.0,0.013004460275618523
2601.0,0.012914970375878188
2600.0,0.012870232340102872
2599.0,0.012870232340102872
2598.0,0.012870232340102872
2597.0,0.012914970375878188
2596.0,0.012914970375878188
2595.0,0.012870232340102872
2594.0,0.012825498912458322
2593.0,0.012736045877764557
2592.0,0.012691326268817527
2591.0,0.012691326268817527
2590.0,0.01264661126420652
2589.0,0.01260190086298274
2588.0,0.012557195064198723
2587.0,0.012467797270160563
2586.0,0.012378417874516323
2585.0,0.012333735073725371
2584.0,0.012378417874516323
2583.0,0.012467797270160563
2582.0,0.012512493866907004
2581.0,0.012512493866907004
2580.0,0.012423105273012602
2579.0,0.012378417874516323
2578.0,0.012289056869694281
2577.0,0.012244383261476699
2576.0,0.012199714248127602
2575.0,0.012199714248127602
2574.0,0.01215504982870197
2573.0,0.012065734767841452
2572.0,0.012021084124518078
2571.0,0.0119764380713403
2570.0,0.012021084124518078
2569.0,0.012065734767841452
2568.0,0.012021084124518078
2567.0,0.0119764380713403
2566.0,0.011842527443247208
2565.0,0.011797899741219142
2564.0,0.011797899741219142
2563.0,0.011842527443247208
2562.0,0.011842527443247208
2561.0,0.011842527443247208
2560.0,0.011842527443247208
2559.0,0.011797899741219142
2558.0,0.011708658092512314
2557.0,0.011619434777991433
2556.0,0.011485634166333858
2555.0,0.011441043121384498
2554.0,0.011441043121384498
2553.0,0.011485634166333858
2552.0,0.011530229790124524
2551.0,0.011485634166333858
2550.0,0.011396456654336085
2549.0,0.011351874764248926
2548.0,0.011351874764248926
2547.0,0.011307297450183107
2546.0,0.011262724711199823
2545.0,0.01117359295472431
2544.0,0.011129033935354915
2543.0,0.011129033935354915
2542.0,0.011129033935354915
2541.0,0.011129033935354915
2540.0,0.011084479487313281
2539.0,0.010995384301463185
2538.0,0.010950843561779777
2537.0,0.010950843561779777
2536.0,0.010950843561779777
2535.0,0.010906307389674463
2534.0,0.010906307389674463
2533.0,0.01086177578421088
2532.0,0.01086177578421088
2531.0,0.010906307389674463
2530.0,0.010995384301463185
2529.0,0.010995384301463185
2528.0,0.010995384301463185
2527.0,0.010906307389674463
2526.0,0.010817248744452446
2525.0,0.01077272626946324
2524.0,0.010728208358306901
2523.0,0.01077272626946324
2522.0,0.010728208358306901
2521.0,0.010728208358306901
2520.0,0.010683695010048622
2519.0,0.010639186223752484
2518.0,0.010594681998483901
2517.0,0.010550182333308289
2516.0,0.010505687227290839
2515.0,0.01046119667949763
2514.0,0.01046119667949763
2513.0,0.010416710688994968
2512.0,0.01037222925484893
2511.0,0.01037222925484893
2510.0,0.010416710688994968
2509.0,0.01046119667949763
2508.0,0.010550182333308289
2507.0,0.010550182333308289
2506.0,0.010550182333308289
2505.0,0.010505687227290839
2504.0,0.010505687227290839
2503.0,0.010505687227290839
2502.0,0.01046119667949763
2501.0,0.010416710688994968
2500.0,0.01037222925484893
2499.0,0.01037222925484893
2498.0,0.010283280051895272
2497.0,0.01023881228122181
2496.0,0.010149890396819572
2495.0,0.010149890396819572
2494.0,0.010149890396819572
2493.0,0.01023881228122181
2492.0,0.010283280051895272
2491.0,0.010283280051895272
2490.0,0.01023881228122181
2489.0,0.010194349063173958
2488.0,0.010105436281226954
2487.0,0.009972101229705377
2486.0,0.009838807101520963
2485.0,0.00974996707218323
2484.0,0.009794384815193347
2483.0,0.009927665307847056
2482.0,0.010105436281226954
2481.0,0.010149890396819572
2480.0,0.010194349063173958
2479.0,0.010149890396819572
2478.0,0.010105436281226954
2477.0,0.01001654169860089
2476.0,0.009927665307847056
2475.0,0.009838807101520963
2474.0,0.009794384815193347
2473.0,0.00974996707218323
2472.0,0.009794384815193347
2471.0,0.009838807101520963
2470.0,0.009838807101520963
2469.0,0.009794384815193347
2468.0,0.00974996707218323
2467.0,0.00974996707218323
2466.0,0.00974996707218323
2465.0,0.009794384815193347
2464.0,0.009838807101520963
2463.0,0.009883233932095559
2462.0,0.009927665307847056
2461.0,0.009927665307847056
2460.0,0.009838807101520963
2459.0,0.009705553871561357
2458.0,0.00966114521239847
2457.0,0.009616741093766423
2456.0,0.009616741093766423
2455.0,0.009616741093766423
2454.0,0.009616741093766423
2453.0,0.009616741093766423
2452.0,0.009572341514736404
2451.0,0.009572341514736404
2450.0,0.009616741093766423
2449.0,0.00966114521239847
2448.0,0.009705553871561357
2447.0,0.009705553871561357
2446.0,0.00966114521239847
2445.0,0.009616741093766423
2444.0,0.009616741093766423
2443.0,0.00966114521239847
2442.0,0.00966114521239847
2441.0,0.009705553871561357
2440.0,0.009705553871561357
2439.0,0.009705553871561357
2438.0,0.009705553871561357
2437.0,0.00966114521239847
2436.0,0.00966114521239847
2435.0,0.00966114521239847
2434.0,0.009705553871561357
2433.0,0.00974996707218323
2432.0,0.009794384815193347
2431.0,0.00974996707218323
2430.0,0.009705553871561357
2429.0,0.009616741093766423
2428.0,0.009572341514736404
2427.0,0.009572341514736404
2426.0,0.009572341514736404
2425.0,0.009572341514736404
2424.0,0.009527946474380489
2423.0,0.009483555971770974
2422.0,0.009439170005980158
2421.0,0.009439170005980158
2420.0,0.009527946474380489
2419.0,0.009616741093766423
2418.0,0.00966114521239847
2417.0,0.00966114521239847
2416.0,0.00966114521239847
2415.0,0.00966114521239847
2414.0,0.009572341514736404
2413.0,0.009483555971770974
2412.0,0.00939478857608056
2411.0,0.009306039320248427
2410.0,0.009350411681145587
2409.0,0.00939478857608056
2408.0,0.009483555971770974
2407.0,0.009572341514736404
2406.0,0.009616741093766423
2405.0,0.009616741093766423
2404.0,0.009616741093766423
2403.0,0.009616741093766423
2402.0,0.009616741093766423
2401.0,0.009616741093766423
2400.0,0.009616741093766423
2399.0,0.009572341514736404
2398.0,0.009439170005980158
2397.0,0.00939478857608056
2396.0,0.00939478857608056
2395.0,0.009439170005980158
2394.0,0.009483555971770974
2393.0,0.009439170005980158
2392.0,0.00939478857608056
2391.0,0.00939478857608056
2390.0,0.009350411681145587
2389.0,0.009306039320248427
2388.0,0.009217308196862062
2387.0,0.00908424549391551
2386.0,0.008906891951112605
2385.0,0.0087296108049002
2384.0,0.008596697419959609
2383.0,0.00850811108984062
2382.0,0.00850811108984062
2381.0,0.00850811108984062
2380.0,0.008552401996197112
2379.0,0.008596697419959609
2378.0,0.008685301823389224
2377.0,0.008773924307505121
2376.0,0.008862564879688284
2375.0,0.008818242332126802
2374.0,0.008640997362049818
2373.0,0.008286724286910463
2372.0,0.007932739972333236
2371.0,0.007490664932224611
2370.0,0.007181479933320523
2369.0,0.007093181776687496
2368.0,0.007534852191956709
2367.0,0.008463824699968647
2366.0,0.009572341514736404
2365.0,0.01046119667949763
2364.0,0.010906307389674463
2363.0,0.010817248744452446
2362.0,0.01023881228122181
2361.0,0.008906891951112605
2360.0,0.007225635744644521
2359.0,0.00625524344553785
2358.0,0.006784279525863024
2357.0,0.008198201155356077
2356.0,0.009128595198514056
2355.0,0.00908424549391551
2354.0,0.008552401996197112
2353.0,0.008242460465651913
2352.0,0.008242460465651913
2351.0,0.008242460465651913
2350.0,0.008198201155356077
2349.0,0.008065450281052211
2348.0,0.007932739972333236
2347.0,0.007711646202907652
2346.0,0.007534852191956709
2345.0,0.007402303897961815
2344.0,0.007313960837872058
2343.0,0.007225635744644521
2342.0,0.007269796045857202
2341.0,0.007490664932224611
2340.0,0.00762324020119709
2339.0,0.007844288957383316
2338.0,0.008242460465651913
2337.0,0.008818242332126802
2336.0,0.009261671492462709
2335.0,0.009350411681145587
2334.0,0.009217308196862062
2333.0,0.008995559669244813
2332.0,0.0087296108049002
2331.0,0.008286724286910463
2330.0,0.007711646202907652
2329.0,0.007181479933320523
2328.0,0.006872514894289861
2327.0,0.007004901568658406
2326.0,0.007490664932224611
2325.0,0.008153946355103248
2324.0,0.0087296108049002
2323.0,0.009039900317800775
2322.0,0.00908424549391551
2321.0,0.008951223547323472
2320.0,0.0087296108049002
2319.0,0.008463824699968647
2318.0,0.008286724286910463
2317.0,0.008109696063975047
2316.0,0.007888512213050314
2315.0,0.007755855953228474
2314.0,0.007667440952535687
2313.0,0.007667440952535687
2312.0,0.007711646202907652
2311.0,0.007755855953228474
2310.0,0.007800070204414977
2309.0,0.007888512213050314
2308.0,0.007932739972333236
2307.0,0.008065450281052211
2306.0,0.008198201155356077
2305.0,0.008375265465994541
2304.0,0.008419542825660153
2303.0,0.008463824699968647
2302.0,0.008419542825660153
2301.0,0.008419542825660153
2300.0,0.008375265465994541
2299.0,0.008286724286910463
2298.0,0.008242460465651913
2297.0,0.008242460465651913
2296.0,0.008330992620051436
2295.0,0.008463824699968647
2294.0,0.008552401996197112
2293.0,0.008640997362049818
2292.0,0.008773924307505121
2291.0,0.008818242332126802
2290.0,0.008818242332126802
2289.0,0.008818242332126802
2288.0,0.008818242332126802
2287.0,0.008862564879688284
2286.0,0.008951223547323472
2285.0,0.009039900317800775
2284.0,0.009128595198514056
2283.0,0.009172949432521227
2282.0,0.009172949432521227
2281.0,0.009128595198514056
2280.0,0.00908424549391551
2279.0,0.00908424549391551
2278.0,0.009128595198514056
2277.0,0.009172949432521227
2276.0,0.009217308196862062
2275.0,0.009172949432521227
2274.0,0.009039900317800775
2273.0,0.008862564879688284
2272.0,0.008773924307505121
2271.0,0.008773924307505121
2270.0,0.008818242332126802
2269.0,0.008862564879688284
2268.0,0.008906891951112605
2267.0,0.008906891951112605
2266.0,0.008862564879688284
2265.0,0.008906891951112605
2264.0,0.008906891951112605
2263.0,0.008906891951112605
2262.0,0.008906891951112605
2261.0,0.008906891951112605
2260.0,0.008951223547323472
2259.0,0.008951223547323472
2258.0,0.008862564879688284
2257.0,0.008773924307505121
2256.0,0.008685301823389224
2255.0,0.008640997362049818
2254.0,0.008685301823389224
2253.0,0.0087296108049002
2252.0,0.008818242332126802
2251.0,0.008906891951112605
2250.0,0.008862564879688284
2249.0,0.008818242332126802
2248.0,0.008818242332126802
2247.0,0.008818242332126802
2246.0,0.008862564879688284
2245.0,0.008906891951112605
2244.0,0.008951223547323472
2243.0,0.008951223547323472
2242.0,0.008995559669244813
2241.0,0.008995559669244813
2240.0,0.008951223547323472
2239.0,0.008906891951112605
2238.0,0.008906891951112605
2237.0,0.008906891951112605
2236.0,0.008906891951112605
2235.0,0.008951223547323472
2234.0,0.008951223547323472
2233.0,0.008995559669244813
2232.0,0.008995559669244813
2231.0,0.008995559669244813
2230.0,0.008995559669244813
2229.0,0.008951223547323472
2228.0,0.008906891951112605
2227.0,0.008862564879688284
2226.0,0.008862564879688284
2225.0,0.008862564879688284
2224.0,0.008862564879688284
2223.0,0.008862564879688284
2222.0,0.008818242332126802
2221.0,0.008818242332126802
2220.0,0.008773924307505121
2219.0,0.008773924307505121
2218.0,0.008773924307505121
2217.0,0.008818242332126802
2216.0,0.008818242332126802
2215.0,0.008906891951112605
2214.0,0.008951223547323472
2213.0,0.008995559669244813
2212.0,0.008951223547323472
2211.0,0.008862564879688284
2210.0,0.008773924307505121
2209.0,0.008773924307505121
2208.0,0.008818242332126802
2207.0,0.008862564879688284
2206.0,0.008862564879688284
2205.0,0.008862564879688284
2204.0,0.008818242332126802
2203.0,0.0087296108049002
2202.0,0.0087296108049002
2201.0,0.008773924307505121
2200.0,0.008862564879688284
2199.0,0.008951223547323472
2198.0,0.008951223547323472
2197.0,0.008951223547323472
2196.0,0.008951223547323472
2195.0,0.008951223547323472
2194.0,0.008951223547323472
2193.0,0.008906891951112605
2192.0,0.008906891951112605
2191.0,0.008862564879688284
2190.0,0.008818242332126802
2189.0,0.008818242332126802
2188.0,0.008862564879688284
2187.0,0.008862564879688284
2186.0,0.008906891951112605
2185.0,0.008906891951112605
2184.0,0.008862564879688284
2183.0,0.008862564879688284
2182.0,0.008818242332126802
2181.0,0.008773924307505121
2180.0,0.008773924307505121
2179.0,0.0087296108049002
2178.0,0.008773924307505121
2177.0,0.008818242332126802
2176.0,0.008862564879688284
2175.0,0.008862564879688284
2174.0,0.008862564879688284
2173.0,0.008818242332126802
2172.0,0.008818242332126802
2171.0,0.008862564879688284
2170.0,0.008862564879688284
2169.0,0.008862564879688284
2168.0,0.008818242332126802
2167.0,0.008773924307505121
2166.0,0.008773924307505121
2165.0,0.0087296108049002
2164.0,0.008685301823389224
2163.0,0.008640997362049818
2162.0,0.008552401996197112
2161.0,0.008596697419959609
2160.0,0.008640997362049818
2159.0,0.0087296108049002
2158.0,0.008862564879688284
2157.0,0.008906891951112605
2156.0,0.008951223547323472
2155.0,0.008951223547323472
2154.0,0.008906891951112605
2153.0,0.008818242332126802
2152.0,0.0087296108049002
2151.0,0.008685301823389224
2150.0,0.008640997362049818
2149.0,0.008640997362049818
2148.0,0.008596697419959609
2147.0,0.008596697419959609
2146.0,0.008640997362049818
2145.0,0.008685301823389224
2144.0,0.008773924307505121
2143.0,0.008862564879688284
2142.0,0.008906891951112605
2141.0,0.008906891951112605
2140.0,0.008862564879688284
2139.0,0.008773924307505121
2138.0,0.008685301823389224
2137.0,0.008640997362049818
2136.0,0.008640997362049818
2135.0,0.008596697419959609
2134.0,0.008596697419959609
2133.0,0.008596697419959609
2132.0,0.008640997362049818
2131.0,0.008640997362049818
2130.0,0.008640997362049818
2129.0,0.008552401996197112
2128.0,0.008463824699968647
2127.0,0.008375265465994541
2126.0,0.008330992620051436
2125.0,0.008330992620051436
2124.0,0.008419542825660153
2123.0,0.00850811108984062
2122.0,0.008596697419959609
2121.0,0.008596697419959609
2120.0,0.008596697419959609
2119.0,0.008552401996197112
2118.0,0.00850811108984062
2117.0,0.00850811108984062
2116.0,0.00850811108984062
2115.0,0.008552401996197112
2114.0,0.008640997362049818
2113.0,0.008640997362049818
2112.0,0.008640997362049818
2111.0,0.008552401996197112
2110.0,0.00850811108984062
2109.0,0.008463824699968647
2108.0,0.008463824699968647
2107.0,0.008463824699968647
2106.0,0.008463824699968647
2105.0,0.008463824699968647
2104.0,0.008463824699968647
2103.0,0.008463824699968647
2102.0,0.00850811108984062
2101.0,0.008552401996197112
2100.0,0.008596697419959609
2099.0,0.008596697419959609
2098.0,0.008552401996197112
2097.0,0.008552401996197112
2096.0,0.008596697419959609
2095.0,0.008596697419959609
2094.0,0.008640997362049818
2093.0,0.008596697419959609
2092.0,0.008596697419959609
2091.0,0.008552401996197112
2090.0,0.00850811108984062
2089.0,0.008552401996197112
2088.0,0.008552401996197112
2087.0,0.008552401996197112
2086.0,0.00850811108984062
2085.0,0.00850811108984062
2084.0,0.00850811108984062
2083.0,0.008596697419959609
2082.0,0.008685301823389224
2081.0,0.008773924307505121
2080.0,0.0087296108049002
2079.0,0.008685301823389224
2078.0,0.008640997362049818
2077.0,0.008685301823389224
2076.0,0.0087296108049002
2075.0,0.008773924307505121
2074.0,0.008818242332126802
2073.0,0.008773924307505121
2072.0,0.0087296108049002
2071.0,0.008685301823389224
2070.0,0.008640997362049818
2069.0,0.008596697419959609
2068.0,0.008552401996197112
2067.0,0.00850811108984062
2066.0,0.00850811108984062
2065.0,0.008552401996197112
2064.0,0.008640997362049818
2063.0,0.008685301823389224
2062.0,0.008773924307505121
2061.0,0.008862564879688284
2060.0,0.008906891951112605
2059.0,0.008995559669244813
2058.0,0.008995559669244813
2057.0,0.009039900317800775
2056.0,0.00908424549391551
2055.0,0.00908424549391551
2054.0,0.00908424549391551
2053.0,0.00908424549391551
2052.0,0.00908424549391551
2051.0,0.009039900317800775
2050.0,0.008995559669244813
2049.0,0.008906891951112605
2048.0,0.008818242332126802
2047.0,0.008773924307505121
2046.0,0.008773924307505121
2045.0,0.008862564879688284
2044.0,0.008951223547323472
2043.0,0.008995559669244813
2042.0,0.008995559669244813
2041.0,0.008951223547323472
2040.0,0.008862564879688284
2039.0,0.008818242332126802
2038.0,0.008773924307505121
2037.0,0.008818242332126802
2036.0,0.008906891951112605
2035.0,0.008951223547323472
2034.0,0.008995559669244813
2033.0,0.009039900317800775
2032.0,0.00908424549391551
2031.0,0.009128595198514056
2030.0,0.009128595198514056
2029.0,0.00908424549391551
2028.0,0.009039900317800775
2027.0,0.008995559669244813
2026.0,0.008951223547323472
2025.0,0.008951223547323472
2024.0,0.008995559669244813
2023.0,0.009039900317800775
2022.0,0.00908424549391551
2021.0,0.009128595198514056
2020.0,0.009217308196862062
2019.0,0.009306039320248427
2018.0,0.009350411681145587
2017.0,0.00939478857608056
2016.0,0.009306039320248427
2015.0,0.009217308196862062
2014.0,0.009128595198514056
2013.0,0.008995559669244813
2012.0,0.008862564879688284
2011.0,0.008773924307505121
2010.0,0.008685301823389224
2009.0,0.008685301823389224
2008.0,0.008685301823389224
2007.0,0.008685301823389224
2006.0,0.008685301823389224
2005.0,0.0087296108049002
2004.0,0.008773924307505121
2003.0,0.008818242332126802
2002.0,0.008818242332126802
2001.0,0.008862564879688284
2000.0,0.008818242332126802
1999.0,0.008773924307505121
1998.0,0.0087296108049002
1997.0,0.008685301823389224
1996.0,0.008640997362049818
1995.0,0.008640997362049818
1994.0,0.008640997362049818
1993.0,0.008685301823389224
1992.0,0.008640997362049818
1991.0,0.008596697419959609
1990.0,0.008596697419959609
1989.0,0.008596697419959609
1988.0,0.008685301823389224
1987.0,0.008773924307505121
1986.0,0.008773924307505121
1985.0,0.008640997362049818
1984.0,0.00850811108984062
1983.0,0.008419542825660153
1982.0,0.008375265465994541
1981.0,0.008375265465994541
1980.0,0.008463824699968647
1979.0,0.008596697419959609
1978.0,0.008640997362049818
1977.0,0.008640997362049818
1976.0,0.008596697419959609
1975.0,0.00850811108984062
1974.0,0.008463824699968647
1973.0,0.008419542825660153
1972.0,0.008419542825660153
1971.0,0.008419542825660153
1970.0,0.008419542825660153
1969.0,0.008419542825660153
1968.0,0.008419542825660153
1967.0,0.008463824699968647
1966.0,0.008463824699968647
1965.0,0.008463824699968647
1964.0,0.008419542825660153
1963.0,0.008419542825660153
1962.0,0.008419542825660153
1961.0,0.008463824699968647
1960.0,0.00850811108984062
1959.0,0.008552401996197112
1958.0,0.008552401996197112
1957.0,0.008552401996197112
1956.0,0.00850811108984062
1955.0,0.008463824699968647
1954.0,0.008375265465994541
1953.0,0.008375265465994541
1952.0,0.008419542825660153
1951.0,0.008463824699968647
1950.0,0.00850811108984062
1949.0,0.00850811108984062
1948.0,0.008463824699968647
1947.0,0.008375265465994541
1946.0,0.008286724286910463
1945.0,0.008198201155356077
1944.0,0.008109696063975047
1943.0,0.008065450281052211
1942.0,0.008065450281052211
1941.0,0.008065450281052211
1940.0,0.008065450281052211
1939.0,0.008065450281052211
1938.0,0.008109696063975047
1937.0,0.008109696063975047
1936.0,0.008153946355103248
1935.0,0.008242460465651913
1934.0,0.008242460465651913
1933.0,0.008286724286910463
1932.0,0.008330992620051436
1931.0,0.008330992620051436
1930.0,0.008330992620051436
1929.0,0.008330992620051436
1928.0,0.008286724286910463
1927.0,0.008198201155356077
1926.0,0.008109696063975047
1925.0,0.008065450281052211
1924.0,0.008153946355103248
1923.0,0.008242460465651913
1922.0,0.008286724286910463
1921.0,0.008330992620051436
1920.0,0.008286724286910463
1919.0,0.008198201155356077
1918.0,0.008198201155356077
1917.0,0.008198201155356077
1916.0,0.008242460465651913
1915.0,0.008242460465651913
1914.0,0.008286724286910463
1913.0,0.008330992620051436
1912.0,0.008330992620051436
1911.0,0.008330992620051436
1910.0,0.008375265465994541
1909.0,0.008419542825660153
1908.0,0.00850811108984062
1907.0,0.008596697419959609
1906.0,0.008596697419959609
1905.0,0.008596697419959609
1904.0,0.008552401996197112
1903.0,0.00850811108984062
1902.0,0.008552401996197112
1901.0,0.008596697419959609
1900.0,0.008596697419959609
1899.0,0.008552401996197112
1898.0,0.00850811108984062
1897.0,0.008552401996197112
1896.0,0.008640997362049818
1895.0,0.008773924307505121
1894.0,0.008906891951112605
1893.0,0.008906891951112605
1892.0,0.008862564879688284
1891.0,0.008685301823389224
1890.0,0.008552401996197112
1889.0,0.00850811108984062
1888.0,0.008552401996197112
1887.0,0.00850811108984062
1886.0,0.008463824699968647
1885.0,0.008375265465994541
1884.0,0.008330992620051436
1883.0,0.008375265465994541
1882.0,0.008419542825660153
1881.0,0.00850811108984062
1880.0,0.00850811108984062
1879.0,0.008419542825660153
1878.0,0.008375265465994541
1877.0,0.008375265465994541
1876.0,0.008330992620051436
1875.0,0.008286724286910463
1874.0,0.008198201155356077
1873.0,0.008153946355103248
1872.0,0.008109696063975047
1871.0,0.008109696063975047
1870.0,0.008153946355103248
1869.0,0.008242460465651913
1868.0,0.008375265465994541
1867.0,0.008463824699968647
1866.0,0.00850811108984062
1865.0,0.008463824699968647
1864.0,0.008375265465994541
1863.0,0.008330992620051436
1862.0,0.008330992620051436
1861.0,0.008375265465994541
1860.0,0.008375265465994541
1859.0,0.008375265465994541
1858.0,0.008330992620051436
1857.0,0.008286724286910463
1856.0,0.008242460465651913
1855.0,0.008153946355103248
1854.0,0.008153946355103248
1853.0,0.008153946355103248
1852.0,0.008153946355103248
1851.0,0.008198201155356077
1850.0,0.008242460465651913
1849.0,0.008242460465651913
1848.0,0.008198201155356077
1847.0,0.008153946355103248
1846.0,0.008065450281052211
1845.0,0.008021209005416363
1844.0,0.008065450281052211
1843.0,0.008198201155356077
1842.0,0.008242460465651913
1841.0,0.008198201155356077
1840.0,0.008109696063975047
1839.0,0.008065450281052211
1838.0,0.008021209005416363
1837.0,0.008065450281052211
1836.0,0.008021209005416363
1835.0,0.007888512213050314
1834.0,0.007844288957383316
1833.0,0.007844288957383316
1832.0,0.007976972236149349
1831.0,0.008109696063975047
1830.0,0.008198201155356077
1829.0,0.008286724286910463
1828.0,0.008286724286910463
1827.0,0.008198201155356077
1826.0,0.008153946355103248
1825.0,0.008198201155356077
1824.0,0.008198201155356077
1823.0,0.008198201155356077
1822.0,0.008153946355103248
1821.0,0.008065450281052211
1820.0,0.008021209005416363
1819.0,0.008021209005416363
1818.0,0.008109696063975047
1817.0,0.008242460465651913
1816.0,0.008330992620051436
1815.0,0.008330992620051436
1814.0,0.008286724286910463
1813.0,0.008198201155356077
1812.0,0.008153946355103248
1811.0,0.008109696063975047
1810.0,0.008065450281052211
1809.0,0.008109696063975047
1808.0,0.008109696063975047
1807.0,0.008109696063975047
1806.0,0.008109696063975047
1805.0,0.008109696063975047
1804.0,0.008065450281052211
1803.0,0.008109696063975047
1802.0,0.008153946355103248
1801.0,0.008286724286910463
1800.0,0.008330992620051436
1799.0,0.008330992620051436
1798.0,0.008286724286910463
1797.0,0.008242460465651913
1796.0,0.008242460465651913
1795.0,0.008198201155356077
1794.0,0.008109696063975047
1793.0,0.008021209005416363
1792.0,0.007976972236149349
1791.0,0.007976972236149349
1790.0,0.007976972236149349
1789.0,0.007932739972333236
1788.0,0.007932739972333236
1787.0,0.007888512213050314
1786.0,0.007888512213050314
1785.0,0.007976972236149349
1784.0,0.008109696063975047
1783.0,0.008153946355103248
1782.0,0.008153946355103248
1781.0,0.008109696063975047
1780.0,0.007976972236149349
1779.0,0.007932739972333236
1778.0,0.007888512213050314
1777.0,0.007888512213050314
1776.0,0.007888512213050314
1775.0,0.007932739972333236
1774.0,0.007888512213050314
1773.0,0.007844288957383316
1772.0,0.007800070204414977
1771.0,0.007755855953228474
1770.0,0.007755855953228474
1769.0,0.007755855953228474
1768.0,0.007800070204414977
1767.0,0.007888512213050314
1766.0,0.007932739972333236
1765.0,0.007976972236149349
1764.0,0.008065450281052211
1763.0,0.008065450281052211
1762.0,0.008109696063975047
1761.0,0.008109696063975047
1760.0,0.008109696063975047
1759.0,0.008021209005416363
1758.0,0.007976972236149349
1757.0,0.007932739972333236
1756.0,0.008021209005416363
1755.0,0.008109696063975047
1754.0,0.008109696063975047
1753.0,0.008109696063975047
1752.0,0.008109696063975047
1751.0,0.008286724286910463
1750.0,0.00850811108984062
1749.0,0.008685301823389224
1748.0,0.008773924307505121
1747.0,0.008818242332126802
1746.0,0.008818242332126802
1745.0,0.008818242332126802
1744.0,0.008818242332126802
1743.0,0.008862564879688284
1742.0,0.008862564879688284
1741.0,0.008862564879688284
1740.0,0.008773924307505121
1739.0,0.0087296108049002
1738.0,0.0087296108049002
1737.0,0.008818242332126802
1736.0,0.008862564879688284
1735.0,0.008862564879688284
1734.0,0.008906891951112605
1733.0,0.008995559669244813
1732.0,0.008951223547323472
1731.0,0.008906891951112605
1730.0,0.008906891951112605
1729.0,0.008906891951112605
1728.0,0.008951223547323472
1727.0,0.008951223547323472
1726.0,0.008951223547323472
1725.0,0.008951223547323472
1724.0,0.008862564879688284
1723.0,0.008773924307505121
1722.0,0.008685301823389224
1721.0,0.008640997362049818
1720.0,0.008640997362049818
1719.0,0.008596697419959609
1718.0,0.008552401996197112
1717.0,0.008640997362049818
1716.0,0.0087296108049002
1715.0,0.008685301823389224
1714.0,0.008685301823389224
1713.0,0.008685301823389224
1712.0,0.008640997362049818
1711.0,0.008596697419959609
1710.0,0.008552401996197112
1709.0,0.008552401996197112
1708.0,0.008552401996197112
1707.0,0.00850811108984062
1706.0,0.008419542825660153
1705.0,0.008419542825660153
1704.0,0.008419542825660153
1703.0,0.008419542825660153
1702.0,0.008375265465994541
1701.0,0.008286724286910463
1700.0,0.008286724286910463
1699.0,0.008286724286910463
1698.0,0.008375265465994541
1697.0,0.00850811108984062
1696.0,0.00850811108984062
1695.0,0.00850811108984062
1694.0,0.00850811108984062
1693.0,0.008596697419959609
1692.0,0.008596697419959609
1691.0,0.008552401996197112
1690.0,0.00850811108984062
1689.0,0.008552401996197112
1688.0,0.008685301823389224
1687.0,0.008862564879688284
1686.0,0.008995559669244813
1685.0,0.00908424549391551
1684.0,0.009261671492462709
1683.0,0.00939478857608056
1682.0,0.009350411681145587
1681.0,0.009350411681145587
1680.0,0.009217308196862062
1679.0,0.009039900317800775
1678.0,0.008862564879688284
1677.0,0.008773924307505121
1676.0,0.008773924307505121
1675.0,0.008951223547323472
1674.0,0.00908424549391551
1673.0,0.009128595198514056
1672.0,0.00908424549391551
1671.0,0.008995559669244813
1670.0,0.008995559669244813
1669.0,0.00908424549391551
1668.0,0.009172949432521227
1667.0,0.009217308196862062
1666.0,0.009217308196862062
1665.0,0.009172949432521227
1664.0,0.00908424549391551
1663.0,0.00908424549391551
1662.0,0.009128595198514056
1661.0,0.009217308196862062
1660.0,0.009306039320248427
1659.0,0.009306039320248427
1658.0,0.009261671492462709
1657.0,0.009261671492462709
1656.0,0.009439170005980158
1655.0,0.009616741093766423
1654.0,0.009705553871561357
1653.0,0.00974996707218323
1652.0,0.009483555971770974
1651.0,0.009261671492462709
1650.0,0.009306039320248427
1649.0,0.00939478857608056
1648.0,0.009439170005980158
1647.0,0.009439170005980158
1646.0,0.00939478857608056
1645.0,0.009306039320248427
1644.0,0.009261671492462709
1643.0,0.009217308196862062
1642.0,0.009217308196862062
1641.0,0.009172949432521227
1640.0,0.009128595198514056
1639.0,0.00908424549391551
1638.0,0.009039900317800775
1637.0,0.008906891951112605
1636.0,0.008862564879688284
1635.0,0.008951223547323472
1634.0,0.008951223547323472
1633.0,0.008995559669244813
1632.0,0.008951223547323472
1631.0,0.008951223547323472
1630.0,0.008951223547323472
1629.0,0.008951223547323472
1628.0,0.008995559669244813
1627.0,0.008951223547323472
1626.0,0.008906891951112605
1625.0,0.008906891951112605
1624.0,0.008862564879688284
1623.0,0.008818242332126802
1622.0,0.008773924307505121
1621.0,0.008685301823389224
1620.0,0.008640997362049818
1619.0,0.008640997362049818
1618.0,0.008640997362049818
1617.0,0.008640997362049818
1616.0,0.008640997362049818
1615.0,0.008640997362049818
1614.0,0.008640997362049818
1613.0,0.008640997362049818
1612.0,0.008552401996197112
1611.0,0.008463824699968647
1610.0,0.008419542825660153
1609.0,0.008375265465994541
1608.0,0.008330992620051436
1607.0,0.008330992620051436
1606.0,0.008330992620051436
1605.0,0.008330992620051436
1604.0,0.008375265465994541
1603.0,0.008419542825660153
1602.0,0.008419542825660153
1601.0,0.008419542825660153
1600.0,0.008375265465994541
1599.0,0.008330992620051436
1598.0,0.008242460465651913
1597.0,0.008242460465651913
1596.0,0.008242460465651913
1595.0,0.008330992620051436
1594.0,0.008375265465994541
1593.0,0.008375265465994541
1592.0,0.008375265465994541
1591.0,0.008330992620051436
1590.0,0.008286724286910463
1589.0,0.008242460465651913
1588.0,0.008242460465651913
1587.0,0.008286724286910463
1586.0,0.008286724286910463
1585.0,0.008330992620051436
1584.0,0.008375265465994541
1583.0,0.008330992620051436
1582.0,0.008286724286910463
1581.0,0.008242460465651913
1580.0,0.008198201155356077
1579.0,0.008242460465651913
1578.0,0.008198201155356077
1577.0,0.008153946355103248
1576.0,0.008109696063975047
1575.0,0.008153946355103248
1574.0,0.008153946355103248
1573.0,0.008242460465651913
1572.0,0.008286724286910463
1571.0,0.008242460465651913
1570.0,0.008198201155356077
1569.0,0.008153946355103248
1568.0,0.008153946355103248
1567.0,0.008153946355103248
1566.0,0.008153946355103248
1565.0,0.008198201155356077
1564.0,0.008242460465651913
1563.0,0.008242460465651913
1562.0,0.008286724286910463
1561.0,0.008330992620051436
1560.0,0.008286724286910463
1559.0,0.008375265465994541
1558.0,0.008375265465994541
1557.0,0.008286724286910463
1556.0,0.008286724286910463
1555.0,0.008242460465651913
1554.0,0.008198201155356077
1553.0,0.008198201155356077
1552.0,0.008242460465651913
1551.0,0.008198201155356077
1550.0,0.008153946355103248
1549.0,0.008109696063975047
1548.0,0.008109696063975047
1547.0,0.008021209005416363
1546.0,0.007932739972333236
1545.0,0.007844288957383316
1544.0,0.007844288957383316
1543.0,0.007800070204414977
1542.0,0.007800070204414977
1541.0,0.007976972236149349
1540.0,0.008198201155356077
1539.0,0.008109696063975047
1538.0,0.007932739972333236
1537.0,0.007888512213050314
1536.0,0.007976972236149349
1535.0,0.007976972236149349
1534.0,0.007932739972333236
1533.0,0.007976972236149349
1532.0,0.007976972236149349
1531.0,0.007976972236149349
1530.0,0.007976972236149349
1529.0,0.007976972236149349
1528.0,0.008021209005416363
1527.0,0.007976972236149349
1526.0,0.007844288957383316
1525.0,0.007755855953228474
1524.0,0.007667440952535687
1523.0,0.007534852191956709
1522.0,0.007402303897961815
1521.0,0.007534852191956709
1520.0,0.007711646202907652
1519.0,0.007711646202907652
1518.0,0.007667440952535687
1517.0,0.0075790439479759275
1516.0,0.007490664932224611
1515.0,0.0074464821678643656
1514.0,0.007402303897961815
1513.0,0.007402303897961815
1512.0,0.007313960837872058
1511.0,0.007181479933320523
1510.0,0.007049039429553483
1509.0,0.007137328610972382
1508.0,0.007358130121602358
1507.0,0.0075790439479759275
1506.0,0.0075790439479759275
1505.0,0.0074464821678643656
1504.0,0.007402303897961815
1503.0,0.007358130121602358
1502.0,0.007313960837872058
1501.0,0.007358130121602358
1500.0,0.0074464821678643656
1499.0,0.007402303897961815
1498.0,0.007313960837872058
1497.0,0.007358130121602358
1496.0,0.007402303897961815
1495.0,0.007269796045857202
1494.0,0.007137328610972382
1493.0,0.007181479933320523
1492.0,0.007313960837872058
1491.0,0.007402303897961815
1490.0,0.0074464821678643656
1489.0,0.00762324020119709
1488.0,0.007755855953228474
1487.0,0.007667440952535687
1486.0,0.007667440952535687
1485.0,0.007800070204414977
1484.0,0.007976972236149349
1483.0,0.008198201155356077
1482.0,0.008596697419959609
1481.0,0.009439170005980158
1480.0,0.010505687227290839
1479.0,0.012021084124518078
1478.0,0.014843078722943437
1477.0,0.02036058777709271
1476.0,0.02890978686288448
1475.0,0.03981472339538916
1474.0,0.05227227303668425
1473.0,0.06338573802478864
1472.0,0.068389593637038
1471.0,0.06813548650796819
1470.0,0.06701917807680191
1469.0,0.06681652082538614
1468.0,0.06752623532284674
1467.0,0.06925467168888666
1466.0,0.07329750581735506
1465.0,0.07966792846041071
1464.0,0.08470571697731355
1463.0,0.08518101955252688
1462.0,0.08139308485501817
1461.0,0.07499749231902242
1460.0,0.06747550294945781
1459.0,0.06003170944866376
1458.0,0.05394093961487645
1457.0,0.04973253198641148
1456.0,0.04677202844014605
1455.0,0.044167989767578186
1454.0,0.04167506835594681
1453.0,0.039006291057664066
1452.0,0.03635381351515665
1451.0,0.03409308450480819
1450.0,0.03235843591698884
1449.0,0.031003673351687855
1448.0,0.029932203450862893
1447.0,0.029095501846216454
1446.0,0.02839947976994095
1445.0,0.0277045713888604
1444.0,0.027056991894431892
1443.0,0.026456531467510258
1442.0,0.025902996205869
1441.0,0.02521206778644225
1440.0,0.024476287039668643
1439.0,0.023695883447997224
1438.0,0.02296266477531872
1437.0,0.022230681908425698
1436.0,0.02159120737696063
1435.0,0.0209982515252789
1434.0,0.02036058777709271
1433.0,0.01954210772389997
1432.0,0.01858915983411169
1431.0,0.017638298366853045
1430.0,0.016644385668211692
1429.0,0.015697768020096703
1428.0,0.014798141635428141
1427.0,0.01403492169512921
1426.0,0.013407393177789162
1425.0,0.012691326268817527
1424.0,0.012065734767841452
1423.0,0.011530229790124524
1422.0,0.011039929609661936
1421.0,0.01046119667949763
1420.0,0.009883233932095559
1419.0,0.00939478857608056
1418.0,0.009039900317800775
1417.0,0.008640997362049818
1416.0,0.008242460465651913
1415.0,0.007888512213050314
1414.0,0.007490664932224611
1413.0,0.007004901568658406
1412.0,0.00656376950238835
1411.0,0.00612308505878878
1410.0,0.005814871797682919
1409.0,0.005506877116487674
1408.0,0.0052870145684298375
1407.0,0.005111204635089406
1406.0,0.004979393875242044
1405.0,0.004979393875242044
1404.0,0.005023326350308999
1403.0,0.005243055412371911
1402.0,0.005462895701502157
1401.0,0.005638848091999105
1400.0,0.005814871797682919
1399.0,0.006079041198713275
1398.0,0.00612308505878878
1397.0,0.005682847330363394
1396.0,0.00484762310854614
1395.0,0.0040578370074493275
1394.0,0.0038387066319929275
1393.0,0.004277078004534696
1392.0,0.005023326350308999
1391.0,0.00577085918230158
1390.0,0.00621118618129457
1389.0,0.006387442061109638
1388.0,0.006343371384537999
1387.0,0.006387442061109638
1386.0,0.006519680930003435
1385.0,0.006740168563263094
1384.0,0.007093181776687496
1383.0,0.007755855953228474
1382.0,0.008685301823389224
1381.0,0.009838807101520963
1380.0,0.011084479487313281
1379.0,0.012199714248127602
1378.0,0.012914970375878188
1377.0,0.013138729709955221
1376.0,0.013093968619278806
1375.0,0.012959713020733288
1374.0,0.012914970375878188
1373.0,0.012914970375878188
1372.0,0.013049212141483357
1371.0,0.013317820220494436
1370.0,0.013631406429727155
1369.0,0.013945219230304673
1368.0,0.014124642691606404
1367.0,0.014079779876432497
1366.0,0.013945219230304673
1365.0,0.013676222949234651
1364.0,0.013452186585275916
1363.0,0.013273040668781544
1362.0,0.01318349541446362
1361.0,0.013004460275618523
1360.0,0.012825498912458322
1359.0,0.012736045877764557
1358.0,0.012780770091995297
1357.0,0.012870232340102872
1356.0,0.013049212141483357
1355.0,0.01322826573375524
1354.0,0.013362604389846044
1353.0,0.013407393177789162
1352.0,0.013452186585275916
1351.0,0.013452186585275916
1350.0,0.013407393177789162
1349.0,0.013317820220494436
1348.0,0.013138729709955221
1347.0,0.013004460275618523
1346.0,0.012870232340102872
1345.0,0.012691326268817527
1344.0,0.012512493866907004
1343.0,0.012333735073725371
1342.0,0.01215504982870197
1341.0,0.012021084124518078
1340.0,0.011931796607364653
1339.0,0.011842527443247208
1338.0,0.011753276624621556
1337.0,0.011574829993696856
1336.0,0.011396456654336085
1335.0,0.011262724711199823
1334.0,0.011129033935354915
1333.0,0.010995384301463185
1332.0,0.010906307389674463
1331.0,0.01086177578421088
1330.0,0.010817248744452446
1329.0,0.01077272626946324
1328.0,0.010728208358306901
1327.0,0.010683695010048622
1326.0,0.010683695010048622
1325.0,0.010683695010048622
1324.0,0.010728208358306901
1323.0,0.010817248744452446
1322.0,0.010950843561779777
1321.0,0.011039929609661936
1320.0,0.011129033935354915
1319.0,0.011218156546359825
1318.0,0.011351874764248926
1317.0,0.011485634166333858
1316.0,0.011574829993696856
1315.0,0.011664044143949504
1314.0,0.011797899741219142
1313.0,0.0119764380713403
1312.0,0.012110390002254778
1311.0,0.012199714248127602
1310.0,0.012244383261476699
1309.0,0.012244383261476699
1308.0,0.012244383261476699
1307.0,0.012289056869694281
1306.0,0.012333735073725371
1305.0,0.012378417874516323
1304.0,0.012333735073725371
1303.0,0.012333735073725371
1302.0,0.012378417874516323
1301.0,0.012378417874516323
1300.0,0.012333735073725371
1299.0,0.012244383261476699
1298.0,0.01215504982870197
1297.0,0.012065734767841452
1296.0,0.011931796607364653
1295.0,0.011797899741219142
1294.0,0.011619434777991433
1293.0,0.011441043121384498
1292.0,0.011218156546359825
1291.0,0.011084479487313281
1290.0,0.010906307389674463
1289.0,0.01077272626946324
1288.0,0.010683695010048622
1287.0,0.010683695010048622
1286.0,0.010683695010048622
1285.0,0.010639186223752484
1284.0,0.010594681998483901
1283.0,0.010550182333308289
1282.0,0.010505687227290839
1281.0,0.010416710688994968
1280.0,0.010327752376126709
1279.0,0.01023881228122181
1278.0,0.010149890396819572
1277.0,0.010060986715464404
1276.0,0.009927665307847056
1275.0,0.009838807101520963
1274.0,0.009705553871561357
1273.0,0.009572341514736404
1272.0,0.009439170005980158
1271.0,0.009306039320248427
1270.0,0.009217308196862062
1269.0,0.00908424549391551
1268.0,0.008951223547323472
1267.0,0.008818242332126802
1266.0,0.008640997362049818
1265.0,0.008463824699968647
1264.0,0.008330992620051436
1263.0,0.008198201155356077
1262.0,0.008065450281052211
1261.0,0.007888512213050314
1260.0,0.007667440952535687
1259.0,0.0074464821678643656
1258.0,0.007225635744644521
1257.0,0.00696076819309055
1256.0,0.006740168563263094
1255.0,0.006519680930003435
1254.0,0.006387442061109638
1253.0,0.00621118618129457
1252.0,0.005946936412324799
1251.0,0.005726851026829571
1250.0,0.005638848091999105
1249.0,0.005682847330363394
1248.0,0.005858888873877532
1247.0,0.006035001804881146
1246.0,0.00621118618129457
1245.0,0.006167133386013823
1244.0,0.005946936412324799
1243.0,0.005682847330363394
1242.0,0.005550862985963967
1241.0,0.005682847330363394
1240.0,0.006079041198713275
1239.0,0.006431517210272464
1238.0,0.006607862550997545
1237.0,0.006519680930003435
1236.0,0.006299305179649828
1235.0,0.006079041198713275
1234.0,0.005814871797682919
1233.0,0.005594853310833647
1232.0,0.005462895701502157
1231.0,0.00541891874010525
1230.0,0.00541891874010525
1229.0,0.00541891874010525
1228.0,0.00541891874010525
1227.0,0.005462895701502157
1226.0,0.005594853310833647
1225.0,0.005682847330363394
1224.0,0.00577085918230158
1223.0,0.005858888873877532
1222.0,0.005990966876386672
1221.0,0.00612308505878878
1220.0,0.006299305179649828
1219.0,0.006475596832934416
1218.0,0.006607862550997545
1217.0,0.006740168563263094
1216.0,0.006872514894289861
1215.0,0.007049039429553483
1214.0,0.007225635744644521
1213.0,0.007358130121602358
1212.0,0.0074464821678643656
1211.0,0.0075790439479759275
1210.0,0.007667440952535687
1209.0,0.007711646202907652
1208.0,0.007800070204414977
1207.0,0.007888512213050314
1206.0,0.007976972236149349
1205.0,0.008021209005416363
1204.0,0.008109696063975047
1203.0,0.008153946355103248
1202.0,0.008242460465651913
1201.0,0.008330992620051436
1200.0,0.008375265465994541
1199.0,0.008419542825660153
1198.0,0.008463824699968647
1197.0,0.00850811108984062
1196.0,0.008552401996197112
1195.0,0.008596697419959609
1194.0,0.008552401996197112
1193.0,0.008463824699968647
1192.0,0.008419542825660153
1191.0,0.008419542825660153
1190.0,0.00850811108984062
1189.0,0.008552401996197112
1188.0,0.008640997362049818
1187.0,0.0087296108049002
1186.0,0.008818242332126802
1185.0,0.008906891951112605
1184.0,0.008995559669244813
1183.0,0.00908424549391551
1182.0,0.009128595198514056
1181.0,0.009217308196862062
1180.0,0.009350411681145587
1179.0,0.009439170005980158
1178.0,0.009439170005980158
1177.0,0.00939478857608056
1176.0,0.009306039320248427
1175.0,0.009306039320248427
1174.0,0.009350411681145587
1173.0,0.00939478857608056
1172.0,0.009483555971770974
1171.0,0.009616741093766423
1170.0,0.00966114521239847
1169.0,0.00966114521239847
1168.0,0.009616741093766423
1167.0,0.009572341514736404
1166.0,0.009483555971770974
1165.0,0.00939478857608056
1164.0,0.009350411681145587
1163.0,0.00939478857608056
1162.0,0.009527946474380489
1161.0,0.009572341514736404
1160.0,0.009572341514736404
1159.0,0.009527946474380489
1158.0,0.009483555971770974
1157.0,0.009527946474380489
1156.0,0.009572341514736404
1155.0,0.009572341514736404
1154.0,0.009572341514736404
1153.0,0.009527946474380489
1152.0,0.009439170005980158
1151.0,0.009439170005980158
1150.0,0.009527946474380489
1149.0,0.009527946474380489
1148.0,0.009439170005980158
1147.0,0.009306039320248427
1146.0,0.009172949432521227
1145.0,0.009128595198514056
1144.0,0.009128595198514056
1143.0,0.009128595198514056
1142.0,0.009172949432521227
1141.0,0.009128595198514056
1140.0,0.009039900317800775
1139.0,0.008951223547323472
1138.0,0.008862564879688284
1137.0,0.008773924307505121
1136.0,0.008685301823389224
1135.0,0.008596697419959609
1134.0,0.008596697419959609
1133.0,0.00850811108984062
1132.0,0.008419542825660153
1131.0,0.008330992620051436
1130.0,0.008242460465651913
1129.0,0.008198201155356077
1128.0,0.008153946355103248
1127.0,0.008109696063975047
1126.0,0.008109696063975047
1125.0,0.008109696063975047
1124.0,0.008109696063975047
1123.0,0.008109696063975047
1122.0,0.008065450281052211
1121.0,0.007976972236149349
1120.0,0.007888512213050314
1119.0,0.007844288957383316
1118.0,0.007711646202907652
1117.0,0.007534852191956709
1116.0,0.007313960837872058
1115.0,0.007093181776687496
1114.0,0.006916639301937977
1113.0,0.006696062080525422
1112.0,0.006475596832934416
1111.0,0.00625524344553785
1110.0,0.006079041198713275
1109.0,0.005858888873877532
1108.0,0.005638848091999105
1107.0,0.00541891874010525
1106.0,0.005155150446602086
1105.0,0.004935465843858511
1104.0,0.004715892310740433
1103.0,0.00458420145758498
1102.0,0.0044964297349936455
1101.0,0.0043648054024501
1100.0,0.004277078004534696
1099.0,0.004233220950025984
1098.0,0.004233220950025984
1097.0,0.004277078004534696
1096.0,0.004233220950025984
1095.0,0.0040578370074493275
1094.0,0.003707281458678491
1093.0,0.0031819781204844855
1092.0,0.002482560585275184
1091.0,0.0016970599014589638
1090.0,0.0009565003968372565
1089.0,0.0003475746339209884
1088.0,-0.00017368305846510168
1087.0,-0.0007376737740329986
1086.0,-0.001474096691732818
1085.0,-0.0022524799205383417
1084.0,-0.0030725959676747294
1083.0,-0.0038481220342978517
1082.0,-0.004493337547274212
1081.0,-0.005051749993995713
1080.0,-0.005480809979401258
1079.0,-0.00582375302902749
1078.0,-0.006166425485431226
1077.0,-0.00659438618413688
1076.0,-0.007021925578680754
1075.0,-0.007278247334244092
1074.0,-0.007235537545951853
1073.0,-0.00697919057427665
1072.0,-0.00659438618413688
1071.0,-0.006252051369364686
1070.0,-0.006380458549692936
1069.0,-0.00710738297405733
1068.0,-0.00825941499127536
1067.0,-0.00923837096846647
1066.0,-0.009408399151866753
1065.0,-0.008685319195167907
1064.0,-0.007619774517403144
1063.0,-0.0067226922016847546
1062.0,-0.0062948579813855154
1061.0,-0.006380458549692936
1060.0,-0.0068937079479005625
1059.0,-0.007619774517403144
1058.0,-0.008174184006426444
1057.0,-0.008344629252689195
1056.0,-0.008174184006426444
1055.0,-0.007875743767585153
1054.0,-0.007747778000740002
1053.0,-0.0077051143647803855
1052.0,-0.007747778000740002
1051.0,-0.0077051143647803855
1050.0,-0.007619774517403144
1049.0,-0.007491733295335923
1048.0,-0.007363654312278367
1047.0,-0.007150105366684922
1046.0,-0.006850960324272126
1045.0,-0.0064660422492317515
1044.0,-0.005995123054691298
1043.0,-0.005480809979401258
1042.0,-0.005008820672367076
1041.0,-0.004622265700782613
1040.0,-0.004364371107751008
1039.0,-0.004149341900058889
1038.0,-0.003891166236910326
1037.0,-0.0033743540197499478
1036.0,-0.0025116312849080558
1035.0,-0.0015606526425728795
1034.0,-0.0007376737740329986
1033.0,-8.685021164911433e-05
1032.0,0.0003475746339209884
1031.0,0.0004779868710962365
1030.0,0.00017375254558760211
1029.0,-0.00030389978481260016
1028.0,-0.0006075870628903246
1027.0,-0.0002604985473904087
1026.0,0.0005649501236701937
1025.0,0.0014791171649619628
1024.0,0.0021769192542746563
1023.0,0.0025262411970197185
1022.0,0.0026573093983774942
1021.0,0.0027447101798967477
1020.0,0.0027447101798967477
1019.0,0.0027884171674950053
1018.0,0.0028321285541661467
1017.0,0.0029632891174733444
1016.0,0.0030944893043338695
1015.0,0.0032694845648473247
1014.0,0.0034445503666347133
1013.0,0.0035758960449088217
1012.0,0.0036634819042162814
1011.0,0.0038387066319929275
1010.0,0.0040578370074493275
1009.0,0.004277078004534696
1008.0,0.0044964297349936455
1007.0,0.004671990922590297
1006.0,0.00484762310854614
1005.0,0.004979393875242044
1004.0,0.005155150446602086
1003.0,0.00541891874010525
1002.0,0.005726851026829571
1001.0,0.005946936412324799
1000.0,0.00612308505878878
999.0,0.00621118618129457
998.0,0.00625524344553785
997.0,0.00625524344553785
996.0,0.006299305179649828
995.0,0.006387442061109638
994.0,0.00656376950238835
993.0,0.006696062080525422
992.0,0.006784279525863024
991.0,0.006784279525863024
990.0,0.006740168563263094
989.0,0.006740168563263094
988.0,0.006828394969235152
987.0,0.00696076819309055
986.0,0.007049039429553483
985.0,0.007093181776687496
984.0,0.007049039429553483
983.0,0.00696076819309055
982.0,0.006916639301937977
981.0,0.006828394969235152
980.0,0.006740168563263094
979.0,0.006651960076740071
978.0,0.006651960076740071
977.0,0.006651960076740071
976.0,0.006696062080525422
975.0,0.006696062080525422
974.0,0.006651960076740071
973.0,0.006651960076740071
972.0,0.006607862550997545
971.0,0.006519680930003435
970.0,0.006431517210272464
969.0,0.006299305179649828
968.0,0.00621118618129457
967.0,0.006167133386013823
966.0,0.00621118618129457
965.0,0.00621118618129457
964.0,0.006167133386013823
963.0,0.00612308505878878
962.0,0.006079041198713275
961.0,0.00612308505878878
960.0,0.00621118618129457
959.0,0.006299305179649828
958.0,0.006343371384537999
957.0,0.00625524344553785
956.0,0.00612308505878878
955.0,0.00612308505878878
954.0,0.00621118618129457
953.0,0.006431517210272464
952.0,0.006607862550997545
951.0,0.006740168563263094
950.0,0.006784279525863024
949.0,0.006828394969235152
948.0,0.006828394969235152
947.0,0.006872514894289861
946.0,0.006916639301937977
945.0,0.007004901568658406
944.0,0.007093181776687496
943.0,0.007137328610972382
942.0,0.007181479933320523
941.0,0.007225635744644521
940.0,0.007313960837872058
939.0,0.007490664932224611
938.0,0.00762324020119709
937.0,0.007800070204414977
936.0,0.007976972236149349
935.0,0.008065450281052211
934.0,0.008021209005416363
933.0,0.007844288957383316
932.0,0.007711646202907652
931.0,0.007667440952535687
930.0,0.007711646202907652
929.0,0.007755855953228474
928.0,0.007711646202907652
927.0,0.0075790439479759275
926.0,0.0074464821678643656
925.0,0.007358130121602358
924.0,0.007313960837872058
923.0,0.007313960837872058
922.0,0.007225635744644521
921.0,0.007137328610972382
920.0,0.007004901568658406
919.0,0.00696076819309055
918.0,0.00696076819309055
917.0,0.007049039429553483
916.0,0.007137328610972382
915.0,0.007181479933320523
914.0,0.007093181776687496
913.0,0.006916639301937977
912.0,0.006740168563263094
911.0,0.00656376950238835
910.0,0.006431517210272464
909.0,0.006299305179649828
908.0,0.006167133386013823
907.0,0.005990966876386672
906.0,0.005726851026829571
905.0,0.00541891874010525
904.0,0.005067263269958211
903.0,0.004759798137184523
902.0,0.004628093971837721
901.0,0.004540313378935901
900.0,0.004540313378935901
899.0,0.004628093971837721
898.0,0.004715892310740433
897.0,0.004759798137184523
896.0,0.004759798137184523
895.0,0.004759798137184523
894.0,0.004759798137184523
893.0,0.004803708402820517
892.0,0.00489154225525934
891.0,0.005023326350308999
890.0,0.005199100705396198
889.0,0.00541891874010525
888.0,0.005638848091999105
887.0,0.00590291041179003
886.0,0.006079041198713275
885.0,0.00612308505878878
884.0,0.00612308505878878
883.0,0.006035001804881146
882.0,0.00590291041179003
881.0,0.005638848091999105
880.0,0.00541891874010525
879.0,0.00541891874010525
878.0,0.005638848091999105
877.0,0.005946936412324799
876.0,0.006079041198713275
875.0,0.006079041198713275
874.0,0.006079041198713275
873.0,0.006167133386013823
872.0,0.006343371384537999
871.0,0.006431517210272464
870.0,0.006475596832934416
869.0,0.006431517210272464
868.0,0.006387442061109638
867.0,0.006387442061109638
866.0,0.006299305179649828
865.0,0.00621118618129457
864.0,0.00612308505878878
863.0,0.006167133386013823
862.0,0.006343371384537999
861.0,0.006651960076740071
860.0,0.007004901568658406
859.0,0.007269796045857202
858.0,0.007402303897961815
857.0,0.007358130121602358
856.0,0.007269796045857202
855.0,0.007269796045857202
854.0,0.007402303897961815
853.0,0.007534852191956709
852.0,0.00762324020119709
851.0,0.007534852191956709
850.0,0.0074464821678643656
849.0,0.007358130121602358
848.0,0.007358130121602358
847.0,0.007313960837872058
846.0,0.007225635744644521
845.0,0.007137328610972382
844.0,0.007093181776687496
843.0,0.007137328610972382
842.0,0.007313960837872058
841.0,0.0074464821678643656
840.0,0.007490664932224611
839.0,0.007402303897961815
838.0,0.007225635744644521
837.0,0.007137328610972382
836.0,0.007181479933320523
835.0,0.007313960837872058
834.0,0.007490664932224611
833.0,0.007490664932224611
832.0,0.007402303897961815
831.0,0.007313960837872058
830.0,0.007313960837872058
829.0,0.007402303897961815
828.0,0.007534852191956709
827.0,0.00762324020119709
826.0,0.007711646202907652
825.0,0.007800070204414977
824.0,0.007888512213050314
823.0,0.007976972236149349
822.0,0.008109696063975047
821.0,0.008198201155356077
820.0,0.008153946355103248
819.0,0.008065450281052211
818.0,0.007976972236149349
817.0,0.008065450281052211
816.0,0.008198201155356077
815.0,0.008286724286910463
814.0,0.008286724286910463
813.0,0.008375265465994541
812.0,0.00850811108984062
811.0,0.008773924307505121
810.0,0.008906891951112605
809.0,0.008951223547323472
808.0,0.008862564879688284
807.0,0.0087296108049002
806.0,0.008596697419959609
805.0,0.008552401996197112
804.0,0.00850811108984062
803.0,0.008375265465994541
802.0,0.008286724286910463
801.0,0.008330992620051436
800.0,0.008419542825660153
799.0,0.00850811108984062
798.0,0.008463824699968647
797.0,0.008419542825660153
796.0,0.008419542825660153
795.0,0.008463824699968647
794.0,0.008463824699968647
793.0,0.008463824699968647
792.0,0.008419542825660153
791.0,0.008330992620051436
790.0,0.008198201155356077
789.0,0.008021209005416363
788.0,0.007932739972333236
787.0,0.007976972236149349
786.0,0.008065450281052211
785.0,0.008065450281052211
784.0,0.007932739972333236
783.0,0.0075790439479759275
782.0,0.007313960837872058
781.0,0.007313960837872058
780.0,0.0075790439479759275
779.0,0.007888512213050314
778.0,0.008021209005416363
777.0,0.008021209005416363
776.0,0.008021209005416363
775.0,0.008198201155356077
774.0,0.008463824699968647
773.0,0.0087296108049002
772.0,0.008951223547323472
771.0,0.00908424549391551
770.0,0.00908424549391551
769.0,0.008951223547323472
768.0,0.008862564879688284
767.0,0.008818242332126802
766.0,0.008685301823389224
765.0,0.00850811108984062
764.0,0.008242460465651913
763.0,0.008153946355103248
762.0,0.008198201155356077
761.0,0.008330992620051436
760.0,0.008375265465994541
759.0,0.008330992620051436
758.0,0.008242460465651913
757.0,0.008153946355103248
756.0,0.008153946355103248
755.0,0.008286724286910463
754.0,0.008463824699968647
753.0,0.0087296108049002
752.0,0.00908424549391551
751.0,0.00939478857608056
750.0,0.00966114521239847
749.0,0.00966114521239847
748.0,0.009616741093766423
747.0,0.009527946474380489
746.0,0.009572341514736404
745.0,0.009883233932095559
744.0,0.010283280051895272
743.0,0.010639186223752484
742.0,0.01086177578421088
741.0,0.011129033935354915
740.0,0.011485634166333858
739.0,0.012021084124518078
738.0,0.012780770091995297
737.0,0.013945219230304673
736.0,0.015742798294583915
735.0,0.018861217359339655
734.0,0.024292536462819925
733.0,0.03277974021703267
732.0,0.04320747962950522
731.0,0.05271335532220167
730.0,0.05799194697768684
729.0,0.05804158346918653
728.0,0.054876229877880656
727.0,0.05144033789103841
726.0,0.04958646063061889
725.0,0.04997609347667353
724.0,0.05286048235717078
723.0,0.058737090681050264
722.0,0.06793230779927839
721.0,0.07914650387874067
720.0,0.08878910686244668
719.0,0.09258863922541383
718.0,0.08894897967187343
717.0,0.07987667370927598
716.0,0.0684912781333824
715.0,0.05724807957018618
714.0,0.047643522676209304
713.0,0.04010041213405646
712.0,0.03456310022373987
711.0,0.030490901403433135
710.0,0.027288159452933503
709.0,0.02461415101053266
708.0,0.022322112326006227
707.0,0.02045162529590483
706.0,0.018861217359339655
705.0,0.017367005605150476
704.0,0.015832872853011715
703.0,0.014573525916998342
702.0,0.01372104409400876
701.0,0.013273040668781544
700.0,0.012914970375878188
699.0,0.01264661126420652
698.0,0.012378417874516323
697.0,0.012244383261476699
696.0,0.012199714248127602
695.0,0.012289056869694281
694.0,0.012378417874516323
693.0,0.012423105273012602
692.0,0.012289056869694281
691.0,0.011842527443247208
690.0,0.011129033935354915
689.0,0.010505687227290839
688.0,0.010105436281226954
687.0,0.010060986715464404
686.0,0.010149890396819572
685.0,0.010105436281226954
684.0,0.009705553871561357
683.0,0.008862564879688284
682.0,0.007711646202907652
681.0,0.007004901568658406
680.0,0.007313960837872058
679.0,0.008286724286910463
678.0,0.008951223547323472
677.0,0.008906891951112605
676.0,0.008463824699968647
675.0,0.008153946355103248
674.0,0.007755855953228474
673.0,0.007093181776687496
672.0,0.006607862550997545
671.0,0.007049039429553483
670.0,0.008685301823389224
669.0,0.01023881228122181
668.0,0.009705553871561357
667.0,0.0074464821678643656
666.0,0.005330978174470591
665.0,0.003794893821675638
664.0,0.0027884171674950053
663.0,0.0021332737608552588
662.0,0.0018278780605593958
661.0,0.0018714928717336043
660.0,0.0019587356365717845
659.0,0.001915112063444413
658.0,0.0014791171649619628
657.0,0.0007389288868995258
656.0,0.0003475746339209884
655.0,0.000869458712629001
654.0,0.002089632653256679
653.0,0.0033132443998284966
652.0,0.004233220950025984
651.0,0.005067263269958211
650.0,0.006079041198713275
649.0,0.006784279525863024
648.0,0.006784279525863024
647.0,0.005990966876386672
646.0,0.004759798137184523
645.0,0.0036634819042162814
644.0,0.0030944893043338695
643.0,0.003619686766589858
642.0,0.005330978174470591
641.0,0.007755855953228474
640.0,0.010149890396819572
639.0,0.011753276624621556
638.0,0.01215504982870197
637.0,0.011664044143949504
636.0,0.010817248744452446
635.0,0.010060986715464404
634.0,0.009172949432521227
633.0,0.008153946355103248
632.0,0.007490664932224611
631.0,0.007711646202907652
630.0,0.008419542825660153
629.0,0.008596697419959609
628.0,0.007844288957383316
627.0,0.006475596832934416
626.0,0.005462895701502157
625.0,0.00537494623139545
624.0,0.005990966876386672
623.0,0.006607862550997545
622.0,0.007004901568658406
621.0,0.007402303897961815
620.0,0.008065450281052211
619.0,0.008463824699968647
618.0,0.007932739972333236
617.0,0.006828394969235152
616.0,0.006607862550997545
615.0,0.007932739972333236
614.0,0.009705553871561357
613.0,0.01037222925484893
612.0,0.009572341514736404
611.0,0.008021209005416363
610.0,0.005946936412324799
609.0,0.0029632891174733444
608.0,-0.0002604985473904087
607.0,-0.0016471913460383014
606.0,0.00030411258916074324
605.0,0.0043648054024501
604.0,0.0075790439479759275
603.0,0.007932739972333236
602.0,0.005506877116487674
601.0,0.0020023635919956817
600.0,-0.0008677215312267172
