cm-1,A
4000.0,0.002613615602686581
3999.0,0.0026573093983774942
3998.0,0.002701007590486082
3997.0,0.002701007590486082
3996.0,0.0026573093983774942
3995.0,0.002613615602686581
3994.0,0.002569926202528716
3993.0,0.002482560585275184
3992.0,0.002482560585275184
3991.0,0.002482560585275184
3990.0,0.002482560585275184
3989.0,0.002482560585275184
3988.0,0.0025262411970197185
3987.0,0.0025262411970197185
3986.0,0.0025262411970197185
3985.0,0.002569926202528716
3984.0,0.002569926202528716
3983.0,0.002613615602686581
3982.0,0.002613615602686581
3981.0,0.002613615602686581
3980.0,0.002613615602686581
3979.0,0.002569926202528716
3978.0,0.0025262411970197185
3977.0,0.002482560585275184
3976.0,0.0024388843664115978
3975.0,0.0024388843664115978
3974.0,0.0024388843664115978
3973.0,0.0024388843664115978
3972.0,0.002482560585275184
3971.0,0.002482560585275184
3970.0,0.0025262411970197185
3969.0,0.002569926202528716
3968.0,0.002613615602686581
3967.0,0.002613615602686581
3966.0,0.002569926202528716
3965.0,0.002569926202528716
3964.0,0.0025262411970197185
3963.0,0.0025262411970197185
3962.0,0.002569926202528716
3961.0,0.0025262411970197185
3960.0,0.0025262411970197185
3959.0,0.0025262411970197185
3958.0,0.002482560585275184
3957.0,0.002482560585275184
3956.0,0.002482560585275184
3955.0,0.002482560585275184
3954.0,0.002482560585275184
3953.0,0.0025262411970197185
3952.0,0.0025262411970197185
3951.0,0.002569926202528716
3950.0,0.002569926202528716
3949.0,0.002569926202528716
3948.0,0.0025262411970197185
3947.0,0.0025262411970197185
3946.0,0.002569926202528716
3945.0,0.002569926202528716
3944.0,0.002569926202528716
3943.0,0.002569926202528716
3942.0,0.0025262411970197185
3941.0,0.0025262411970197185
3940.0,0.002569926202528716
3939.0,0.002569926202528716
3938.0,0.002613615602686581
3937.0,0.002613615602686581
3936.0,0.002613615602686581
3935.0,0.002613615602686581
3934.0,0.0026573093983774942
3933.0,0.002613615602686581
3932.0,0.002613615602686581
3931.0,0.0026573093983774942
3930.0,0.0026573093983774942
3929.0,0.002701007590486082
3928.0,0.0027447101798967477
3927.0,0.0027447101798967477
3926.0,0.002701007590486082
3925.0,0.002613615602686581
3924.0,0.0025262411970197185
3923.0,0.002482560585275184
3922.0,0.0025262411970197185
3921.0,0.002613615602686581
3920.0,0.0026573093983774942
3919.0,0.0026573093983774942
3918.0,0.002701007590486082
3917.0,0.002701007590486082
3916.0,0.002701007590486082
3915.0,0.0027447101798967477
3914.0,0.0028321285541661467
3913.0,0.0028758443407954637
3912.0,0.0028321285541661467
3911.0,0.0027884171674950053
3910.0,0.0027447101798967477
3909.0,0.002701007590486082
3908.0,0.0026573093983774942
3907.0,0.002613615602686581
3906.0,0.0025262411970197185
3905.0,0.0024388843664115978
3904.0,0.002351545103793873
3903.0,0.0023078820582733695
3902.0,0.002351545103793873
3901.0,0.0024388843664115978
3900.0,0.0025262411970197185
3899.0,0.002613615602686581
3898.0,0.0026573093983774942
3897.0,0.0027447101798967477
3896.0,0.0028321285541661467
3895.0,0.0029195645282691363
3894.0,0.0029195645282691363
3893.0,0.0029632891174733444
3892.0,0.0029195645282691363
3891.0,0.0027447101798967477
3890.0,0.002569926202528716
3889.0,0.002569926202528716
3888.0,0.0026573093983774942
3887.0,0.0026573093983774942
3886.0,0.002569926202528716
3885.0,0.0025262411970197185
3884.0,0.002569926202528716
3883.0,0.0027447101798967477
3882.0,0.0028758443407954637
3881.0,0.0028321285541661467
3880.0,0.0027447101798967477
3879.0,0.002701007590486082
3878.0,0.002701007590486082
3877.0,0.0027447101798967477
3876.0,0.0027447101798967477
3875.0,0.002613615602686581
3874.0,0.0025262411970197185
3873.0,0.002569926202528716
3872.0,0.0027447101798967477
3871.0,0.0028758443407954637
3870.0,0.0028321285541661467
3869.0,0.0026573093983774942
3868.0,0.002613615602686581
3867.0,0.002701007590486082
3866.0,0.0027447101798967477
3865.0,0.0027447101798967477
3864.0,0.0028321285541661467
3863.0,0.0029632891174733444
3862.0,0.0030944893043338695
3861.0,0.0031382315093266833
3860.0,0.003050751504618754
3859.0,0.0030070181092942683
3858.0,0.0029632891174733444
3857.0,0.0029632891174733444
3856.0,0.0029632891174733444
3855.0,0.0030944893043338695
3854.0,0.0031382315093266833
3853.0,0.0030070181092942683
3852.0,0.0029195645282691363
3851.0,0.003050751504618754
3850.0,0.0031819781204844855
3849.0,0.0031382315093266833
3848.0,0.003050751504618754
3847.0,0.0029195645282691363
3846.0,0.0028758443407954637
3845.0,0.0027884171674950053
3844.0,0.002701007590486082
3843.0,0.002569926202528716
3842.0,0.002482560585275184
3841.0,0.002482560585275184
3840.0,0.002613615602686581
3839.0,0.0027884171674950053
3838.0,0.0028758443407954637
3837.0,0.0028758443407954637
3836.0,0.0028758443407954637
3835.0,0.0029195645282691363
3834.0,0.0030070181092942683
3833.0,0.003050751504618754
3832.0,0.0030070181092942683
3831.0,0.0029195645282691363
3830.0,0.0028758443407954637
3829.0,0.0028758443407954637
3828.0,0.0028321285541661467
3827.0,0.002701007590486082
3826.0,0.002569926202528716
3825.0,0.0025262411970197185
3824.0,0.002569926202528716
3823.0,0.002701007590486082
3822.0,0.0027884171674950053
3821.0,0.0027447101798967477
3820.0,0.002701007590486082
3819.0,0.0028321285541661467
3818.0,0.0030070181092942683
3817.0,0.003050751504618754
3816.0,0.0029195645282691363
3815.0,0.0027884171674950053
3814.0,0.0028321285541661467
3813.0,0.0028758443407954637
3812.0,0.0028758443407954637
3811.0,0.0028321285541661467
3810.0,0.0028321285541661467
3809.0,0.0029195645282691363
3808.0,0.0030070181092942683
3807.0,0.0029632891174733444
3806.0,0.0028758443407954637
3805.0,0.0028321285541661467
3804.0,0.0029195645282691363
3803.0,0.0029632891174733444
3802.0,0.0029195645282691363
3801.0,0.0028321285541661467
3800.0,0.0027884171674950053
3799.0,0.0029195645282691363
3798.0,0.0029632891174733444
3797.0,0.0029632891174733444
3796.0,0.0028758443407954637
3795.0,0.0028758443407954637
3794.0,0.0029632891174733444
3793.0,0.0030070181092942683
3792.0,0.0029632891174733444
3791.0,0.0029195645282691363
3790.0,0.0029195645282691363
3789.0,0.0029195645282691363
3788.0,0.0029632891174733444
3787.0,0.0029632891174733444
3786.0,0.0029632891174733444
3785.0,0.0028758443407954637
3784.0,0.0028321285541661467
3783.0,0.0028321285541661467
3782.0,0.0028758443407954637
3781.0,0.0029632891174733444
3780.0,0.0029632891174733444
3779.0,0.0028758443407954637
3778.0,0.0028758443407954637
3777.0,0.0029195645282691363
3776.0,0.0029632891174733444
3775.0,0.0029632891174733444
3774.0,0.0029632891174733444
3773.0,0.0029195645282691363
3772.0,0.0028758443407954637
3771.0,0.0028321285541661467
3770.0,0.0028321285541661467
3769.0,0.0028321285541661467
3768.0,0.0029195645282691363
3767.0,0.0030070181092942683
3766.0,0.003050751504618754
3765.0,0.0029632891174733444
3764.0,0.0029195645282691363
3763.0,0.0028758443407954637
3762.0,0.0028758443407954637
3761.0,0.0028758443407954637
3760.0,0.0028758443407954637
3759.0,0.0029195645282691363
3758.0,0.0030070181092942683
3757.0,0.0030070181092942683
3756.0,0.0030070181092942683
3755.0,0.0030070181092942683
3754.0,0.0029632891174733444
3753.0,0.0029195645282691363
3752.0,0.0029195645282691363
3751.0,0.003050751504618754
3750.0,0.0030944893043338695
3749.0,0.003050751504618754
3748.0,0.0031382315093266833
3747.0,0.0033132443998284966
3746.0,0.0035321097382827737
3745.0,0.0035321097382827737
3744.0,0.0033132443998284966
3743.0,0.0030944893043338695
3742.0,0.0031382315093266833
3741.0,0.0032257291386954545
3740.0,0.0030944893043338695
3739.0,0.0030070181092942683
3738.0,0.0030070181092942683
3737.0,0.0030944893043338695
3736.0,0.0032257291386954545
3735.0,0.0032694845648473247
3734.0,0.0033132443998284966
3733.0,0.0032694845648473247
3732.0,0.0032257291386954545
3731.0,0.0031819781204844855
3730.0,0.0031382315093266833
3729.0,0.0031382315093266833
3728.0,0.0030944893043338695
3727.0,0.0030070181092942683
3726.0,0.0028758443407954637
3725.0,0.0027884171674950053
3724.0,0.0027884171674950053
3723.0,0.0027884171674950053
3722.0,0.0028758443407954637
3721.0,0.0029195645282691363
3720.0,0.0030070181092942683
3719.0,0.0030070181092942683
3718.0,0.0030070181092942683
3717.0,0.0029195645282691363
3716.0,0.0028758443407954637
3715.0,0.0028321285541661467
3714.0,0.0027884171674950053
3713.0,0.0027447101798967477
3712.0,0.0027447101798967477
3711.0,0.0028321285541661467
3710.0,0.0029195645282691363
3709.0,0.003050751504618754
3708.0,0.0031382315093266833
3707.0,0.0031819781204844855
3706.0,0.0031382315093266833
3705.0,0.0030944893043338695
3704.0,0.003050751504618754
3703.0,0.003050751504618754
3702.0,0.003050751504618754
3701.0,0.003050751504618754
3700.0,0.003050751504618754
3699.0,0.0030944893043338695
3698.0,0.0031382315093266833
3697.0,0.0031382315093266833
3696.0,0.0030944893043338695
3695.0,0.0030070181092942683
3694.0,0.0029632891174733444
3693.0,0.0028758443407954637
3692.0,0.0027884171674950053
3691.0,0.0028758443407954637
3690.0,0.003050751504618754
3689.0,0.0031382315093266833
3688.0,0.0031382315093266833
3687.0,0.0030944893043338695
3686.0,0.0031382315093266833
3685.0,0.0031819781204844855
3684.0,0.0031382315093266833
3683.0,0.0030944893043338695
3682.0,0.003050751504618754
3681.0,0.003050751504618754
3680.0,0.0029632891174733444
3679.0,0.0028758443407954637
3678.0,0.0028321285541661467
3677.0,0.0028321285541661467
3676.0,0.0028321285541661467
3675.0,0.0027447101798967477
3674.0,0.0027884171674950053
3673.0,0.0030070181092942683
3672.0,0.0032257291386954545
3671.0,0.0032694845648473247
3670.0,0.0031819781204844855
3669.0,0.003050751504618754
3668.0,0.003050751504618754
3667.0,0.0030944893043338695
3666.0,0.0031382315093266833
3665.0,0.003050751504618754
3664.0,0.0030070181092942683
3663.0,0.0029632891174733444
3662.0,0.0029195645282691363
3661.0,0.0028758443407954637
3660.0,0.0028321285541661467
3659.0,0.0027884171674950053
3658.0,0.0027884171674950053
3657.0,0.0027447101798967477
3656.0,0.002701007590486082
3655.0,0.0026573093983774942
3654.0,0.002701007590486082
3653.0,0.002701007590486082
3652.0,0.0026573093983774942
3651.0,0.002569926202528716
3650.0,0.002701007590486082
3649.0,0.0028321285541661467
3648.0,0.0029195645282691363
3647.0,0.0030070181092942683
3646.0,0.0031382315093266833
3645.0,0.0032694845648473247
3644.0,0.0033570086445275926
3643.0,0.0033570086445275926
3642.0,0.0032694845648473247
3641.0,0.0031819781204844855
3640.0,0.0031382315093266833
3639.0,0.0031819781204844855
3638.0,0.0032694845648473247
3637.0,0.0033132443998284966
3636.0,0.0033132443998284966
3635.0,0.0033132443998284966
3634.0,0.0032257291386954545
3633.0,0.0031819781204844855
3632.0,0.0031819781204844855
3631.0,0.0032257291386954545
3630.0,0.0032694845648473247
3629.0,0.0032694845648473247
3628.0,0.0032257291386954545
3627.0,0.0032694845648473247
3626.0,0.0034007772998332353
3625.0,0.0034445503666347133
3624.0,0.0033570086445275926
3623.0,0.0032257291386954545
3622.0,0.0031819781204844855
3621.0,0.0031382315093266833
3620.0,0.0031382315093266833
3619.0,0.0031382315093266833
3618.0,0.0030944893043338695
3617.0,0.0030944893043338695
3616.0,0.0030944893043338695
3615.0,0.0030070181092942683
3614.0,0.0029195645282691363
3613.0,0.0029195645282691363
3612.0,0.0029632891174733444
3611.0,0.0030944893043338695
3610.0,0.0031819781204844855
3609.0,0.0032257291386954545
3608.0,0.0032694845648473247
3607.0,0.0032694845648473247
3606.0,0.0033132443998284966
3605.0,0.0033132443998284966
3604.0,0.0033132443998284966
3603.0,0.0033132443998284966
3602.0,0.0033132443998284966
3601.0,0.0033570086445275926
3600.0,0.0033570086445275926
3599.0,0.0033570086445275926
3598.0,0.0033570086445275926
3597.0,0.0033570086445275926
3596.0,0.0034445503666347133
3595.0,0.0035321097382827737
3594.0,0.003619686766589858
3593.0,0.0036634819042162814
3592.0,0.003707281458678491
3591.0,0.0036634819042162814
3590.0,0.0035758960449088217
3589.0,0.0035321097382827737
3588.0,0.0035321097382827737
3587.0,0.003488327845821315
3586.0,0.003488327845821315
3585.0,0.0035321097382827737
3584.0,0.003619686766589858
3583.0,0.0037510854308679953
3582.0,0.003794893821675638
3581.0,0.003794893821675638
3580.0,0.0037510854308679953
3579.0,0.003707281458678491
3578.0,0.003619686766589858
3577.0,0.0035758960449088217
3576.0,0.0035758960449088217
3575.0,0.003619686766589858
3574.0,0.0036634819042162814
3573.0,0.003707281458678491
3572.0,0.0037510854308679953
3571.0,0.003707281458678491
3570.0,0.0036634819042162814
3569.0,0.0036634819042162814
3568.0,0.003707281458678491
3567.0,0.003794893821675638
3566.0,0.003794893821675638
3565.0,0.003794893821675638
3564.0,0.003794893821675638
3563.0,0.003794893821675638
3562.0,0.003794893821675638
3561.0,0.003794893821675638
3560.0,0.0037510854308679953
3559.0,0.003707281458678491
3558.0,0.0036634819042162814
3557.0,0.0036634819042162814
3556.0,0.003619686766589858
3555.0,0.003619686766589858
3554.0,0.003707281458678491
3553.0,0.003794893821675638
3552.0,0.003926345514724705
3551.0,0.00401400208620073
3550.0,0.0040578370074493275
3549.0,0.00401400208620073
3548.0,0.003926345514724705
3547.0,0.003794893821675638
3546.0,0.0037510854308679953
3545.0,0.003707281458678491
3544.0,0.003707281458678491
3543.0,0.003794893821675638
3542.0,0.0038387066319929275
3541.0,0.0038825238627120395
3540.0,0.0038387066319929275
3539.0,0.0038387066319929275
3538.0,0.003794893821675638
3537.0,0.003794893821675638
3536.0,0.0038387066319929275
3535.0,0.003926345514724705
3534.0,0.003970171588923321
3533.0,0.00401400208620073
3532.0,0.00401400208620073
3531.0,0.003970171588923321
3530.0,0.00401400208620073
3529.0,0.0040578370074493275
3528.0,0.004101676353562844
3527.0,0.004101676353562844
3526.0,0.004101676353562844
3525.0,0.0040578370074493275
3524.0,0.0040578370074493275
3523.0,0.0040578370074493275
3522.0,0.004101676353562844
3521.0,0.004101676353562844
3520.0,0.004145520125434121
3519.0,0.004189368323957332
3518.0,0.004189368323957332
3517.0,0.004189368323957332
3516.0,0.004145520125434121
3515.0,0.004145520125434121
3514.0,0.004145520125434121
3513.0,0.004145520125434121
3512.0,0.004189368323957332
3511.0,0.004233220950025984
3510.0,0.004233220950025984
3509.0,0.004233220950025984
3508.0,0.004189368323957332
3507.0,0.004189368323957332
3506.0,0.004189368323957332
3505.0,0.004189368323957332
3504.0,0.004189368323957332
3503.0,0.004233220950025984
3502.0,0.004233220950025984
3501.0,0.004320939488377862
3500.0,0.0043648054024501
3499.0,0.004452550524862486
3498.0,0.004452550524862486
3497.0,0.0044964297349936455
3496.0,0.004540313378935901
3495.0,0.004540313378935901
3494.0,0.004540313378935901
3493.0,0.004452550524862486
3492.0,0.004320939488377862
3491.0,0.004233220950025984
3490.0,0.004233220950025984
3489.0,0.004277078004534696
3488.0,0.004320939488377862
3487.0,0.0043648054024501
3486.0,0.0043648054024501
3485.0,0.0043648054024501
3484.0,0.0043648054024501
3483.0,0.004320939488377862
3482.0,0.004320939488377862
3481.0,0.004408675747646695
3480.0,0.0044964297349936455
3479.0,0.0044964297349936455
3478.0,0.0044964297349936455
3477.0,0.004408675747646695
3476.0,0.0043648054024501
3475.0,0.0043648054024501
3474.0,0.004408675747646695
3473.0,0.004452550524862486
3472.0,0.004540313378935901
3471.0,0.00458420145758498
3470.0,0.00458420145758498
3469.0,0.004540313378935901
3468.0,0.004540313378935901
3467.0,0.004540313378935901
3466.0,0.004540313378935901
3465.0,0.0044964297349936455
3464.0,0.0044964297349936455
3463.0,0.004540313378935901
3462.0,0.004540313378935901
3461.0,0.004628093971837721
3460.0,0.004671990922590297
3459.0,0.004715892310740433
3458.0,0.004715892310740433
3457.0,0.004715892310740433
3456.0,0.004671990922590297
3455.0,0.004628093971837721
3454.0,0.004628093971837721
3453.0,0.004628093971837721
3452.0,0.004671990922590297
3451.0,0.004671990922590297
3450.0,0.004628093971837721
3449.0,0.004628093971837721
3448.0,0.00458420145758498
3447.0,0.00458420145758498
3446.0,0.00458420145758498
3445.0,0.00458420145758498
3444.0,0.004540313378935901
3443.0,0.004540313378935901
3442.0,0.00458420145758498
3441.0,0.004628093971837721
3440.0,0.004628093971837721
3439.0,0.004628093971837721
3438.0,0.004628093971837721
3437.0,0.004628093971837721
3436.0,0.00458420145758498
3435.0,0.00458420145758498
3434.0,0.00458420145758498
3433.0,0.00458420145758498
3432.0,0.004628093971837721
3431.0,0.004628093971837721
3430.0,0.004628093971837721
3429.0,0.004671990922590297
3428.0,0.004715892310740433
3427.0,0.004759798137184523
3426.0,0.004803708402820517
3425.0,0.004803708402820517
3424.0,0.004759798137184523
3423.0,0.004715892310740433
3422.0,0.004671990922590297
3421.0,0.004628093971837721
3420.0,0.004671990922590297
3419.0,0.004759798137184523
3418.0,0.004803708402820517
3417.0,0.00484762310854614
3416.0,0.00489154225525934
3415.0,0.00484762310854614
3414.0,0.00484762310854614
3413.0,0.004803708402820517
3412.0,0.004803708402820517
3411.0,0.004803708402820517
3410.0,0.004803708402820517
3409.0,0.00484762310854614
3408.0,0.00484762310854614
3407.0,0.00484762310854614
3406.0,0.00484762310854614
3405.0,0.00484762310854614
3404.0,0.004803708402820517
3403.0,0.004803708402820517
3402.0,0.004803708402820517
3401.0,0.004803708402820517
3400.0,0.00484762310854614
3399.0,0.00484762310854614
3398.0,0.004803708402820517
3397.0,0.004759798137184523
3396.0,0.004715892310740433
3395.0,0.004715892310740433
3394.0,0.004715892310740433
3393.0,0.004671990922590297
3392.0,0.004671990922590297
3391.0,0.004715892310740433
3390.0,0.004759798137184523
3389.0,0.004803708402820517
3388.0,0.00484762310854614
3387.0,0.00484762310854614
3386.0,0.00484762310854614
3385.0,0.00484762310854614
3384.0,0.004803708402820517
3383.0,0.004759798137184523
3382.0,0.004671990922590297
3381.0,0.004628093971837721
3380.0,0.00458420145758498
3379.0,0.004628093971837721
3378.0,0.004671990922590297
3377.0,0.004671990922590297
3376.0,0.004628093971837721
3375.0,0.004628093971837721
3374.0,0.00458420145758498
3373.0,0.004628093971837721
3372.0,0.004671990922590297
3371.0,0.004715892310740433
3370.0,0.004759798137184523
3369.0,0.004759798137184523
3368.0,0.004759798137184523
3367.0,0.004759798137184523
3366.0,0.004715892310740433
3365.0,0.004671990922590297
3364.0,0.004628093971837721
3363.0,0.004628093971837721
3362.0,0.004628093971837721
3361.0,0.004628093971837721
3360.0,0.004628093971837721
3359.0,0.004628093971837721
3358.0,0.004671990922590297
3357.0,0.004715892310740433
3356.0,0.004715892310740433
3355.0,0.004759798137184523
3354.0,0.004759798137184523
3353.0,0.004759798137184523
3352.0,0.004715892310740433
3351.0,0.004715892310740433
3350.0,0.004671990922590297
3349.0,0.004715892310740433
3348.0,0.004715892310740433
3347.0,0.004715892310740433
3346.0,0.004671990922590297
3345.0,0.004628093971837721
3344.0,0.004628093971837721
3343.0,0.004628093971837721
3342.0,0.004628093971837721
3341.0,0.004628093971837721
3340.0,0.004628093971837721
3339.0,0.00458420145758498
3338.0,0.00458420145758498
3337.0,0.00458420145758498
3336.0,0.00458420145758498
3335.0,0.004628093971837721
3334.0,0.004715892310740433
3333.0,0.004803708402820517
3332.0,0.00484762310854614
3331.0,0.00484762310854614
3330.0,0.004803708402820517
3329.0,0.004715892310740433
3328.0,0.004628093971837721
3327.0,0.004540313378935901
3326.0,0.004408675747646695
3325.0,0.0043648054024501
3324.0,0.0043648054024501
3323.0,0.0043648054024501
3322.0,0.004408675747646695
3321.0,0.004408675747646695
3320.0,0.004452550524862486
3319.0,0.004452550524862486
3318.0,0.004452550524862486
3317.0,0.004452550524862486
3316.0,0.004452550524862486
3315.0,0.004452550524862486
3314.0,0.004452550524862486
3313.0,0.004452550524862486
3312.0,0.004452550524862486
3311.0,0.004408675747646695
3310.0,0.004408675747646695
3309.0,0.0043648054024501
3308.0,0.004408675747646695
3307.0,0.004408675747646695
3306.0,0.004408675747646695
3305.0,0.004408675747646695
3304.0,0.004408675747646695
3303.0,0.004408675747646695
3302.0,0.0043648054024501
3301.0,0.004320939488377862
3300.0,0.004320939488377862
3299.0,0.004320939488377862
3298.0,0.004277078004534696
3297.0,0.004189368323957332
3296.0,0.004145520125434121
3295.0,0.004189368323957332
3294.0,0.004233220950025984
3293.0,0.004277078004534696
3292.0,0.0043648054024501
3291.0,0.004452550524862486
3290.0,0.0044964297349936455
3289.0,0.0044964297349936455
3288.0,0.004452550524862486
3287.0,0.0043648054024501
3286.0,0.004320939488377862
3285.0,0.004277078004534696
3284.0,0.004320939488377862
3283.0,0.004320939488377862
3282.0,0.004320939488377862
3281.0,0.004277078004534696
3280.0,0.004233220950025984
3279.0,0.004189368323957332
3278.0,0.004189368323957332
3277.0,0.004233220950025984
3276.0,0.004277078004534696
3275.0,0.004320939488377862
3274.0,0.004320939488377862
3273.0,0.004320939488377862
3272.0,0.004233220950025984
3271.0,0.004189368323957332
3270.0,0.004101676353562844
3269.0,0.004101676353562844
3268.0,0.004101676353562844
3267.0,0.004101676353562844
3266.0,0.004145520125434121
3265.0,0.004189368323957332
3264.0,0.004189368323957332
3263.0,0.004145520125434121
3262.0,0.004101676353562844
3261.0,0.0040578370074493275
3260.0,0.0040578370074493275
3259.0,0.00401400208620073
3258.0,0.003970171588923321
3257.0,0.003926345514724705
3256.0,0.0038825238627120395
3255.0,0.003926345514724705
3254.0,0.003970171588923321
3253.0,0.0040578370074493275
3252.0,0.004145520125434121
3251.0,0.004189368323957332
3250.0,0.004189368323957332
3249.0,0.004145520125434121
3248.0,0.004101676353562844
3247.0,0.0040578370074493275
3246.0,0.004101676353562844
3245.0,0.004145520125434121
3244.0,0.004189368323957332
3243.0,0.004145520125434121
3242.0,0.004101676353562844
3241.0,0.00401400208620073
3240.0,0.003926345514724705
3239.0,0.003970171588923321
3238.0,0.00401400208620073
3237.0,0.0040578370074493275
3236.0,0.004101676353562844
3235.0,0.0040578370074493275
3234.0,0.0040578370074493275
3233.0,0.00401400208620073
3232.0,0.00401400208620073
3231.0,0.003970171588923321
3230.0,0.003926345514724705
3229.0,0.003926345514724705
3228.0,0.003926345514724705
3227.0,0.003926345514724705
3226.0,0.003970171588923321
3225.0,0.0040578370074493275
3224.0,0.0040578370074493275
3223.0,0.0040578370074493275
3222.0,0.0040578370074493275
3221.0,0.0040578370074493275
3220.0,0.004101676353562844
3219.0,0.004145520125434121
3218.0,0.004189368323957332
3217.0,0.004189368323957332
3216.0,0.004189368323957332
3215.0,0.004189368323957332
3214.0,0.004189368323957332
3213.0,0.004145520125434121
3212.0,0.004189368323957332
3211.0,0.004233220950025984
3210.0,0.004320939488377862
3209.0,0.0043648054024501
3208.0,0.0043648054024501
3207.0,0.0043648054024501
3206.0,0.0043648054024501
3205.0,0.0043648054024501
3204.0,0.004320939488377862
3203.0,0.004320939488377862
3202.0,0.004320939488377862
3201.0,0.004320939488377862
3200.0,0.004320939488377862
3199.0,0.0043648054024501
3198.0,0.0043648054024501
3197.0,0.004408675747646695
3196.0,0.0043648054024501
3195.0,0.004320939488377862
3194.0,0.004233220950025984
3193.0,0.004145520125434121
3192.0,0.004101676353562844
3191.0,0.00401400208620073
3190.0,0.00401400208620073
3189.0,0.003970171588923321
3188.0,0.003970171588923321
3187.0,0.003970171588923321
3186.0,0.003926345514724705
3185.0,0.003926345514724705
3184.0,0.0038825238627120395
3183.0,0.0038387066319929275
3182.0,0.0038387066319929275
3181.0,0.0038825238627120395
3180.0,0.0038825238627120395
3179.0,0.003926345514724705
3178.0,0.003926345514724705
3177.0,0.003970171588923321
3176.0,0.003970171588923321
3175.0,0.003926345514724705
3174.0,0.0038387066319929275
3173.0,0.003794893821675638
3172.0,0.0037510854308679953
3171.0,0.0037510854308679953
3170.0,0.0037510854308679953
3169.0,0.0037510854308679953
3168.0,0.0037510854308679953
3167.0,0.003707281458678491
3166.0,0.003707281458678491
3165.0,0.0036634819042162814
3164.0,0.003619686766589858
3163.0,0.0035758960449088217
3162.0,0.0035321097382827737
3161.0,0.0035321097382827737
3160.0,0.003488327845821315
3159.0,0.0034445503666347133
3158.0,0.0034445503666347133
3157.0,0.003488327845821315
3156.0,0.0035321097382827737
3155.0,0.0035758960449088217
3154.0,0.003619686766589858
3153.0,0.0035758960449088217
3152.0,0.0035758960449088217
3151.0,0.0035758960449088217
3150.0,0.0035758960449088217
3149.0,0.003619686766589858
3148.0,0.0036634819042162814
3147.0,0.003707281458678491
3146.0,0.003707281458678491
3145.0,0.0036634819042162814
3144.0,0.003619686766589858
3143.0,0.0035758960449088217
3142.0,0.0035321097382827737
3141.0,0.003488327845821315
3140.0,0.0034445503666347133
3139.0,0.0034445503666347133
3138.0,0.0034007772998332353
3137.0,0.0033570086445275926
3136.0,0.0033132443998284966
3135.0,0.0032694845648473247
3134.0,0.0032257291386954545
3133.0,0.0031819781204844855
3132.0,0.0031382315093266833
3131.0,0.0030944893043338695
3130.0,0.003050751504618754
3129.0,0.0030070181092942683
3128.0,0.0030070181092942683
3127.0,0.0030070181092942683
3126.0,0.0029632891174733444
3125.0,0.0029632891174733444
3124.0,0.0029195645282691363
3123.0,0.0028758443407954637
3122.0,0.0028321285541661467
3121.0,0.0027447101798967477
3120.0,0.002701007590486082
3119.0,0.002701007590486082
3118.0,0.002701007590486082
3117.0,0.002701007590486082
3116.0,0.0027447101798967477
3115.0,0.002701007590486082
3114.0,0.002701007590486082
3113.0,0.0026573093983774942
3112.0,0.002613615602686581
3111.0,0.002569926202528716
3110.0,0.002482560585275184
3109.0,0.0024388843664115978
3108.0,0.002351545103793873
3107.0,0.0023078820582733695
3106.0,0.0022642234021015284
3105.0,0.0022205691343961664
3104.0,0.0022205691343961664
3103.0,0.0022642234021015284
3102.0,0.0022205691343961664
3101.0,0.0022205691343961664
3100.0,0.0021769192542746563
3099.0,0.0021332737608552588
3098.0,0.0021332737608552588
3097.0,0.0021769192542746563
3096.0,0.0021769192542746563
3095.0,0.0021332737608552588
3094.0,0.0020459959305969555
3093.0,0.0019587356365717845
3092.0,0.001915112063444413
3091.0,0.001915112063444413
3090.0,0.0019587356365717845
3089.0,0.0020023635919956817
3088.0,0.0020023635919956817
3087.0,0.0019587356365717845
3086.0,0.001915112063444413
3085.0,0.0018714928717336043
3084.0,0.0018278780605593958
3083.0,0.0017406615763013722
3082.0,0.0017406615763013722
3081.0,0.0016970599014589638
3080.0,0.0016534626036355249
3079.0,0.0015662811355310335
3078.0,0.0015226969634936083
3077.0,0.0014355417390583547
3076.0,0.0013919706849057079
3075.0,0.001348404001626502
3074.0,0.0012612837441823288
3073.0,0.0012177301682640973
3072.0,0.0012177301682640973
3071.0,0.0012612837441823288
3070.0,0.0012612837441823288
3069.0,0.001304841688344327
3068.0,0.0012612837441823288
3067.0,0.0012177301682640973
3066.0,0.0011741809597138886
3065.0,0.0011741809597138886
3064.0,0.0011741809597138886
3063.0,0.0011306361176557367
3062.0,0.0010870956412141197
3061.0,0.0010000277816797354
3060.0,0.0009129773741116676
3059.0,0.000869458712629001
3058.0,0.000869458712629001
3057.0,0.0008259444115150671
3056.0,0.0008259444115150671
3055.0,0.0008259444115150671
3054.0,0.000869458712629001
3053.0,0.0008259444115150671
3052.0,0.0007824344698965646
3051.0,0.0006954276616513155
3050.0,0.0006519307932786322
3049.0,0.0006519307932786322
3048.0,0.0006519307932786322
3047.0,0.0006084382809090627
3046.0,0.0005649501236701937
3045.0,0.000521466320689834
3044.0,0.0004779868710962365
3043.0,0.00043451177401765406
3042.0,0.0003910410285830057
3041.0,0.0003475746339209884
3040.0,0.00030411258916074324
3039.0,0.00021720154586435392
3038.0,0.00017375254558760211
3037.0,0.00017375254558760211
3036.0,0.0001303078917322953
3035.0,8.686758342868472e-05
3034.0,4.343161980746579e-05
3033.0,-4.3427276862573194e-05
3032.0,-4.3427276862573194e-05
3031.0,-8.685021164911433e-05
3030.0,-0.00013026880522692963
3029.0,-0.00021709297223004853
3028.0,-0.00030389978481260016
3027.0,-0.0003472966853634851
3026.0,-0.0003906892499099257
3025.0,-0.00043407747931878404
3024.0,-0.0004774613744551459
3023.0,-0.0004774613744551459
3022.0,-0.00043407747931878404
3021.0,-0.00043407747931878404
3020.0,-0.00043407747931878404
3019.0,-0.00043407747931878404
3018.0,-0.0004774613744551459
3017.0,-0.0004774613744551459
3016.0,-0.0005208409361854294
3015.0,-0.0005642161653756084
3014.0,-0.0006075870628903246
3013.0,-0.0006075870628903246
3012.0,-0.0006075870628903246
3011.0,-0.0005208409361854294
3010.0,-0.0004774613744551459
3009.0,-0.0004774613744551459
3008.0,-0.0004774613744551459
3007.0,-0.00043407747931878404
3006.0,-0.00043407747931878404
3005.0,-0.00043407747931878404
3004.0,-0.00043407747931878404
3003.0,-0.0003906892499099257
3002.0,-0.00030389978481260016
3001.0,-0.00021709297223004853
3000.0,-0.00013026880522692963
2999.0,0.0
2998.0,0.0001303078917322953
2997.0,0.00026065489343207737
2996.0,0.00043451177401765406
2995.0,0.0006084382809090627
2994.0,0.0008259444115150671
2993.0,0.0010435595295137379
2992.0,0.001304841688344327
2991.0,0.0015662811355310335
2990.0,0.0019587356365717845
2989.0,0.0024388843664115978
2988.0,0.0030070181092942683
2987.0,0.003707281458678491
2986.0,0.004452550524862486
2985.0,0.0052870145684298375
2984.0,0.00621118618129457
2983.0,0.007225635744644521
2982.0,0.008419542825660153
2981.0,0.00974996707218323
2980.0,0.011307297450183107
2979.0,0.013138729709955221
2978.0,0.015157768594724175
2977.0,0.017502630802287644
2976.0,0.02013307743509718
2975.0,0.023191662661933732
2974.0,0.02664120011360227
2973.0,0.03058408764601861
2972.0,0.03503362516890207
2971.0,0.039909932095080425
2970.0,0.04537162249272897
2969.0,0.05129369109514803
2968.0,0.05769424710410598
2967.0,0.06439198148213077
2966.0,0.07124579782334672
2965.0,0.07805354577058976
2964.0,0.08449463824562353
2963.0,0.09033701484598189
2962.0,0.09506817260434741
2961.0,0.09870518283443275
2960.0,0.10132965703447017
2959.0,0.10352889952072264
2958.0,0.10573933555301185
2957.0,0.10857405715200596
2956.0,0.11249522576462212
2955.0,0.11758931562603192
2954.0,0.12372441132212098
2953.0,0.1302990263261221
2952.0,0.1363797797296844
2951.0,0.14086170270546927
2950.0,0.14266750356873148
2949.0,0.14122226269455074
2948.0,0.13643923547375736
2947.0,0.12889429901441463
2946.0,0.11952940719622163
2945.0,0.10941133229451272
2944.0,0.09957824654226233
2943.0,0.09076499663169257
2942.0,0.08344078069888616
2941.0,0.07779372256098371
2940.0,0.07386342893255127
2939.0,0.07160414774328627
2938.0,0.07093887591523451
2937.0,0.0716553647351379
2936.0,0.07370901311513656
2935.0,0.07696333132921396
2934.0,0.08134070657817682
2933.0,0.0867160982395816
2932.0,0.09301884677114591
2931.0,0.09996076451267522
2930.0,0.10746019534136453
2929.0,0.11520463605101905
2928.0,0.12291674334934943
2927.0,0.1304749371427727
2926.0,0.13780896894840278
2925.0,0.14484442282300614
2924.0,0.1517492853229574
2923.0,0.158765704493959
2922.0,0.16564288728159493
2921.0,0.17224313702138327
2920.0,0.17796275192741495
2919.0,0.18210424283820448
2918.0,0.1838913292600961
2917.0,0.182963773949971
2916.0,0.17940450345550985
2915.0,0.17386038206408516
2914.0,0.16723569505946845
2913.0,0.16045910703103106
2912.0,0.1540961611012175
2911.0,0.14843591773651155
2910.0,0.14357322752975565
2909.0,0.13924287691845794
2908.0,0.13537027545448765
2907.0,0.13159069668503998
2906.0,0.12778543660241448
2905.0,0.12378215940835768
2904.0,0.11958660012208333
2903.0,0.11531789579397489
2902.0,0.11103465569966264
2901.0,0.10690433390377163
2900.0,0.1028679566179056
2899.0,0.0989778267519208
2898.0,0.09539263618455207
2897.0,0.09210516458371698
2896.0,0.08916223500731646
2895.0,0.08666307406737683
2894.0,0.08460016478773014
2893.0,0.08296737783760655
2892.0,0.08175990977858505
2891.0,0.0809742354126397
2890.0,0.08055578953476306
2889.0,0.08045124103115198
2888.0,0.08066036321258663
2887.0,0.08107890990866418
2886.0,0.08165507103772507
2885.0,0.08244197917456386
2884.0,0.08349341288484435
2883.0,0.08475850269380558
2882.0,0.08634506491338012
2881.0,0.0880970039559672
2880.0,0.08985603893548699
2879.0,0.09135416109288674
2878.0,0.0922125568893839
2877.0,0.09242742120144909
2876.0,0.09210516458371698
2875.0,0.09156860103399356
2874.0,0.09119340059432579
2873.0,0.09124698081546634
2872.0,0.09189045960744768
2871.0,0.09307265269104414
2870.0,0.09458193129745807
2869.0,0.096150661903319
2868.0,0.0972358560759139
2867.0,0.09729018703012282
2866.0,0.09566320779750503
2865.0,0.09215885741705532
2864.0,0.08692825969074924
2863.0,0.08060807322614072
2862.0,0.07396640332115534
2861.0,0.0676277178520861
2860.0,0.06208109735221967
2859.0,0.05754547365752294
2858.0,0.05399011523423525
2857.0,0.05134256785867963
2856.0,0.04948910701400333
2855.0,0.04832256265669943
2854.0,0.04774046340917959
2853.0,0.047691990337874746
2852.0,0.04817696468408794
2851.0,0.04919717703534143
2850.0,0.050707598587974356
2849.0,0.05281143447390635
2848.0,0.05546797900801881
2847.0,0.058786812414678646
2846.0,0.06278310913729457
2845.0,0.06737405597821788
2844.0,0.07242434530888953
2843.0,0.0777417765670334
2842.0,0.08296737783760655
2841.0,0.0877779434675845
2840.0,0.0916222275676053
2839.0,0.09409623378338305
2838.0,0.09479797133768142
2837.0,0.0935033402006471
2836.0,0.09017663034908807
2835.0,0.08518101955252688
2834.0,0.079094395835976
2833.0,0.07252697900472405
2832.0,0.06615853710127872
2831.0,0.060430831344098435
2830.0,0.05546797900801881
2829.0,0.05134256785867963
2828.0,0.047934409814949674
2827.0,0.04508244626504121
2826.0,0.042775942156833
2825.0,0.04086316882962593
2824.0,0.03924390909822728
2823.0,0.03782014709123227
2822.0,0.036542739883292485
2821.0,0.03541041251009669
2820.0,0.03442204208947208
2819.0,0.03357665405630694
2818.0,0.032873418923587305
2817.0,0.03217132066984485
2816.0,0.03151705144606498
2815.0,0.030910397045078586
2814.0,0.030351159519274695
2813.0,0.029885677714903025
2812.0,0.02942069428514915
2811.0,0.029002634427514717
2810.0,0.028538594975413334
2809.0,0.028075050815808744
2808.0,0.02751945012352408
2807.0,0.02696455931306696
2806.0,0.026410376572743033
2805.0,0.025810808881832736
2804.0,0.025258095499050004
2803.0,0.02475205875931885
2802.0,0.024292536462819925
2801.0,0.023879381700184332
2800.0,0.02355831062115543
2799.0,0.023283295636617574
2798.0,0.02300845469384938
2797.0,0.02277955336461468
2796.0,0.02255077261765881
2795.0,0.022322112326006227
2794.0,0.022093572362881675
2793.0,0.021865152601710403
2792.0,0.02159120737696063
2791.0,0.021317434843055594
2790.0,0.0209982515252789
2789.0,0.02067930261797568
2788.0,0.020315076172974234
2787.0,0.019996628416253603
2786.0,0.019723858922159776
2785.0,0.019451260640229506
2784.0,0.019178833355664393
2783.0,0.018951941086827073
2782.0,0.018725167293411005
2781.0,0.018498511851753108
2780.0,0.01831727262871463
2779.0,0.01809082990920774
2778.0,0.017955020928509757
2777.0,0.017774008325325275
2776.0,0.017638298366853045
2775.0,0.017502630802287644
2774.0,0.017367005605150476
2773.0,0.017186237868137555
2772.0,0.017095882207371904
2771.0,0.017005545341335804
2770.0,0.016915227262211507
2769.0,0.016824927962187042
2768.0,0.016734647433454652
2767.0,0.016689514205884493
2766.0,0.016599261819461697
2765.0,0.016509028184833463
2764.0,0.016373712875465518
2763.0,0.01628352608625061
2762.0,0.016193358021584725
2761.0,0.016103208673694303
2760.0,0.016013078034810446
2759.0,0.015922966097169144
2758.0,0.015832872853011715
2757.0,0.015742798294583915
2756.0,0.015697768020096703
2755.0,0.015652742414136167
2754.0,0.015562705203923999
2753.0,0.015517693597737248
2752.0,0.015427684378367834
2751.0,0.01538268676325183
2750.0,0.01538268676325183
2749.0,0.01538268676325183
2748.0,0.01538268676325183
2747.0,0.01538268676325183
2746.0,0.01538268676325183
2745.0,0.01538268676325183
2744.0,0.01538268676325183
2743.0,0.015427684378367834
2742.0,0.015427684378367834
2741.0,0.015427684378367834
2740.0,0.015427684378367834
2739.0,0.01547268665620738
2738.0,0.015562705203923999
2737.0,0.015652742414136167
2736.0,0.01578783323856614
2735.0,0.015922966097169144
2734.0,0.016013078034810446
2733.0,0.016148281008528276
2732.0,0.016238439713835096
2731.0,0.016373712875465518
2730.0,0.016509028184833463
2729.0,0.016689514205884493
2728.0,0.016915227262211507
2727.0,0.017141057687924732
2726.0,0.017367005605150476
2725.0,0.01759307113620534
2724.0,0.017728766960431575
2723.0,0.01781925440359733
2722.0,0.017864505196230507
2721.0,0.01781925440359733
2720.0,0.017638298366853045
2719.0,0.017367005605150476
2718.0,0.017095882207371904
2717.0,0.01677978535189717
2716.0,0.016509028184833463
2715.0,0.016238439713835096
2714.0,0.016013078034810446
2713.0,0.015877917138889863
2712.0,0.015697768020096703
2711.0,0.015562705203923999
2710.0,0.01538268676325183
2709.0,0.015247721884586563
2708.0,0.015112798935672522
2707.0,0.014977917890464765
2706.0,0.014843078722943437
2705.0,0.014708281407112
2704.0,0.014573525916998342
2703.0,0.014438812226654996
2702.0,0.014304140310157809
2701.0,0.014169510141607944
2700.0,0.014079779876432497
2699.0,0.013990068146738865
2698.0,0.013990068146738865
2697.0,0.013990068146738865
2696.0,0.013990068146738865
2695.0,0.013945219230304673
2694.0,0.013900374944870508
2693.0,0.01385553528947936
2692.0,0.013765869865004277
2691.0,0.013765869865004277
2690.0,0.013765869865004277
2689.0,0.013765869865004277
2688.0,0.01381070026317599
2687.0,0.013765869865004277
2686.0,0.01372104409400876
2685.0,0.01372104409400876
2684.0,0.01372104409400876
2683.0,0.01372104409400876
2682.0,0.01372104409400876
2681.0,0.01372104409400876
2680.0,0.01372104409400876
2679.0,0.01372104409400876
2678.0,0.01372104409400876
2677.0,0.01372104409400876
2676.0,0.01372104409400876
2675.0,0.013676222949234651
2674.0,0.013631406429727155
2673.0,0.013586594534531482
2672.0,0.013541787262693505
2671.0,0.013496984613259544
2670.0,0.013452186585275916
2669.0,0.013407393177789162
2668.0,0.013407393177789162
2667.0,0.013407393177789162
2666.0,0.013407393177789162
2665.0,0.013407393177789162
2664.0,0.013362604389846044
2663.0,0.013362604389846044
2662.0,0.013362604389846044
2661.0,0.013362604389846044
2660.0,0.013317820220494436
2659.0,0.013273040668781544
2658.0,0.01322826573375524
2657.0,0.01318349541446362
2656.0,0.01318349541446362
2655.0,0.01318349541446362
2654.0,0.013138729709955221
2653.0,0.013049212141483357
2652.0,0.012959713020733288
2651.0,0.012870232340102872
2650.0,0.012780770091995297
2649.0,0.012736045877764557
2648.0,0.012691326268817527
2647.0,0.012691326268817527
2646.0,0.01264661126420652
2645.0,0.012557195064198723
2644.0,0.012467797270160563
2643.0,0.012423105273012602
2642.0,0.012378417874516323
2641.0,0.012378417874516323
2640.0,0.012378417874516323
2639.0,0.012378417874516323
2638.0,0.012378417874516323
2637.0,0.012289056869694281
2636.0,0.012244383261476699
2635.0,0.01215504982870197
2634.0,0.01215504982870197
2633.0,0.01215504982870197
2632.0,0.01215504982870197
2631.0,0.012199714248127602
2630.0,0.012199714248127602
2629.0,0.012244383261476699
2628.0,0.012289056869694281
2627.0,0.012333735073725371
2626.0,0.012333735073725371
2625.0,0.012378417874516323
2624.0,0.012378417874516323
2623.0,0.012423105273012602
2622.0,0.012512493866907004
2621.0,0.012512493866907004
2620.0,0.012512493866907004
2619.0,0.012512493866907004
2618.0,0.012512493866907004
2617.0,0.012557195064198723
2616.0,0.01260190086298274
2615.0,0.01264661126420652
2614.0,0.01260190086298274
2613.0,0.012557195064198723
2612.0,0.012512493866907004
2611.0,0.012423105273012602
2610.0,0.012378417874516323
2609.0,0.012289056869694281
2608.0,0.012199714248127602
2607.0,0.012110390002254778
2606.0,0.0119764380713403
2605.0,0.011887159731648111
2604.0,0.011842527443247208
2603.0,0.011842527443247208
2602.0,0.011797899741219142
2601.0,0.011753276624621556
2600.0,0.011753276624621556
2599.0,0.011708658092512314
2598.0,0.011708658092512314
2597.0,0.011708658092512314
2596.0,0.011708658092512314
2595.0,0.011708658092512314
2594.0,0.011753276624621556
2593.0,0.011797899741219142
2592.0,0.011842527443247208
2591.0,0.011931796607364653
2590.0,0.012021084124518078
2589.0,0.012021084124518078
2588.0,0.012065734767841452
2587.0,0.01215504982870197
2586.0,0.012244383261476699
2585.0,0.012423105273012602
2584.0,0.012512493866907004
2583.0,0.01260190086298274
2582.0,0.01264661126420652
2581.0,0.01264661126420652
2580.0,0.01260190086298274
2579.0,0.012557195064198723
2578.0,0.012467797270160563
2577.0,0.012378417874516323
2576.0,0.012289056869694281
2575.0,0.012199714248127602
2574.0,0.012110390002254778
2573.0,0.012021084124518078
2572.0,0.011887159731648111
2571.0,0.011753276624621556
2570.0,0.011619434777991433
2569.0,0.011574829993696856
2568.0,0.011574829993696856
2567.0,0.011530229790124524
2566.0,0.011485634166333858
2565.0,0.011396456654336085
2564.0,0.011351874764248926
2563.0,0.011351874764248926
2562.0,0.011351874764248926
2561.0,0.011351874764248926
2560.0,0.011307297450183107
2559.0,0.011262724711199823
2558.0,0.011218156546359825
2557.0,0.011218156546359825
2556.0,0.011218156546359825
2555.0,0.011218156546359825
2554.0,0.011218156546359825
2553.0,0.011129033935354915
2552.0,0.011039929609661936
2551.0,0.010995384301463185
2550.0,0.010906307389674463
2549.0,0.010906307389674463
2548.0,0.010906307389674463
2547.0,0.010906307389674463
2546.0,0.01086177578421088
2545.0,0.010817248744452446
2544.0,0.01077272626946324
2543.0,0.01077272626946324
2542.0,0.01077272626946324
2541.0,0.010817248744452446
2540.0,0.010817248744452446
2539.0,0.010817248744452446
2538.0,0.01077272626946324
2537.0,0.010728208358306901
2536.0,0.010683695010048622
2535.0,0.010639186223752484
2534.0,0.010594681998483901
2533.0,0.010505687227290839
2532.0,0.010505687227290839
2531.0,0.01046119667949763
2530.0,0.01046119667949763
2529.0,0.01046119667949763
2528.0,0.01046119667949763
2527.0,0.01046119667949763
2526.0,0.01046119667949763
2525.0,0.01046119667949763
2524.0,0.010416710688994968
2523.0,0.01037222925484893
2522.0,0.010327752376126709
2521.0,0.010327752376126709
2520.0,0.010327752376126709
2519.0,0.010327752376126709
2518.0,0.010283280051895272
2517.0,0.010194349063173958
2516.0,0.010149890396819572
2515.0,0.010060986715464404
2514.0,0.010060986715464404
2513.0,0.010060986715464404
2512.0,0.010060986715464404
2511.0,0.010060986715464404
2510.0,0.010105436281226954
2509.0,0.010060986715464404
2508.0,0.01001654169860089
2507.0,0.01001654169860089
2506.0,0.009972101229705377
2505.0,0.009927665307847056
2504.0,0.009927665307847056
2503.0,0.009927665307847056
2502.0,0.009927665307847056
2501.0,0.009927665307847056
2500.0,0.009927665307847056
2499.0,0.009927665307847056
2498.0,0.009927665307847056
2497.0,0.009883233932095559
2496.0,0.009883233932095559
2495.0,0.009883233932095559
2494.0,0.009883233932095559
2493.0,0.009927665307847056
2492.0,0.009927665307847056
2491.0,0.009927665307847056
2490.0,0.009883233932095559
2489.0,0.009838807101520963
2488.0,0.009838807101520963
2487.0,0.009838807101520963
2486.0,0.009838807101520963
2485.0,0.009838807101520963
2484.0,0.009838807101520963
2483.0,0.009838807101520963
2482.0,0.009838807101520963
2481.0,0.009883233932095559
2480.0,0.009883233932095559
2479.0,0.009883233932095559
2478.0,0.009883233932095559
2477.0,0.009838807101520963
2476.0,0.009838807101520963
2475.0,0.009794384815193347
2474.0,0.009794384815193347
2473.0,0.009794384815193347
2472.0,0.009794384815193347
2471.0,0.009794384815193347
2470.0,0.00974996707218323
2469.0,0.009705553871561357
2468.0,0.00966114521239847
2467.0,0.00966114521239847
2466.0,0.009616741093766423
2465.0,0.009616741093766423
2464.0,0.00966114521239847
2463.0,0.009705553871561357
2462.0,0.009705553871561357
2461.0,0.009705553871561357
2460.0,0.009705553871561357
2459.0,0.00966114521239847
2458.0,0.00966114521239847
2457.0,0.00966114521239847
2456.0,0.009705553871561357
2455.0,0.00974996707218323
2454.0,0.009794384815193347
2453.0,0.009794384815193347
2452.0,0.00974996707218323
2451.0,0.009705553871561357
2450.0,0.00966114521239847
2449.0,0.00966114521239847
2448.0,0.009616741093766423
2447.0,0.00966114521239847
2446.0,0.00966114521239847
2445.0,0.009705553871561357
2444.0,0.009705553871561357
2443.0,0.00966114521239847
2442.0,0.009616741093766423
2441.0,0.009572341514736404
2440.0,0.009572341514736404
2439.0,0.009616741093766423
2438.0,0.00966114521239847
2437.0,0.00974996707218323
2436.0,0.009794384815193347
2435.0,0.009838807101520963
2434.0,0.009838807101520963
2433.0,0.009794384815193347
2432.0,0.009794384815193347
2431.0,0.009794384815193347
2430.0,0.009838807101520963
2429.0,0.009883233932095559
2428.0,0.009883233932095559
2427.0,0.009838807101520963
2426.0,0.009794384815193347
2425.0,0.009794384815193347
2424.0,0.009794384815193347
2423.0,0.009838807101520963
2422.0,0.009838807101520963
2421.0,0.009838807101520963
2420.0,0.009794384815193347
2419.0,0.009794384815193347
2418.0,0.009794384815193347
2417.0,0.009794384815193347
2416.0,0.00974996707218323
2415.0,0.00974996707218323
2414.0,0.00974996707218323
2413.0,0.009705553871561357
2412.0,0.00974996707218323
2411.0,0.00974996707218323
2410.0,0.00974996707218323
2409.0,0.00974996707218323
2408.0,0.009705553871561357
2407.0,0.00966114521239847
2406.0,0.00966114521239847
2405.0,0.00966114521239847
2404.0,0.009705553871561357
2403.0,0.009705553871561357
2402.0,0.009705553871561357
2401.0,0.00974996707218323
2400.0,0.009705553871561357
2399.0,0.009705553871561357
2398.0,0.009705553871561357
2397.0,0.009705553871561357
2396.0,0.009705553871561357
2395.0,0.009705553871561357
2394.0,0.00966114521239847
2393.0,0.00966114521239847
2392.0,0.009705553871561357
2391.0,0.009705553871561357
2390.0,0.00974996707218323
2389.0,0.009794384815193347
2388.0,0.009794384815193347
2387.0,0.009838807101520963
2386.0,0.009927665307847056
2385.0,0.01001654169860089
2384.0,0.010060986715464404
2383.0,0.010060986715464404
2382.0,0.010060986715464404
2381.0,0.010060986715464404
2380.0,0.010060986715464404
2379.0,0.010060986715464404
2378.0,0.010060986715464404
2377.0,0.010105436281226954
2376.0,0.010105436281226954
2375.0,0.010149890396819572
2374.0,0.010194349063173958
2373.0,0.01023881228122181
2372.0,0.010283280051895272
2371.0,0.010283280051895272
2370.0,0.010283280051895272
2369.0,0.01023881228122181
2368.0,0.010194349063173958
2367.0,0.01037222925484893
2366.0,0.010817248744452446
2365.0,0.01117359295472431
2364.0,0.011129033935354915
2363.0,0.010594681998483901
2362.0,0.010060986715464404
2361.0,0.009794384815193347
2360.0,0.009794384815193347
2359.0,0.009972101229705377
2358.0,0.010327752376126709
2357.0,0.010728208358306901
2356.0,0.010950843561779777
2355.0,0.01086177578421088
2354.0,0.010594681998483901
2353.0,0.010194349063173958
2352.0,0.009838807101520963
2351.0,0.00974996707218323
2350.0,0.009927665307847056
2349.0,0.010149890396819572
2348.0,0.01023881228122181
2347.0,0.010105436281226954
2346.0,0.01001654169860089
2345.0,0.010060986715464404
2344.0,0.01023881228122181
2343.0,0.01037222925484893
2342.0,0.010416710688994968
2341.0,0.01037222925484893
2340.0,0.01023881228122181
2339.0,0.010060986715464404
2338.0,0.010060986715464404
2337.0,0.010105436281226954
2336.0,0.010194349063173958
2335.0,0.010060986715464404
2334.0,0.009838807101520963
2333.0,0.009572341514736404
2332.0,0.009483555971770974
2331.0,0.009572341514736404
2330.0,0.009883233932095559
2329.0,0.010194349063173958
2328.0,0.010505687227290839
2327.0,0.010639186223752484
2326.0,0.010639186223752484
2325.0,0.010550182333308289
2324.0,0.010416710688994968
2323.0,0.01023881228122181
2322.0,0.009972101229705377
2321.0,0.009705553871561357
2320.0,0.009527946474380489
2319.0,0.009439170005980158
2318.0,0.009483555971770974
2317.0,0.009616741093766423
2316.0,0.00974996707218323
2315.0,0.009838807101520963
2314.0,0.009927665307847056
2313.0,0.009972101229705377
2312.0,0.01001654169860089
2311.0,0.010060986715464404
2310.0,0.010105436281226954
2309.0,0.010105436281226954
2308.0,0.010060986715464404
2307.0,0.009927665307847056
2306.0,0.009838807101520963
2305.0,0.009794384815193347
2304.0,0.009883233932095559
2303.0,0.009927665307847056
2302.0,0.009927665307847056
2301.0,0.009883233932095559
2300.0,0.009838807101520963
2299.0,0.009838807101520963
2298.0,0.009838807101520963
2297.0,0.009838807101520963
2296.0,0.009838807101520963
2295.0,0.009794384815193347
2294.0,0.009705553871561357
2293.0,0.00966114521239847
2292.0,0.009616741093766423
2291.0,0.009616741093766423
2290.0,0.009616741093766423
2289.0,0.009572341514736404
2288.0,0.009572341514736404
2287.0,0.009527946474380489
2286.0,0.009483555971770974
2285.0,0.009439170005980158
2284.0,0.009350411681145587
2283.0,0.009306039320248427
2282.0,0.009306039320248427
2281.0,0.009306039320248427
2280.0,0.009350411681145587
2279.0,0.009350411681145587
2278.0,0.009350411681145587
2277.0,0.009350411681145587
2276.0,0.00939478857608056
2275.0,0.009350411681145587
2274.0,0.009306039320248427
2273.0,0.009306039320248427
2272.0,0.009350411681145587
2271.0,0.00939478857608056
2270.0,0.009439170005980158
2269.0,0.009439170005980158
2268.0,0.009439170005980158
2267.0,0.00939478857608056
2266.0,0.00939478857608056
2265.0,0.009439170005980158
2264.0,0.009439170005980158
2263.0,0.009439170005980158
2262.0,0.009439170005980158
2261.0,0.009439170005980158
2260.0,0.009439170005980158
2259.0,0.009439170005980158
2258.0,0.00939478857608056
2257.0,0.00939478857608056
2256.0,0.00939478857608056
2255.0,0.00939478857608056
2254.0,0.00939478857608056
2253.0,0.00939478857608056
2252.0,0.00939478857608056
2251.0,0.00939478857608056
2250.0,0.009350411681145587
2249.0,0.009306039320248427
2248.0,0.009306039320248427
2247.0,0.009306039320248427
2246.0,0.009306039320248427
2245.0,0.009306039320248427
2244.0,0.009306039320248427
2243.0,0.009306039320248427
2242.0,0.009261671492462709
2241.0,0.009217308196862062
2240.0,0.009217308196862062
2239.0,0.009261671492462709
2238.0,0.009261671492462709
2237.0,0.009306039320248427
2236.0,0.009306039320248427
2235.0,0.009306039320248427
2234.0,0.009261671492462709
2233.0,0.009261671492462709
2232.0,0.009261671492462709
2231.0,0.009261671492462709
2230.0,0.009261671492462709
2229.0,0.009306039320248427
2228.0,0.009306039320248427
2227.0,0.009261671492462709
2226.0,0.009217308196862062
2225.0,0.009172949432521227
2224.0,0.009128595198514056
2223.0,0.009128595198514056
2222.0,0.009172949432521227
2221.0,0.009172949432521227
2220.0,0.009217308196862062
2219.0,0.009217308196862062
2218.0,0.009217308196862062
2217.0,0.009172949432521227
2216.0,0.009128595198514056
2215.0,0.009128595198514056
2214.0,0.009172949432521227
2213.0,0.009172949432521227
2212.0,0.009217308196862062
2211.0,0.009217308196862062
2210.0,0.009217308196862062
2209.0,0.009261671492462709
2208.0,0.009306039320248427
2207.0,0.009306039320248427
2206.0,0.009306039320248427
2205.0,0.009306039320248427
2204.0,0.009306039320248427
2203.0,0.009306039320248427
2202.0,0.009306039320248427
2201.0,0.009306039320248427
2200.0,0.009350411681145587
2199.0,0.00939478857608056
2198.0,0.00939478857608056
2197.0,0.009350411681145587
2196.0,0.009350411681145587
2195.0,0.009306039320248427
2194.0,0.009350411681145587
2193.0,0.009350411681145587
2192.0,0.009306039320248427
2191.0,0.009261671492462709
2190.0,0.009217308196862062
2189.0,0.009217308196862062
2188.0,0.009261671492462709
2187.0,0.009306039320248427
2186.0,0.009350411681145587
2185.0,0.00939478857608056
2184.0,0.009439170005980158
2183.0,0.009439170005980158
2182.0,0.009439170005980158
2181.0,0.00939478857608056
2180.0,0.00939478857608056
2179.0,0.009350411681145587
2178.0,0.00939478857608056
2177.0,0.00939478857608056
2176.0,0.009439170005980158
2175.0,0.009483555971770974
2174.0,0.009527946474380489
2173.0,0.009572341514736404
2172.0,0.009572341514736404
2171.0,0.009527946474380489
2170.0,0.009483555971770974
2169.0,0.009439170005980158
2168.0,0.009439170005980158
2167.0,0.009439170005980158
2166.0,0.009439170005980158
2165.0,0.00939478857608056
2164.0,0.009350411681145587
2163.0,0.009350411681145587
2162.0,0.009306039320248427
2161.0,0.009261671492462709
2160.0,0.009261671492462709
2159.0,0.009217308196862062
2158.0,0.009217308196862062
2157.0,0.009217308196862062
2156.0,0.009261671492462709
2155.0,0.009261671492462709
2154.0,0.009217308196862062
2153.0,0.009172949432521227
2152.0,0.009172949432521227
2151.0,0.009172949432521227
2150.0,0.009217308196862062
2149.0,0.009217308196862062
2148.0,0.009172949432521227
2147.0,0.009172949432521227
2146.0,0.009217308196862062
2145.0,0.009261671492462709
2144.0,0.009306039320248427
2143.0,0.009306039320248427
2142.0,0.009306039320248427
2141.0,0.009306039320248427
2140.0,0.009306039320248427
2139.0,0.009261671492462709
2138.0,0.009261671492462709
2137.0,0.009261671492462709
2136.0,0.009306039320248427
2135.0,0.009350411681145587
2134.0,0.00939478857608056
2133.0,0.00939478857608056
2132.0,0.00939478857608056
2131.0,0.009350411681145587
2130.0,0.009350411681145587
2129.0,0.009350411681145587
2128.0,0.009350411681145587
2127.0,0.009306039320248427
2126.0,0.009306039320248427
2125.0,0.009261671492462709
2124.0,0.009217308196862062
2123.0,0.009172949432521227
2122.0,0.009172949432521227
2121.0,0.009172949432521227
2120.0,0.009172949432521227
2119.0,0.009172949432521227
2118.0,0.009172949432521227
2117.0,0.009172949432521227
2116.0,0.009128595198514056
2115.0,0.009128595198514056
2114.0,0.009128595198514056
2113.0,0.009128595198514056
2112.0,0.009128595198514056
2111.0,0.009128595198514056
2110.0,0.009128595198514056
2109.0,0.009128595198514056
2108.0,0.009172949432521227
2107.0,0.009172949432521227
2106.0,0.009217308196862062
2105.0,0.009217308196862062
2104.0,0.009172949432521227
2103.0,0.009128595198514056
2102.0,0.00908424549391551
2101.0,0.009039900317800775
2100.0,0.008995559669244813
2099.0,0.008995559669244813
2098.0,0.008995559669244813
2097.0,0.009039900317800775
2096.0,0.009039900317800775
2095.0,0.009039900317800775
2094.0,0.009039900317800775
2093.0,0.00908424549391551
2092.0,0.009128595198514056
2091.0,0.009172949432521227
2090.0,0.009172949432521227
2089.0,0.009172949432521227
2088.0,0.009128595198514056
2087.0,0.00908424549391551
2086.0,0.009039900317800775
2085.0,0.009039900317800775
2084.0,0.009039900317800775
2083.0,0.009039900317800775
2082.0,0.00908424549391551
2081.0,0.00908424549391551
2080.0,0.009128595198514056
2079.0,0.00908424549391551
2078.0,0.00908424549391551
2077.0,0.009039900317800775
2076.0,0.009039900317800775
2075.0,0.008995559669244813
2074.0,0.008995559669244813
2073.0,0.008995559669244813
2072.0,0.008995559669244813
2071.0,0.009039900317800775
2070.0,0.009039900317800775
2069.0,0.009039900317800775
2068.0,0.008995559669244813
2067.0,0.008995559669244813
2066.0,0.008995559669244813
2065.0,0.009039900317800775
2064.0,0.009039900317800775
2063.0,0.008995559669244813
2062.0,0.008995559669244813
2061.0,0.008995559669244813
2060.0,0.008995559669244813
2059.0,0.008995559669244813
2058.0,0.008995559669244813
2057.0,0.008995559669244813
2056.0,0.008995559669244813
2055.0,0.008995559669244813
2054.0,0.008995559669244813
2053.0,0.008995559669244813
2052.0,0.009039900317800775
2051.0,0.009039900317800775
2050.0,0.009039900317800775
2049.0,0.00908424549391551
2048.0,0.009039900317800775
2047.0,0.009039900317800775
2046.0,0.009039900317800775
2045.0,0.009039900317800775
2044.0,0.009039900317800775
2043.0,0.009039900317800775
2042.0,0.008995559669244813
2041.0,0.008995559669244813
2040.0,0.008995559669244813
2039.0,0.008951223547323472
2038.0,0.008951223547323472
2037.0,0.008951223547323472
2036.0,0.008995559669244813
2035.0,0.008995559669244813
2034.0,0.008995559669244813
2033.0,0.008995559669244813
2032.0,0.008951223547323472
2031.0,0.008951223547323472
2030.0,0.008995559669244813
2029.0,0.008995559669244813
2028.0,0.009039900317800775
2027.0,0.009039900317800775
2026.0,0.009039900317800775
2025.0,0.009039900317800775
2024.0,0.008995559669244813
2023.0,0.008951223547323472
2022.0,0.008906891951112605
2021.0,0.008906891951112605
2020.0,0.008906891951112605
2019.0,0.008951223547323472
2018.0,0.008995559669244813
2017.0,0.009039900317800775
2016.0,0.009039900317800775
2015.0,0.009039900317800775
2014.0,0.008995559669244813
2013.0,0.008995559669244813
2012.0,0.008995559669244813
2011.0,0.008995559669244813
2010.0,0.008995559669244813
2009.0,0.008995559669244813
2008.0,0.009039900317800775
2007.0,0.009039900317800775
2006.0,0.009039900317800775
2005.0,0.009039900317800775
2004.0,0.009039900317800775
2003.0,0.008995559669244813
2002.0,0.008995559669244813
2001.0,0.008995559669244813
2000.0,0.009039900317800775
1999.0,0.009039900317800775
1998.0,0.009039900317800775
1997.0,0.009039900317800775
1996.0,0.008995559669244813
1995.0,0.008951223547323472
1994.0,0.008906891951112605
1993.0,0.008862564879688284
1992.0,0.008906891951112605
1991.0,0.008951223547323472
1990.0,0.008995559669244813
1989.0,0.009039900317800775
1988.0,0.009039900317800775
1987.0,0.009039900317800775
1986.0,0.008995559669244813
1985.0,0.008995559669244813
1984.0,0.008995559669244813
1983.0,0.008995559669244813
1982.0,0.008995559669244813
1981.0,0.008995559669244813
1980.0,0.008995559669244813
1979.0,0.008995559669244813
1978.0,0.008951223547323472
1977.0,0.008906891951112605
1976.0,0.008906891951112605
1975.0,0.008862564879688284
1974.0,0.008862564879688284
1973.0,0.008862564879688284
1972.0,0.008862564879688284
1971.0,0.008862564879688284
1970.0,0.008862564879688284
1969.0,0.008818242332126802
1968.0,0.008818242332126802
1967.0,0.008862564879688284
1966.0,0.008906891951112605
1965.0,0.008906891951112605
1964.0,0.008951223547323472
1963.0,0.008951223547323472
1962.0,0.008951223547323472
1961.0,0.008906891951112605
1960.0,0.008906891951112605
1959.0,0.008906891951112605
1958.0,0.008906891951112605
1957.0,0.008951223547323472
1956.0,0.008951223547323472
1955.0,0.008951223547323472
1954.0,0.008906891951112605
1953.0,0.008906891951112605
1952.0,0.008906891951112605
1951.0,0.008906891951112605
1950.0,0.008862564879688284
1949.0,0.008862564879688284
1948.0,0.008862564879688284
1947.0,0.008862564879688284
1946.0,0.008862564879688284
1945.0,0.008862564879688284
1944.0,0.008862564879688284
1943.0,0.008862564879688284
1942.0,0.008862564879688284
1941.0,0.008906891951112605
1940.0,0.008951223547323472
1939.0,0.008951223547323472
1938.0,0.008951223547323472
1937.0,0.008906891951112605
1936.0,0.008862564879688284
1935.0,0.008862564879688284
1934.0,0.008862564879688284
1933.0,0.008862564879688284
1932.0,0.008906891951112605
1931.0,0.008951223547323472
1930.0,0.008951223547323472
1929.0,0.008951223547323472
1928.0,0.008951223547323472
1927.0,0.008951223547323472
1926.0,0.008951223547323472
1925.0,0.008995559669244813
1924.0,0.008995559669244813
1923.0,0.009039900317800775
1922.0,0.009039900317800775
1921.0,0.009039900317800775
1920.0,0.008995559669244813
1919.0,0.008951223547323472
1918.0,0.008951223547323472
1917.0,0.008951223547323472
1916.0,0.008995559669244813
1915.0,0.008995559669244813
1914.0,0.008951223547323472
1913.0,0.008951223547323472
1912.0,0.008951223547323472
1911.0,0.008951223547323472
1910.0,0.008951223547323472
1909.0,0.008995559669244813
1908.0,0.008995559669244813
1907.0,0.009039900317800775
1906.0,0.009039900317800775
1905.0,0.00908424549391551
1904.0,0.00908424549391551
1903.0,0.009128595198514056
1902.0,0.009172949432521227
1901.0,0.009172949432521227
1900.0,0.009128595198514056
1899.0,0.00908424549391551
1898.0,0.009039900317800775
1897.0,0.009039900317800775
1896.0,0.00908424549391551
1895.0,0.00908424549391551
1894.0,0.009128595198514056
1893.0,0.009128595198514056
1892.0,0.009128595198514056
1891.0,0.00908424549391551
1890.0,0.00908424549391551
1889.0,0.00908424549391551
1888.0,0.00908424549391551
1887.0,0.009039900317800775
1886.0,0.008995559669244813
1885.0,0.008951223547323472
1884.0,0.008906891951112605
1883.0,0.008906891951112605
1882.0,0.008906891951112605
1881.0,0.008995559669244813
1880.0,0.008995559669244813
1879.0,0.008995559669244813
1878.0,0.008951223547323472
1877.0,0.008951223547323472
1876.0,0.008951223547323472
1875.0,0.008951223547323472
1874.0,0.008951223547323472
1873.0,0.008906891951112605
1872.0,0.008862564879688284
1871.0,0.008818242332126802
1870.0,0.008818242332126802
1869.0,0.008862564879688284
1868.0,0.008906891951112605
1867.0,0.008906891951112605
1866.0,0.008951223547323472
1865.0,0.008951223547323472
1864.0,0.008951223547323472
1863.0,0.008951223547323472
1862.0,0.008995559669244813
1861.0,0.008995559669244813
1860.0,0.009039900317800775
1859.0,0.008995559669244813
1858.0,0.008995559669244813
1857.0,0.009039900317800775
1856.0,0.009039900317800775
1855.0,0.009039900317800775
1854.0,0.00908424549391551
1853.0,0.00908424549391551
1852.0,0.00908424549391551
1851.0,0.009039900317800775
1850.0,0.008995559669244813
1849.0,0.008951223547323472
1848.0,0.008951223547323472
1847.0,0.008951223547323472
1846.0,0.008995559669244813
1845.0,0.008995559669244813
1844.0,0.009039900317800775
1843.0,0.008995559669244813
1842.0,0.009039900317800775
1841.0,0.00908424549391551
1840.0,0.00908424549391551
1839.0,0.00908424549391551
1838.0,0.009128595198514056
1837.0,0.009128595198514056
1836.0,0.009128595198514056
1835.0,0.009128595198514056
1834.0,0.00908424549391551
1833.0,0.00908424549391551
1832.0,0.009039900317800775
1831.0,0.008995559669244813
1830.0,0.008995559669244813
1829.0,0.008995559669244813
1828.0,0.009039900317800775
1827.0,0.009039900317800775
1826.0,0.00908424549391551
1825.0,0.00908424549391551
1824.0,0.009128595198514056
1823.0,0.009128595198514056
1822.0,0.00908424549391551
1821.0,0.009039900317800775
1820.0,0.008995559669244813
1819.0,0.008995559669244813
1818.0,0.008995559669244813
1817.0,0.008995559669244813
1816.0,0.008951223547323472
1815.0,0.008906891951112605
1814.0,0.008906891951112605
1813.0,0.008906891951112605
1812.0,0.008906891951112605
1811.0,0.008906891951112605
1810.0,0.008951223547323472
1809.0,0.008951223547323472
1808.0,0.008951223547323472
1807.0,0.008906891951112605
1806.0,0.008906891951112605
1805.0,0.008906891951112605
1804.0,0.008862564879688284
1803.0,0.008818242332126802
1802.0,0.008818242332126802
1801.0,0.008818242332126802
1800.0,0.008818242332126802
1799.0,0.008862564879688284
1798.0,0.008862564879688284
1797.0,0.008862564879688284
1796.0,0.008862564879688284
1795.0,0.008862564879688284
1794.0,0.008862564879688284
1793.0,0.008906891951112605
1792.0,0.008951223547323472
1791.0,0.009039900317800775
1790.0,0.009039900317800775
1789.0,0.00908424549391551
1788.0,0.00908424549391551
1787.0,0.009039900317800775
1786.0,0.009039900317800775
1785.0,0.009039900317800775
1784.0,0.009039900317800775
1783.0,0.009039900317800775
1782.0,0.008995559669244813
1781.0,0.008951223547323472
1780.0,0.008995559669244813
1779.0,0.008995559669244813
1778.0,0.008995559669244813
1777.0,0.008995559669244813
1776.0,0.008995559669244813
1775.0,0.009039900317800775
1774.0,0.009039900317800775
1773.0,0.009039900317800775
1772.0,0.009039900317800775
1771.0,0.009039900317800775
1770.0,0.009039900317800775
1769.0,0.009128595198514056
1768.0,0.009172949432521227
1767.0,0.009172949432521227
1766.0,0.009172949432521227
1765.0,0.009217308196862062
1764.0,0.009261671492462709
1763.0,0.009306039320248427
1762.0,0.009350411681145587
1761.0,0.00939478857608056
1760.0,0.009439170005980158
1759.0,0.009483555971770974
1758.0,0.009572341514736404
1757.0,0.009705553871561357
1756.0,0.009838807101520963
1755.0,0.009927665307847056
1754.0,0.009972101229705377
1753.0,0.01001654169860089
1752.0,0.010060986715464404
1751.0,0.010105436281226954
1750.0,0.010194349063173958
1749.0,0.010283280051895272
1748.0,0.01037222925484893
1747.0,0.010416710688994968
1746.0,0.01046119667949763
1745.0,0.01046119667949763
1744.0,0.01046119667949763
1743.0,0.010505687227290839
1742.0,0.01046119667949763
1741.0,0.010416710688994968
1740.0,0.010327752376126709
1739.0,0.01023881228122181
1738.0,0.010194349063173958
1737.0,0.010194349063173958
1736.0,0.010149890396819572
1735.0,0.010105436281226954
1734.0,0.010105436281226954
1733.0,0.01001654169860089
1732.0,0.009972101229705377
1731.0,0.01001654169860089
1730.0,0.01001654169860089
1729.0,0.01001654169860089
1728.0,0.01001654169860089
1727.0,0.01001654169860089
1726.0,0.009972101229705377
1725.0,0.009972101229705377
1724.0,0.009972101229705377
1723.0,0.009972101229705377
1722.0,0.009972101229705377
1721.0,0.009972101229705377
1720.0,0.009927665307847056
1719.0,0.009927665307847056
1718.0,0.009927665307847056
1717.0,0.010060986715464404
1716.0,0.010105436281226954
1715.0,0.010105436281226954
1714.0,0.010060986715464404
1713.0,0.010060986715464404
1712.0,0.01001654169860089
1711.0,0.01001654169860089
1710.0,0.01001654169860089
1709.0,0.01001654169860089
1708.0,0.009972101229705377
1707.0,0.009972101229705377
1706.0,0.009972101229705377
1705.0,0.009972101229705377
1704.0,0.010060986715464404
1703.0,0.010149890396819572
1702.0,0.010194349063173958
1701.0,0.01023881228122181
1700.0,0.010283280051895272
1699.0,0.01023881228122181
1698.0,0.01023881228122181
1697.0,0.010327752376126709
1696.0,0.01037222925484893
1695.0,0.010327752376126709
1694.0,0.010283280051895272
1693.0,0.01037222925484893
1692.0,0.01037222925484893
1691.0,0.010327752376126709
1690.0,0.010283280051895272
1689.0,0.010283280051895272
1688.0,0.01037222925484893
1687.0,0.01037222925484893
1686.0,0.010327752376126709
1685.0,0.010327752376126709
1684.0,0.01046119667949763
1683.0,0.01046119667949763
1682.0,0.010505687227290839
1681.0,0.010550182333308289
1680.0,0.010594681998483901
1679.0,0.010594681998483901
1678.0,0.010594681998483901
1677.0,0.010594681998483901
1676.0,0.010550182333308289
1675.0,0.010550182333308289
1674.0,0.010550182333308289
1673.0,0.010550182333308289
1672.0,0.010550182333308289
1671.0,0.010550182333308289
1670.0,0.010594681998483901
1669.0,0.010594681998483901
1668.0,0.010594681998483901
1667.0,0.010594681998483901
1666.0,0.010594681998483901
1665.0,0.010594681998483901
1664.0,0.010550182333308289
1663.0,0.010505687227290839
1662.0,0.010550182333308289
1661.0,0.010550182333308289
1660.0,0.010594681998483901
1659.0,0.010639186223752484
1658.0,0.010639186223752484
1657.0,0.010639186223752484
1656.0,0.010683695010048622
1655.0,0.010639186223752484
1654.0,0.010817248744452446
1653.0,0.011039929609661936
1652.0,0.010817248744452446
1651.0,0.010683695010048622
1650.0,0.010683695010048622
1649.0,0.010639186223752484
1648.0,0.010639186223752484
1647.0,0.010728208358306901
1646.0,0.01077272626946324
1645.0,0.010728208358306901
1644.0,0.010728208358306901
1643.0,0.010728208358306901
1642.0,0.010639186223752484
1641.0,0.010594681998483901
1640.0,0.010505687227290839
1639.0,0.01046119667949763
1638.0,0.01046119667949763
1637.0,0.010505687227290839
1636.0,0.010639186223752484
1635.0,0.010639186223752484
1634.0,0.010550182333308289
1633.0,0.010550182333308289
1632.0,0.010505687227290839
1631.0,0.01046119667949763
1630.0,0.010416710688994968
1629.0,0.010327752376126709
1628.0,0.010283280051895272
1627.0,0.010283280051895272
1626.0,0.010283280051895272
1625.0,0.010283280051895272
1624.0,0.010283280051895272
1623.0,0.010283280051895272
1622.0,0.01023881228122181
1621.0,0.01023881228122181
1620.0,0.01023881228122181
1619.0,0.01023881228122181
1618.0,0.010194349063173958
1617.0,0.010194349063173958
1616.0,0.010149890396819572
1615.0,0.010060986715464404
1614.0,0.010060986715464404
1613.0,0.010060986715464404
1612.0,0.01001654169860089
1611.0,0.009972101229705377
1610.0,0.009927665307847056
1609.0,0.009883233932095559
1608.0,0.009838807101520963
1607.0,0.009838807101520963
1606.0,0.009794384815193347
1605.0,0.00974996707218323
1604.0,0.009705553871561357
1603.0,0.00966114521239847
1602.0,0.009616741093766423
1601.0,0.009616741093766423
1600.0,0.009572341514736404
1599.0,0.009572341514736404
1598.0,0.009572341514736404
1597.0,0.009572341514736404
1596.0,0.009527946474380489
1595.0,0.009527946474380489
1594.0,0.009483555971770974
1593.0,0.009439170005980158
1592.0,0.009439170005980158
1591.0,0.009439170005980158
1590.0,0.009439170005980158
1589.0,0.009439170005980158
1588.0,0.009483555971770974
1587.0,0.009483555971770974
1586.0,0.009439170005980158
1585.0,0.009439170005980158
1584.0,0.009439170005980158
1583.0,0.009483555971770974
1582.0,0.009527946474380489
1581.0,0.009527946474380489
1580.0,0.009527946474380489
1579.0,0.009483555971770974
1578.0,0.009439170005980158
1577.0,0.00939478857608056
1576.0,0.00939478857608056
1575.0,0.009350411681145587
1574.0,0.009350411681145587
1573.0,0.00939478857608056
1572.0,0.00939478857608056
1571.0,0.009350411681145587
1570.0,0.009306039320248427
1569.0,0.009306039320248427
1568.0,0.009261671492462709
1567.0,0.009261671492462709
1566.0,0.009261671492462709
1565.0,0.009172949432521227
1564.0,0.009172949432521227
1563.0,0.009172949432521227
1562.0,0.009217308196862062
1561.0,0.009172949432521227
1560.0,0.009172949432521227
1559.0,0.009306039320248427
1558.0,0.00908424549391551
1557.0,0.008951223547323472
1556.0,0.009039900317800775
1555.0,0.00908424549391551
1554.0,0.00908424549391551
1553.0,0.00908424549391551
1552.0,0.009128595198514056
1551.0,0.009172949432521227
1550.0,0.009172949432521227
1549.0,0.009217308196862062
1548.0,0.009217308196862062
1547.0,0.009217308196862062
1546.0,0.009172949432521227
1545.0,0.009128595198514056
1544.0,0.009128595198514056
1543.0,0.00908424549391551
1542.0,0.008951223547323472
1541.0,0.008906891951112605
1540.0,0.008906891951112605
1539.0,0.008818242332126802
1538.0,0.0087296108049002
1537.0,0.008773924307505121
1536.0,0.008818242332126802
1535.0,0.0087296108049002
1534.0,0.008552401996197112
1533.0,0.008419542825660153
1532.0,0.008419542825660153
1531.0,0.008375265465994541
1530.0,0.008286724286910463
1529.0,0.008242460465651913
1528.0,0.008198201155356077
1527.0,0.008153946355103248
1526.0,0.008109696063975047
1525.0,0.008109696063975047
1524.0,0.008153946355103248
1523.0,0.008109696063975047
1522.0,0.008065450281052211
1521.0,0.008109696063975047
1520.0,0.008153946355103248
1519.0,0.008065450281052211
1518.0,0.008021209005416363
1517.0,0.008021209005416363
1516.0,0.008065450281052211
1515.0,0.008065450281052211
1514.0,0.008065450281052211
1513.0,0.008065450281052211
1512.0,0.008065450281052211
1511.0,0.007976972236149349
1510.0,0.007888512213050314
1509.0,0.007844288957383316
1508.0,0.007932739972333236
1507.0,0.008021209005416363
1506.0,0.007932739972333236
1505.0,0.007932739972333236
1504.0,0.008065450281052211
1503.0,0.008109696063975047
1502.0,0.008109696063975047
1501.0,0.008153946355103248
1500.0,0.008242460465651913
1499.0,0.008330992620051436
1498.0,0.008330992620051436
1497.0,0.008419542825660153
1496.0,0.008552401996197112
1495.0,0.008596697419959609
1494.0,0.008640997362049818
1493.0,0.0087296108049002
1492.0,0.008862564879688284
1491.0,0.008862564879688284
1490.0,0.008906891951112605
1489.0,0.009128595198514056
1488.0,0.00939478857608056
1487.0,0.009572341514736404
1486.0,0.00974996707218323
1485.0,0.010105436281226954
1484.0,0.010505687227290839
1483.0,0.010906307389674463
1482.0,0.011396456654336085
1481.0,0.012021084124518078
1480.0,0.012825498912458322
1479.0,0.013586594534531482
1478.0,0.014438812226654996
1477.0,0.015742798294583915
1476.0,0.017321806616515723
1475.0,0.019178833355664393
1474.0,0.021773818325474092
1473.0,0.02613355016462182
1472.0,0.03151705144606498
1471.0,0.03644826642590382
1470.0,0.04091088563260792
1469.0,0.045564513671517703
1468.0,0.0506099933550872
1467.0,0.05625823416868636
1466.0,0.06303410289212974
1465.0,0.07083661679493547
1464.0,0.07779372256098371
1463.0,0.08244197917456386
1462.0,0.08539243222891946
1461.0,0.08751223866767632
1460.0,0.08905559425002108
1459.0,0.09028354676565531
1458.0,0.0917295005042762
1457.0,0.0935572061829677
1456.0,0.09458193129745807
1455.0,0.09463593123310776
1454.0,0.09447395156495153
1453.0,0.09393445524476318
1452.0,0.09280368972839836
1451.0,0.09092559859909577
1450.0,0.08804381092731295
1449.0,0.08370400543686918
1448.0,0.07768983678560404
1447.0,0.07093887591523451
1446.0,0.06484555278383164
1445.0,0.05948351506743288
1444.0,0.054728418492290265
1443.0,0.0506099933550872
1442.0,0.04740126547022694
1441.0,0.04513062893352182
1440.0,0.04363944632667782
1439.0,0.04287180232318688
1438.0,0.04301563225723992
1437.0,0.0435434165901003
1436.0,0.04344740808260106
1435.0,0.041914151478914974
1434.0,0.039338992729018196
1433.0,0.03602339000339416
1432.0,0.03235843591698884
1431.0,0.028956208163971375
1430.0,0.026271941311972746
1429.0,0.024200690320592466
1428.0,0.022642270454698687
1427.0,0.02159120737696063
1426.0,0.02081596632558158
1425.0,0.019996628416253603
1424.0,0.019269623464054586
1423.0,0.018815862601645694
1422.0,0.018498511851753108
1421.0,0.01809082990920774
1420.0,0.01759307113620534
1419.0,0.017186237868137555
1418.0,0.016870075265299933
1417.0,0.016554142658660398
1416.0,0.016238439713835096
1415.0,0.016013078034810446
1414.0,0.01578783323856614
1413.0,0.01547268665620738
1412.0,0.015157768594724175
1411.0,0.014932966849499074
1410.0,0.014753209197138295
1409.0,0.01452861671041239
1408.0,0.014259258949925524
1407.0,0.014079779876432497
1406.0,0.013990068146738865
1405.0,0.01381070026317599
1404.0,0.013631406429727155
1403.0,0.013586594534531482
1402.0,0.013541787262693505
1401.0,0.013407393177789162
1400.0,0.01322826573375524
1399.0,0.013138729709955221
1398.0,0.013093968619278806
1397.0,0.012959713020733288
1396.0,0.012780770091995297
1395.0,0.012825498912458322
1394.0,0.012959713020733288
1393.0,0.013093968619278806
1392.0,0.01318349541446362
1391.0,0.013496984613259544
1390.0,0.013990068146738865
1389.0,0.014663358264387139
1388.0,0.015922966097169144
1387.0,0.018181392829336396
1386.0,0.0214542995372613
1385.0,0.025856900097785074
1384.0,0.032031037121307726
1383.0,0.04072004986906119
1382.0,0.05232126006306337
1381.0,0.06691783763020887
1380.0,0.08491689834879956
1379.0,0.10568393731556158
1378.0,0.1260984021355387
1377.0,0.14176366457048695
1376.0,0.14861933203440336
1375.0,0.143996546002779
1374.0,0.12930354201075
1373.0,0.11081038795292675
1372.0,0.0937727369476411
1371.0,0.07935499859321249
1370.0,0.06712054217620067
1369.0,0.0571489934456626
1368.0,0.04987865248862655
1367.0,0.04522701031028298
1366.0,0.042392712939904875
1365.0,0.041006334969674096
1364.0,0.04076775094900409
1363.0,0.041627267521392675
1362.0,0.0433514207947967
1361.0,0.04527520902093718
1360.0,0.04677202844014605
1359.0,0.04730440041308315
1358.0,0.04657860031896477
1357.0,0.04464904263234004
1356.0,0.04186632432376469
1355.0,0.038673844065289176
1354.0,0.03555179208333925
1353.0,0.03282657704446046
1352.0,0.030537492025363155
1351.0,0.02863136320857662
1350.0,0.02696455931306696
1349.0,0.02562649291857677
1348.0,0.024476287039668643
1347.0,0.023466619608062178
1346.0,0.02259651912656535
1345.0,0.021773818325474092
1344.0,0.021135015652343103
1343.0,0.02058821736556471
1342.0,0.020087589665283012
1341.0,0.019632973815224997
1340.0,0.019315025636685412
1339.0,0.0190880622231564
1338.0,0.018906576854070378
1337.0,0.018815862601645694
1336.0,0.018770512579999288
1335.0,0.018861217359339655
1334.0,0.0190880622231564
1333.0,0.01940584422377989
1332.0,0.019769308608968306
1331.0,0.020087589665283012
1330.0,0.020178569969774962
1329.0,0.020087589665283012
1328.0,0.019814763052665052
1327.0,0.01940584422377989
1326.0,0.018906576854070378
1325.0,0.018362575344230914
1324.0,0.01781925440359733
1323.0,0.01727661233145472
1322.0,0.016870075265299933
1321.0,0.016509028184833463
1320.0,0.01628352608625061
1319.0,0.016058141016111804
1318.0,0.015832872853011715
1317.0,0.015607721475734415
1316.0,0.01538268676325183
1315.0,0.015157768594724175
1314.0,0.015022873584506602
1313.0,0.014932966849499074
1312.0,0.014932966849499074
1311.0,0.015022873584506602
1310.0,0.015202742910707112
1309.0,0.015607721475734415
1308.0,0.016238439713835096
1307.0,0.017141057687924732
1306.0,0.018045555530026514
1305.0,0.018770512579999288
1304.0,0.019042683770379876
1303.0,0.018951941086827073
1302.0,0.01858915983411169
1301.0,0.018226681372252695
1300.0,0.01800028587012159
1299.0,0.01800028587012159
1298.0,0.018045555530026514
1297.0,0.01809082990920774
1296.0,0.01809082990920774
1295.0,0.017955020928509757
1294.0,0.017638298366853045
1293.0,0.01727661233145472
1292.0,0.016824927962187042
1291.0,0.016373712875465518
1290.0,0.01596801972881945
1289.0,0.015652742414136167
1288.0,0.015337693809893471
1287.0,0.015067833932588037
1286.0,0.014888020460646079
1285.0,0.014708281407112
1284.0,0.01452861671041239
1283.0,0.014349026309051105
1282.0,0.014214382227394795
1281.0,0.014124642691606404
1280.0,0.013990068146738865
1279.0,0.01385553528947936
1278.0,0.01372104409400876
1277.0,0.013586594534531482
1276.0,0.013496984613259544
1275.0,0.013452186585275916
1274.0,0.013362604389846044
1273.0,0.013317820220494436
1272.0,0.013317820220494436
1271.0,0.013317820220494436
1270.0,0.013362604389846044
1269.0,0.013452186585275916
1268.0,0.013496984613259544
1267.0,0.013586594534531482
1266.0,0.01372104409400876
1265.0,0.01385553528947936
1264.0,0.014079779876432497
1263.0,0.014349026309051105
1262.0,0.014618439768003144
1261.0,0.015022873584506602
1260.0,0.01547268665620738
1259.0,0.016013078034810446
1258.0,0.016644385668211692
1257.0,0.017231422748988034
1256.0,0.017547848615010242
1255.0,0.017502630802287644
1254.0,0.017095882207371904
1253.0,0.01646391839700767
1252.0,0.01578783323856614
1251.0,0.015202742910707112
1250.0,0.014753209197138295
1249.0,0.014393916947563534
1248.0,0.014079779876432497
1247.0,0.01385553528947936
1246.0,0.013631406429727155
1245.0,0.013407393177789162
1244.0,0.013273040668781544
1243.0,0.013138729709955221
1242.0,0.013049212141483357
1241.0,0.012959713020733288
1240.0,0.012870232340102872
1239.0,0.012825498912458322
1238.0,0.012736045877764557
1237.0,0.01264661126420652
1236.0,0.01260190086298274
1235.0,0.012557195064198723
1234.0,0.012557195064198723
1233.0,0.012557195064198723
1232.0,0.01260190086298274
1231.0,0.01260190086298274
1230.0,0.01260190086298274
1229.0,0.01260190086298274
1228.0,0.01264661126420652
1227.0,0.012736045877764557
1226.0,0.012914970375878188
1225.0,0.013138729709955221
1224.0,0.013407393177789162
1223.0,0.01372104409400876
1222.0,0.01403492169512921
1221.0,0.014259258949925524
1220.0,0.014349026309051105
1219.0,0.014349026309051105
1218.0,0.014259258949925524
1217.0,0.01403492169512921
1216.0,0.013765869865004277
1215.0,0.013496984613259544
1214.0,0.01322826573375524
1213.0,0.012959713020733288
1212.0,0.012780770091995297
1211.0,0.01260190086298274
1210.0,0.012467797270160563
1209.0,0.012333735073725371
1208.0,0.012244383261476699
1207.0,0.01215504982870197
1206.0,0.012065734767841452
1205.0,0.012021084124518078
1204.0,0.011931796607364653
1203.0,0.011931796607364653
1202.0,0.011887159731648111
1201.0,0.011842527443247208
1200.0,0.011753276624621556
1199.0,0.011708658092512314
1198.0,0.011664044143949504
1197.0,0.011664044143949504
1196.0,0.011619434777991433
1195.0,0.011574829993696856
1194.0,0.011530229790124524
1193.0,0.011441043121384498
1192.0,0.011396456654336085
1191.0,0.011396456654336085
1190.0,0.011396456654336085
1189.0,0.011396456654336085
1188.0,0.011351874764248926
1187.0,0.011351874764248926
1186.0,0.011351874764248926
1185.0,0.011351874764248926
1184.0,0.011396456654336085
1183.0,0.011441043121384498
1182.0,0.011574829993696856
1181.0,0.011753276624621556
1180.0,0.0119764380713403
1179.0,0.012378417874516323
1178.0,0.012914970375878188
1177.0,0.013631406429727155
1176.0,0.014573525916998342
1175.0,0.015877917138889863
1174.0,0.01759307113620534
1173.0,0.019769308608968306
1172.0,0.022413561996148967
1171.0,0.025258095499050004
1170.0,0.02798240132598462
1169.0,0.030118356253500123
1168.0,0.03137697904301118
1167.0,0.03161045815293173
1166.0,0.031003673351687855
1165.0,0.029885677714903025
1164.0,0.028677754757187035
1163.0,0.02747318213414429
1162.0,0.026410376572743033
1161.0,0.02553436426275746
1160.0,0.024798037742147727
1159.0,0.024292536462819925
1158.0,0.023925268380126097
1157.0,0.023695883447997224
1156.0,0.02355831062115543
1155.0,0.023466619608062178
1154.0,0.02342078135989012
1153.0,0.023237476732539397
1152.0,0.022871099419317753
1151.0,0.02227639471115217
1150.0,0.021545566634771474
1149.0,0.02067930261797568
1148.0,0.019814763052665052
1147.0,0.018951941086827073
1146.0,0.018136109008649592
1145.0,0.017321806616515723
1144.0,0.016599261819461697
1143.0,0.015922966097169144
1142.0,0.015337693809893471
1141.0,0.014798141635428141
1140.0,0.014304140310157809
1139.0,0.01381070026317599
1138.0,0.013407393177789162
1137.0,0.013004460275618523
1136.0,0.012736045877764557
1135.0,0.012512493866907004
1134.0,0.012333735073725371
1133.0,0.01215504982870197
1132.0,0.012021084124518078
1131.0,0.011887159731648111
1130.0,0.011753276624621556
1129.0,0.011664044143949504
1128.0,0.011574829993696856
1127.0,0.011485634166333858
1126.0,0.011485634166333858
1125.0,0.011485634166333858
1124.0,0.011485634166333858
1123.0,0.011485634166333858
1122.0,0.011530229790124524
1121.0,0.011530229790124524
1120.0,0.011530229790124524
1119.0,0.011530229790124524
1118.0,0.011530229790124524
1117.0,0.011574829993696856
1116.0,0.011708658092512314
1115.0,0.011797899741219142
1114.0,0.011931796607364653
1113.0,0.012021084124518078
1112.0,0.01215504982870197
1111.0,0.012289056869694281
1110.0,0.012512493866907004
1109.0,0.012870232340102872
1108.0,0.013317820220494436
1107.0,0.013900374944870508
1106.0,0.01452861671041239
1105.0,0.015157768594724175
1104.0,0.015652742414136167
1103.0,0.01596801972881945
1102.0,0.01596801972881945
1101.0,0.015697768020096703
1100.0,0.015247721884586563
1099.0,0.014708281407112
1098.0,0.014214382227394795
1097.0,0.01372104409400876
1096.0,0.013273040668781544
1095.0,0.012825498912458322
1094.0,0.012512493866907004
1093.0,0.012289056869694281
1092.0,0.012110390002254778
1091.0,0.0119764380713403
1090.0,0.011842527443247208
1089.0,0.011619434777991433
1088.0,0.011441043121384498
1087.0,0.011307297450183107
1086.0,0.01117359295472431
1085.0,0.011129033935354915
1084.0,0.011084479487313281
1083.0,0.011039929609661936
1082.0,0.010950843561779777
1081.0,0.01086177578421088
1080.0,0.010728208358306901
1079.0,0.010639186223752484
1078.0,0.010594681998483901
1077.0,0.010550182333308289
1076.0,0.010505687227290839
1075.0,0.010416710688994968
1074.0,0.01037222925484893
1073.0,0.010327752376126709
1072.0,0.010283280051895272
1071.0,0.01023881228122181
1070.0,0.010194349063173958
1069.0,0.010105436281226954
1068.0,0.010060986715464404
1067.0,0.01001654169860089
1066.0,0.01001654169860089
1065.0,0.010060986715464404
1064.0,0.010060986715464404
1063.0,0.01001654169860089
1062.0,0.009972101229705377
1061.0,0.009972101229705377
1060.0,0.01001654169860089
1059.0,0.010060986715464404
1058.0,0.010105436281226954
1057.0,0.010105436281226954
1056.0,0.010149890396819572
1055.0,0.010149890396819572
1054.0,0.01023881228122181
1053.0,0.010283280051895272
1052.0,0.01037222925484893
1051.0,0.010505687227290839
1050.0,0.010683695010048622
1049.0,0.010906307389674463
1048.0,0.01117359295472431
1047.0,0.011441043121384498
1046.0,0.011619434777991433
1045.0,0.011708658092512314
1044.0,0.011664044143949504
1043.0,0.011485634166333858
1042.0,0.011307297450183107
1041.0,0.011129033935354915
1040.0,0.011039929609661936
1039.0,0.010995384301463185
1038.0,0.010906307389674463
1037.0,0.010817248744452446
1036.0,0.010728208358306901
1035.0,0.010639186223752484
1034.0,0.010594681998483901
1033.0,0.010550182333308289
1032.0,0.01046119667949763
1031.0,0.01037222925484893
1030.0,0.010283280051895272
1029.0,0.010194349063173958
1028.0,0.010149890396819572
1027.0,0.010105436281226954
1026.0,0.010105436281226954
1025.0,0.010060986715464404
1024.0,0.010060986715464404
1023.0,0.010105436281226954
1022.0,0.010149890396819572
1021.0,0.01023881228122181
1020.0,0.010327752376126709
1019.0,0.01037222925484893
1018.0,0.010416710688994968
1017.0,0.01046119667949763
1016.0,0.01046119667949763
1015.0,0.01046119667949763
1014.0,0.010550182333308289
1013.0,0.010639186223752484
1012.0,0.010817248744452446
1011.0,0.011084479487313281
1010.0,0.011351874764248926
1009.0,0.011708658092512314
1008.0,0.01215504982870197
1007.0,0.012736045877764557
1006.0,0.013496984613259544
1005.0,0.01452861671041239
1004.0,0.01596801972881945
1003.0,0.017955020928509757
1002.0,0.020633757603838898
1001.0,0.024017056287453542
1000.0,0.027658283674251827
999.0,0.030770520137356927
998.0,0.03240522732811035
997.0,0.032124554451966825
996.0,0.030118356253500123
995.0,0.027056991894431892
994.0,0.023741750742954926
993.0,0.02081596632558158
992.0,0.018498511851753108
991.0,0.01677978535189717
990.0,0.015517693597737248
989.0,0.014618439768003144
988.0,0.013945219230304673
987.0,0.013541787262693505
986.0,0.013362604389846044
985.0,0.013362604389846044
984.0,0.013631406429727155
983.0,0.014124642691606404
982.0,0.015022873584506602
981.0,0.016373712875465518
980.0,0.01831727262871463
979.0,0.020952673052035298
978.0,0.024292536462819925
977.0,0.028214062120885508
976.0,0.03240522732811035
975.0,0.03630659476198117
974.0,0.03919637508823026
973.0,0.0402909757535701
972.0,0.03924390909822728
971.0,0.03625938114211591
970.0,0.03217132066984485
969.0,0.028028723600243666
968.0,0.024430342106337877
967.0,0.02168250325324883
966.0,0.019678413991243593
965.0,0.018136109008649592
964.0,0.016960383953898095
963.0,0.016058141016111804
962.0,0.01538268676325183
961.0,0.014798141635428141
960.0,0.014259258949925524
959.0,0.01381070026317599
958.0,0.013407393177789162
957.0,0.013093968619278806
956.0,0.012780770091995297
955.0,0.012512493866907004
954.0,0.012244383261476699
953.0,0.012021084124518078
952.0,0.011842527443247208
951.0,0.011753276624621556
950.0,0.011664044143949504
949.0,0.011619434777991433
948.0,0.011619434777991433
947.0,0.011664044143949504
946.0,0.011753276624621556
945.0,0.011931796607364653
944.0,0.012244383261476699
943.0,0.01260190086298274
942.0,0.012914970375878188
941.0,0.013093968619278806
940.0,0.013004460275618523
939.0,0.012780770091995297
938.0,0.012423105273012602
937.0,0.0119764380713403
936.0,0.011530229790124524
935.0,0.011129033935354915
934.0,0.010817248744452446
933.0,0.010505687227290839
932.0,0.010283280051895272
931.0,0.010105436281226954
930.0,0.009972101229705377
929.0,0.009883233932095559
928.0,0.009794384815193347
927.0,0.00974996707218323
926.0,0.009705553871561357
925.0,0.009705553871561357
924.0,0.009705553871561357
923.0,0.00974996707218323
922.0,0.00974996707218323
921.0,0.00974996707218323
920.0,0.009705553871561357
919.0,0.009705553871561357
918.0,0.00974996707218323
917.0,0.009838807101520963
916.0,0.009927665307847056
915.0,0.009972101229705377
914.0,0.009972101229705377
913.0,0.009972101229705377
912.0,0.010060986715464404
911.0,0.010194349063173958
910.0,0.010327752376126709
909.0,0.010505687227290839
908.0,0.01077272626946324
907.0,0.01117359295472431
906.0,0.011842527443247208
905.0,0.012870232340102872
904.0,0.014259258949925524
903.0,0.016013078034810446
902.0,0.017909760704207134
901.0,0.019723858922159776
900.0,0.021043834782408455
899.0,0.021545566634771474
898.0,0.021135015652343103
897.0,0.01990568621470623
896.0,0.018271974638383703
895.0,0.016509028184833463
894.0,0.015022873584506602
893.0,0.01385553528947936
892.0,0.012959713020733288
891.0,0.012378417874516323
890.0,0.011931796607364653
889.0,0.011619434777991433
888.0,0.011441043121384498
887.0,0.011307297450183107
886.0,0.011218156546359825
885.0,0.01117359295472431
884.0,0.01117359295472431
883.0,0.01117359295472431
882.0,0.01117359295472431
881.0,0.011039929609661936
880.0,0.010950843561779777
879.0,0.01086177578421088
878.0,0.01086177578421088
877.0,0.010950843561779777
876.0,0.010995384301463185
875.0,0.010950843561779777
874.0,0.01086177578421088
873.0,0.010817248744452446
872.0,0.01077272626946324
871.0,0.01086177578421088
870.0,0.010950843561779777
869.0,0.011039929609661936
868.0,0.011084479487313281
867.0,0.011129033935354915
866.0,0.01117359295472431
865.0,0.011262724711199823
864.0,0.011351874764248926
863.0,0.011485634166333858
862.0,0.011574829993696856
861.0,0.011664044143949504
860.0,0.011753276624621556
859.0,0.011797899741219142
858.0,0.011931796607364653
857.0,0.0119764380713403
856.0,0.012065734767841452
855.0,0.012199714248127602
854.0,0.012467797270160563
853.0,0.012736045877764557
852.0,0.013004460275618523
851.0,0.01322826573375524
850.0,0.013452186585275916
849.0,0.01381070026317599
848.0,0.014438812226654996
847.0,0.015427684378367834
846.0,0.017095882207371904
845.0,0.019769308608968306
844.0,0.023604163388120325
843.0,0.02798240132598462
842.0,0.03151705144606498
841.0,0.03263926003405038
840.0,0.03081714076773867
839.0,0.027056991894431892
838.0,0.02300845469384938
837.0,0.019860222254245663
836.0,0.01781925440359733
835.0,0.016644385668211692
834.0,0.015877917138889863
833.0,0.015427684378367834
832.0,0.015112798935672522
831.0,0.014753209197138295
830.0,0.014349026309051105
829.0,0.013945219230304673
828.0,0.013631406429727155
827.0,0.013452186585275916
826.0,0.013407393177789162
825.0,0.013496984613259544
824.0,0.013541787262693505
823.0,0.013541787262693505
822.0,0.013541787262693505
821.0,0.013541787262693505
820.0,0.013631406429727155
819.0,0.01381070026317599
818.0,0.014079779876432497
817.0,0.01452861671041239
816.0,0.015157768594724175
815.0,0.016148281008528276
814.0,0.017457417697056554
813.0,0.019133445417920836
812.0,0.0209982515252789
811.0,0.022688026603074007
810.0,0.023879381700184332
809.0,0.02438440203310499
808.0,0.024154774532432866
807.0,0.023237476732539397
806.0,0.021910826943857264
805.0,0.02045162529590483
804.0,0.019042683770379876
803.0,0.01781925440359733
802.0,0.016824927962187042
801.0,0.016058141016111804
800.0,0.015517693597737248
799.0,0.015067833932588037
798.0,0.014753209197138295
797.0,0.014393916947563534
796.0,0.014079779876432497
795.0,0.01372104409400876
794.0,0.013407393177789162
793.0,0.013138729709955221
792.0,0.012870232340102872
791.0,0.012557195064198723
790.0,0.012244383261476699
789.0,0.011931796607364653
788.0,0.011708658092512314
787.0,0.011619434777991433
786.0,0.011619434777991433
785.0,0.011574829993696856
784.0,0.011485634166333858
783.0,0.011307297450183107
782.0,0.011084479487313281
781.0,0.010817248744452446
780.0,0.010594681998483901
779.0,0.010416710688994968
778.0,0.01037222925484893
777.0,0.010327752376126709
776.0,0.010283280051895272
775.0,0.01023881228122181
774.0,0.010105436281226954
773.0,0.009883233932095559
772.0,0.009705553871561357
771.0,0.009705553871561357
770.0,0.009927665307847056
769.0,0.010194349063173958
768.0,0.010327752376126709
767.0,0.01037222925484893
766.0,0.010283280051895272
765.0,0.010194349063173958
764.0,0.010105436281226954
763.0,0.01001654169860089
762.0,0.009927665307847056
761.0,0.009838807101520963
760.0,0.00974996707218323
759.0,0.009616741093766423
758.0,0.009483555971770974
757.0,0.009350411681145587
756.0,0.009306039320248427
755.0,0.009350411681145587
754.0,0.009527946474380489
753.0,0.00966114521239847
752.0,0.009705553871561357
751.0,0.009616741093766423
750.0,0.009572341514736404
749.0,0.009572341514736404
748.0,0.009572341514736404
747.0,0.009572341514736404
746.0,0.009616741093766423
745.0,0.00966114521239847
744.0,0.009616741093766423
743.0,0.009572341514736404
742.0,0.009483555971770974
741.0,0.00939478857608056
740.0,0.009217308196862062
739.0,0.00908424549391551
738.0,0.00908424549391551
737.0,0.009217308196862062
736.0,0.009350411681145587
735.0,0.00939478857608056
734.0,0.00939478857608056
733.0,0.009439170005980158
732.0,0.009572341514736404
731.0,0.009794384815193347
730.0,0.009927665307847056
729.0,0.009972101229705377
728.0,0.009883233932095559
727.0,0.009794384815193347
726.0,0.009883233932095559
725.0,0.010060986715464404
724.0,0.01023881228122181
723.0,0.01023881228122181
722.0,0.010194349063173958
721.0,0.010149890396819572
720.0,0.010149890396819572
719.0,0.010194349063173958
718.0,0.010149890396819572
717.0,0.009972101229705377
716.0,0.009794384815193347
715.0,0.009572341514736404
714.0,0.009483555971770974
713.0,0.009483555971770974
712.0,0.00966114521239847
711.0,0.009972101229705377
710.0,0.010505687227290839
709.0,0.010906307389674463
708.0,0.010950843561779777
707.0,0.010594681998483901
706.0,0.010283280051895272
705.0,0.01023881228122181
704.0,0.01046119667949763
703.0,0.010728208358306901
702.0,0.01086177578421088
701.0,0.010906307389674463
700.0,0.010728208358306901
699.0,0.010283280051895272
698.0,0.00966114521239847
697.0,0.009039900317800775
696.0,0.008640997362049818
695.0,0.00850811108984062
694.0,0.008596697419959609
693.0,0.008995559669244813
692.0,0.009794384815193347
691.0,0.010817248744452446
690.0,0.011530229790124524
689.0,0.011396456654336085
688.0,0.01046119667949763
687.0,0.009306039320248427
686.0,0.008463824699968647
685.0,0.008242460465651913
684.0,0.008375265465994541
683.0,0.008640997362049818
682.0,0.008951223547323472
681.0,0.00939478857608056
680.0,0.010060986715464404
679.0,0.010728208358306901
678.0,0.011039929609661936
677.0,0.010683695010048622
676.0,0.009838807101520963
675.0,0.00908424549391551
674.0,0.008818242332126802
673.0,0.00908424549391551
672.0,0.00939478857608056
671.0,0.009261671492462709
670.0,0.008330992620051436
669.0,0.006916639301937977
668.0,0.00590291041179003
667.0,0.006299305179649828
666.0,0.0074464821678643656
665.0,0.008198201155356077
664.0,0.00850811108984062
663.0,0.008773924307505121
662.0,0.009439170005980158
661.0,0.010149890396819572
660.0,0.01046119667949763
659.0,0.010105436281226954
658.0,0.009439170005980158
657.0,0.008818242332126802
656.0,0.00850811108984062
655.0,0.008640997362049818
654.0,0.009128595198514056
653.0,0.009883233932095559
652.0,0.010550182333308289
651.0,0.010817248744452446
650.0,0.010639186223752484
649.0,0.01023881228122181
648.0,0.009927665307847056
647.0,0.009794384815193347
646.0,0.00966114521239847
645.0,0.009306039320248427
644.0,0.008818242332126802
643.0,0.008552401996197112
642.0,0.008818242332126802
641.0,0.009572341514736404
640.0,0.010505687227290839
639.0,0.011218156546359825
638.0,0.011530229790124524
637.0,0.011396456654336085
636.0,0.011218156546359825
635.0,0.011262724711199823
634.0,0.011708658092512314
633.0,0.012065734767841452
632.0,0.0119764380713403
631.0,0.011307297450183107
630.0,0.01046119667949763
629.0,0.009705553871561357
628.0,0.009172949432521227
627.0,0.008862564879688284
626.0,0.0087296108049002
625.0,0.0087296108049002
624.0,0.008906891951112605
623.0,0.009306039320248427
622.0,0.009883233932095559
621.0,0.01037222925484893
620.0,0.010639186223752484
619.0,0.01077272626946324
618.0,0.010817248744452446
617.0,0.010594681998483901
616.0,0.01001654169860089
615.0,0.009483555971770974
614.0,0.009527946474380489
613.0,0.010149890396819572
612.0,0.010817248744452446
611.0,0.011039929609661936
610.0,0.010728208358306901
609.0,0.010060986715464404
608.0,0.00939478857608056
607.0,0.008951223547323472
606.0,0.009039900317800775
605.0,0.009794384815193347
604.0,0.011084479487313281
603.0,0.012557195064198723
602.0,0.01385553528947936
601.0,0.014708281407112
600.0,0.015157768594724175
