cm-1,A
4000.0,0.0089
3999.0,0.0089
3998.0,0.0089
3997.0,0.0089
3996.0,0.0089
3995.0,0.0089
3994.0,0.009
3993.0,0.009
3992.0,0.0091
3991.0,0.0091
3990.0,0.0091
3989.0,0.0091
3988.0,0.0091
3987.0,0.0091
3986.0,0.0092
3985.0,0.0092
3984.0,0.0092
3983.0,0.0092
3982.0,0.0091
3981.0,0.009
3980.0,0.009
3979.0,0.009
3978.0,0.009
3977.0,0.009
3976.0,0.009
3975.0,0.009
3974.0,0.009
3973.0,0.0089
3972.0,0.0089
3971.0,0.0089
3970.0,0.009
3969.0,0.009
3968.0,0.009
3967.0,0.009
3966.0,0.0089
3965.0,0.0089
3964.0,0.0088
3963.0,0.0088
3962.0,0.0089
3961.0,0.0089
3960.0,0.009
3959.0,0.009
3958.0,0.009
3957.0,0.009
3956.0,0.0089
3955.0,0.0089
3954.0,0.0089
3953.0,0.0089
3952.0,0.0089
3951.0,0.0089
3950.0,0.009
3949.0,0.009
3948.0,0.009
3947.0,0.009
3946.0,0.0091
3945.0,0.0092
3944.0,0.0093
3943.0,0.0092
3942.0,0.0092
3941.0,0.0091
3940.0,0.009
3939.0,0.009
3938.0,0.009
3937.0,0.0091
3936.0,0.0091
3935.0,0.0091
3934.0,0.009
3933.0,0.0089
3932.0,0.009
3931.0,0.0091
3930.0,0.0092
3929.0,0.0093
3928.0,0.0094
3927.0,0.0094
3926.0,0.0095
3925.0,0.0095
3924.0,0.0095
3923.0,0.0095
3922.0,0.0094
3921.0,0.0094
3920.0,0.0093
3919.0,0.0093
3918.0,0.0093
3917.0,0.0093
3916.0,0.0092
3915.0,0.0093
3914.0,0.0093
3913.0,0.0093
3912.0,0.0093
3911.0,0.0093
3910.0,0.0092
3909.0,0.0092
3908.0,0.0093
3907.0,0.0094
3906.0,0.0094
3905.0,0.0094
3904.0,0.0093
3903.0,0.0092
3902.0,0.0092
3901.0,0.0091
3900.0,0.0091
3899.0,0.009
3898.0,0.009
3897.0,0.0091
3896.0,0.0091
3895.0,0.0092
3894.0,0.0093
3893.0,0.0092
3892.0,0.0091
3891.0,0.0091
3890.0,0.0091
3889.0,0.0092
3888.0,0.0094
3887.0,0.0095
3886.0,0.0096
3885.0,0.0097
3884.0,0.0098
3883.0,0.0098
3882.0,0.0096
3881.0,0.0094
3880.0,0.0093
3879.0,0.0093
3878.0,0.0095
3877.0,0.0096
3876.0,0.0095
3875.0,0.0094
3874.0,0.0093
3873.0,0.0093
3872.0,0.0094
3871.0,0.0094
3870.0,0.0094
3869.0,0.0094
3868.0,0.0095
3867.0,0.0095
3866.0,0.0095
3865.0,0.0094
3864.0,0.0095
3863.0,0.0096
3862.0,0.0096
3861.0,0.0096
3860.0,0.0095
3859.0,0.0094
3858.0,0.0094
3857.0,0.0093
3856.0,0.0093
3855.0,0.0091
3854.0,0.009
3853.0,0.0091
3852.0,0.0092
3851.0,0.0094
3850.0,0.0095
3849.0,0.0096
3848.0,0.0097
3847.0,0.0098
3846.0,0.0099
3845.0,0.0099
3844.0,0.0098
3843.0,0.0096
3842.0,0.0096
3841.0,0.0095
3840.0,0.0096
3839.0,0.0096
3838.0,0.0096
3837.0,0.0096
3836.0,0.0096
3835.0,0.0096
3834.0,0.0097
3833.0,0.0097
3832.0,0.0097
3831.0,0.0098
3830.0,0.0098
3829.0,0.0099
3828.0,0.0099
3827.0,0.0098
3826.0,0.0097
3825.0,0.0098
3824.0,0.0099
3823.0,0.01
3822.0,0.0099
3821.0,0.0098
3820.0,0.0098
3819.0,0.0098
3818.0,0.0098
3817.0,0.0097
3816.0,0.0096
3815.0,0.0096
3814.0,0.0097
3813.0,0.0097
3812.0,0.0097
3811.0,0.0097
3810.0,0.0098
3809.0,0.01
3808.0,0.01
3807.0,0.01
3806.0,0.0101
3805.0,0.0103
3804.0,0.0105
3803.0,0.0104
3802.0,0.0101
3801.0,0.0099
3800.0,0.0098
3799.0,0.0098
3798.0,0.0098
3797.0,0.0098
3796.0,0.0098
3795.0,0.0098
3794.0,0.0099
3793.0,0.0099
3792.0,0.0099
3791.0,0.01
3790.0,0.01
3789.0,0.0101
3788.0,0.0101
3787.0,0.0101
3786.0,0.01
3785.0,0.01
3784.0,0.01
3783.0,0.01
3782.0,0.01
3781.0,0.0099
3780.0,0.0098
3779.0,0.0097
3778.0,0.0097
3777.0,0.0098
3776.0,0.0098
3775.0,0.0099
3774.0,0.0099
3773.0,0.01
3772.0,0.0101
3771.0,0.0101
3770.0,0.01
3769.0,0.0101
3768.0,0.0101
3767.0,0.0101
3766.0,0.0101
3765.0,0.0101
3764.0,0.0101
3763.0,0.0102
3762.0,0.0102
3761.0,0.0101
3760.0,0.0101
3759.0,0.01
3758.0,0.0099
3757.0,0.01
3756.0,0.01
3755.0,0.0102
3754.0,0.0103
3753.0,0.0102
3752.0,0.0101
3751.0,0.0099
3750.0,0.0098
3749.0,0.0097
3748.0,0.0097
3747.0,0.0097
3746.0,0.0097
3745.0,0.0095
3744.0,0.0094
3743.0,0.0095
3742.0,0.0096
3741.0,0.0096
3740.0,0.0094
3739.0,0.0093
3738.0,0.0093
3737.0,0.0093
3736.0,0.0094
3735.0,0.0096
3734.0,0.0098
3733.0,0.0097
3732.0,0.0096
3731.0,0.0094
3730.0,0.0094
3729.0,0.0095
3728.0,0.0095
3727.0,0.0096
3726.0,0.0097
3725.0,0.0098
3724.0,0.0098
3723.0,0.0099
3722.0,0.0099
3721.0,0.01
3720.0,0.01
3719.0,0.01
3718.0,0.01
3717.0,0.0101
3716.0,0.0102
3715.0,0.0104
3714.0,0.0104
3713.0,0.0102
3712.0,0.0099
3711.0,0.0097
3710.0,0.0096
3709.0,0.0096
3708.0,0.0096
3707.0,0.0096
3706.0,0.0096
3705.0,0.0097
3704.0,0.0098
3703.0,0.01
3702.0,0.0101
3701.0,0.0101
3700.0,0.0101
3699.0,0.0101
3698.0,0.01
3697.0,0.01
3696.0,0.0099
3695.0,0.0099
3694.0,0.0099
3693.0,0.0099
3692.0,0.0101
3691.0,0.0103
3690.0,0.0104
3689.0,0.0104
3688.0,0.0102
3687.0,0.0101
3686.0,0.0101
3685.0,0.0102
3684.0,0.0103
3683.0,0.0104
3682.0,0.0105
3681.0,0.0105
3680.0,0.0104
3679.0,0.0104
3678.0,0.0106
3677.0,0.0107
3676.0,0.0108
3675.0,0.0109
3674.0,0.0109
3673.0,0.0111
3672.0,0.0111
3671.0,0.0109
3670.0,0.0108
3669.0,0.0107
3668.0,0.0107
3667.0,0.0107
3666.0,0.0108
3665.0,0.0108
3664.0,0.0109
3663.0,0.011
3662.0,0.011
3661.0,0.011
3660.0,0.011
3659.0,0.0109
3658.0,0.011
3657.0,0.0111
3656.0,0.0112
3655.0,0.0113
3654.0,0.0114
3653.0,0.0114
3652.0,0.0113
3651.0,0.0112
3650.0,0.0112
3649.0,0.0116
3648.0,0.0118
3647.0,0.0118
3646.0,0.0116
3645.0,0.0115
3644.0,0.0114
3643.0,0.0114
3642.0,0.0114
3641.0,0.0115
3640.0,0.0116
3639.0,0.0116
3638.0,0.0116
3637.0,0.0116
3636.0,0.0116
3635.0,0.0116
3634.0,0.0115
3633.0,0.0115
3632.0,0.0116
3631.0,0.0116
3630.0,0.0116
3629.0,0.0117
3628.0,0.0119
3627.0,0.012
3626.0,0.0121
3625.0,0.0121
3624.0,0.0121
3623.0,0.0122
3622.0,0.0124
3621.0,0.0126
3620.0,0.0126
3619.0,0.0125
3618.0,0.0124
3617.0,0.0124
3616.0,0.0125
3615.0,0.0126
3614.0,0.0127
3613.0,0.0129
3612.0,0.013
3611.0,0.013
3610.0,0.0129
3609.0,0.0127
3608.0,0.0127
3607.0,0.0129
3606.0,0.0131
3605.0,0.0133
3604.0,0.0134
3603.0,0.0134
3602.0,0.0134
3601.0,0.0134
3600.0,0.0135
3599.0,0.0137
3598.0,0.0137
3597.0,0.0137
3596.0,0.0136
3595.0,0.0135
3594.0,0.0136
3593.0,0.0136
3592.0,0.0137
3591.0,0.0139
3590.0,0.0141
3589.0,0.0143
3588.0,0.0146
3587.0,0.0147
3586.0,0.0148
3585.0,0.0148
3584.0,0.0147
3583.0,0.0147
3582.0,0.0147
3581.0,0.0148
3580.0,0.015
3579.0,0.0151
3578.0,0.0152
3577.0,0.0153
3576.0,0.0154
3575.0,0.0154
3574.0,0.0154
3573.0,0.0154
3572.0,0.0155
3571.0,0.0156
3570.0,0.0158
3569.0,0.016
3568.0,0.0162
3567.0,0.0164
3566.0,0.0163
3565.0,0.0162
3564.0,0.0161
3563.0,0.0161
3562.0,0.0161
3561.0,0.0161
3560.0,0.0161
3559.0,0.0162
3558.0,0.0163
3557.0,0.0164
3556.0,0.0165
3555.0,0.0167
3554.0,0.0168
3553.0,0.0168
3552.0,0.0168
3551.0,0.0168
3550.0,0.0167
3549.0,0.0167
3548.0,0.0168
3547.0,0.017
3546.0,0.0173
3545.0,0.0175
3544.0,0.0175
3543.0,0.0175
3542.0,0.0175
3541.0,0.0175
3540.0,0.0174
3539.0,0.0174
3538.0,0.0175
3537.0,0.0175
3536.0,0.0176
3535.0,0.0177
3534.0,0.0178
3533.0,0.018
3532.0,0.0181
3531.0,0.0181
3530.0,0.0181
3529.0,0.0181
3528.0,0.0181
3527.0,0.0182
3526.0,0.0183
3525.0,0.0184
3524.0,0.0185
3523.0,0.0186
3522.0,0.0186
3521.0,0.0186
3520.0,0.0187
3519.0,0.0187
3518.0,0.0188
3517.0,0.0189
3516.0,0.019
3515.0,0.019
3514.0,0.019
3513.0,0.019
3512.0,0.0191
3511.0,0.0192
3510.0,0.0192
3509.0,0.0193
3508.0,0.0193
3507.0,0.0193
3506.0,0.0194
3505.0,0.0195
3504.0,0.0196
3503.0,0.0197
3502.0,0.0198
3501.0,0.0198
3500.0,0.0199
3499.0,0.0199
3498.0,0.02
3497.0,0.0201
3496.0,0.0202
3495.0,0.0203
3494.0,0.0203
3493.0,0.0202
3492.0,0.0202
3491.0,0.0203
3490.0,0.0203
3489.0,0.0203
3488.0,0.0203
3487.0,0.0204
3486.0,0.0205
3485.0,0.0206
3484.0,0.0208
3483.0,0.0209
3482.0,0.021
3481.0,0.021
3480.0,0.0211
3479.0,0.0211
3478.0,0.021
3477.0,0.0209
3476.0,0.0209
3475.0,0.021
3474.0,0.0212
3473.0,0.0214
3472.0,0.0216
3471.0,0.0216
3470.0,0.0216
3469.0,0.0216
3468.0,0.0215
3467.0,0.0216
3466.0,0.0217
3465.0,0.0219
3464.0,0.0221
3463.0,0.0222
3462.0,0.0222
3461.0,0.0221
3460.0,0.022
3459.0,0.0219
3458.0,0.0219
3457.0,0.0219
3456.0,0.0221
3455.0,0.0222
3454.0,0.0224
3453.0,0.0225
3452.0,0.0226
3451.0,0.0226
3450.0,0.0226
3449.0,0.0226
3448.0,0.0227
3447.0,0.0228
3446.0,0.0229
3445.0,0.023
3444.0,0.0231
3443.0,0.0231
3442.0,0.0231
3441.0,0.0232
3440.0,0.0232
3439.0,0.0232
3438.0,0.0232
3437.0,0.0232
3436.0,0.0231
3435.0,0.0231
3434.0,0.0231
3433.0,0.0232
3432.0,0.0232
3431.0,0.0233
3430.0,0.0233
3429.0,0.0234
3428.0,0.0235
3427.0,0.0236
3426.0,0.0237
3425.0,0.0237
3424.0,0.0238
3423.0,0.0238
3422.0,0.0238
3421.0,0.0237
3420.0,0.0237
3419.0,0.0237
3418.0,0.0236
3417.0,0.0236
3416.0,0.0237
3415.0,0.0238
3414.0,0.0239
3413.0,0.024
3412.0,0.024
3411.0,0.024
3410.0,0.024
3409.0,0.0239
3408.0,0.0239
3407.0,0.0238
3406.0,0.0238
3405.0,0.0238
3404.0,0.0238
3403.0,0.0238
3402.0,0.024
3401.0,0.0242
3400.0,0.0243
3399.0,0.0244
3398.0,0.0243
3397.0,0.0242
3396.0,0.0242
3395.0,0.0242
3394.0,0.0242
3393.0,0.0242
3392.0,0.0242
3391.0,0.0242
3390.0,0.0241
3389.0,0.024
3388.0,0.0239
3387.0,0.0239
3386.0,0.0239
3385.0,0.0239
3384.0,0.0239
3383.0,0.0239
3382.0,0.0239
3381.0,0.0239
3380.0,0.0239
3379.0,0.024
3378.0,0.0241
3377.0,0.0242
3376.0,0.0242
3375.0,0.0241
3374.0,0.024
3373.0,0.024
3372.0,0.024
3371.0,0.024
3370.0,0.024
3369.0,0.024
3368.0,0.0239
3367.0,0.0239
3366.0,0.0239
3365.0,0.0239
3364.0,0.024
3363.0,0.024
3362.0,0.024
3361.0,0.024
3360.0,0.0239
3359.0,0.0237
3358.0,0.0237
3357.0,0.0236
3356.0,0.0236
3355.0,0.0236
3354.0,0.0236
3353.0,0.0236
3352.0,0.0236
3351.0,0.0236
3350.0,0.0236
3349.0,0.0236
3348.0,0.0235
3347.0,0.0235
3346.0,0.0234
3345.0,0.0234
3344.0,0.0234
3343.0,0.0233
3342.0,0.0233
3341.0,0.0233
3340.0,0.0232
3339.0,0.0231
3338.0,0.023
3337.0,0.0228
3336.0,0.0228
3335.0,0.0228
3334.0,0.0227
3333.0,0.0227
3332.0,0.0227
3331.0,0.0226
3330.0,0.0226
3329.0,0.0227
3328.0,0.0227
3327.0,0.0228
3326.0,0.0228
3325.0,0.0227
3324.0,0.0225
3323.0,0.0224
3322.0,0.0223
3321.0,0.0222
3320.0,0.0222
3319.0,0.0221
3318.0,0.0221
3317.0,0.0221
3316.0,0.0221
3315.0,0.0221
3314.0,0.022
3313.0,0.022
3312.0,0.0219
3311.0,0.0218
3310.0,0.0217
3309.0,0.0217
3308.0,0.0217
3307.0,0.0216
3306.0,0.0215
3305.0,0.0214
3304.0,0.0213
3303.0,0.0213
3302.0,0.0214
3301.0,0.0214
3300.0,0.0215
3299.0,0.0214
3298.0,0.0213
3297.0,0.0212
3296.0,0.0211
3295.0,0.021
3294.0,0.0209
3293.0,0.0209
3292.0,0.0209
3291.0,0.0209
3290.0,0.0208
3289.0,0.0207
3288.0,0.0205
3287.0,0.0204
3286.0,0.0203
3285.0,0.0204
3284.0,0.0204
3283.0,0.0205
3282.0,0.0206
3281.0,0.0206
3280.0,0.0206
3279.0,0.0206
3278.0,0.0205
3277.0,0.0205
3276.0,0.0205
3275.0,0.0204
3274.0,0.0203
3273.0,0.0202
3272.0,0.0202
3271.0,0.0202
3270.0,0.0203
3269.0,0.0203
3268.0,0.0203
3267.0,0.0204
3266.0,0.0204
3265.0,0.0203
3264.0,0.0201
3263.0,0.02
3262.0,0.0199
3261.0,0.0199
3260.0,0.02
3259.0,0.0199
3258.0,0.0199
3257.0,0.0197
3256.0,0.0196
3255.0,0.0195
3254.0,0.0195
3253.0,0.0194
3252.0,0.0194
3251.0,0.0193
3250.0,0.0193
3249.0,0.0193
3248.0,0.0193
3247.0,0.0193
3246.0,0.0193
3245.0,0.0194
3244.0,0.0194
3243.0,0.0194
3242.0,0.0193
3241.0,0.0192
3240.0,0.0192
3239.0,0.0192
3238.0,0.0192
3237.0,0.0191
3236.0,0.0191
3235.0,0.019
3234.0,0.0188
3233.0,0.0187
3232.0,0.0187
3231.0,0.0187
3230.0,0.0186
3229.0,0.0186
3228.0,0.0186
3227.0,0.0185
3226.0,0.0185
3225.0,0.0185
3224.0,0.0185
3223.0,0.0184
3222.0,0.0183
3221.0,0.0183
3220.0,0.0183
3219.0,0.0184
3218.0,0.0184
3217.0,0.0184
3216.0,0.0182
3215.0,0.018
3214.0,0.0177
3213.0,0.0175
3212.0,0.0175
3211.0,0.0175
3210.0,0.0176
3209.0,0.0178
3208.0,0.018
3207.0,0.018
3206.0,0.018
3205.0,0.0178
3204.0,0.0176
3203.0,0.0175
3202.0,0.0175
3201.0,0.0175
3200.0,0.0175
3199.0,0.0174
3198.0,0.0173
3197.0,0.0171
3196.0,0.017
3195.0,0.0169
3194.0,0.0168
3193.0,0.0169
3192.0,0.0169
3191.0,0.0169
3190.0,0.0169
3189.0,0.0169
3188.0,0.0169
3187.0,0.0169
3186.0,0.0168
3185.0,0.0167
3184.0,0.0166
3183.0,0.0165
3182.0,0.0165
3181.0,0.0165
3180.0,0.0165
3179.0,0.0164
3178.0,0.0163
3177.0,0.0161
3176.0,0.016
3175.0,0.0158
3174.0,0.0157
3173.0,0.0157
3172.0,0.0156
3171.0,0.0156
3170.0,0.0156
3169.0,0.0156
3168.0,0.0156
3167.0,0.0156
3166.0,0.0155
3165.0,0.0154
3164.0,0.0152
3163.0,0.0152
3162.0,0.0152
3161.0,0.0152
3160.0,0.0152
3159.0,0.0151
3158.0,0.015
3157.0,0.015
3156.0,0.0149
3155.0,0.0149
3154.0,0.0148
3153.0,0.0148
3152.0,0.0148
3151.0,0.0148
3150.0,0.0148
3149.0,0.0147
3148.0,0.0147
3147.0,0.0146
3146.0,0.0145
3145.0,0.0144
3144.0,0.0143
3143.0,0.0143
3142.0,0.0142
3141.0,0.0142
3140.0,0.0142
3139.0,0.0141
3138.0,0.0141
3137.0,0.0141
3136.0,0.0142
3135.0,0.0142
3134.0,0.0141
3133.0,0.014
3132.0,0.0138
3131.0,0.0136
3130.0,0.0136
3129.0,0.0137
3128.0,0.0137
3127.0,0.0136
3126.0,0.0134
3125.0,0.0132
3124.0,0.013
3123.0,0.0129
3122.0,0.0128
3121.0,0.0129
3120.0,0.0129
3119.0,0.0129
3118.0,0.0129
3117.0,0.0129
3116.0,0.0128
3115.0,0.0127
3114.0,0.0126
3113.0,0.0124
3112.0,0.0124
3111.0,0.0124
3110.0,0.0125
3109.0,0.0126
3108.0,0.0127
3107.0,0.0127
3106.0,0.0126
3105.0,0.0124
3104.0,0.0123
3103.0,0.0122
3102.0,0.0122
3101.0,0.0123
3100.0,0.0123
3099.0,0.0124
3098.0,0.0123
3097.0,0.0121
3096.0,0.0119
3095.0,0.0118
3094.0,0.0118
3093.0,0.0118
3092.0,0.0118
3091.0,0.0117
3090.0,0.0117
3089.0,0.0116
3088.0,0.0115
3087.0,0.0115
3086.0,0.0115
3085.0,0.0114
3084.0,0.0113
3083.0,0.0112
3082.0,0.0111
3081.0,0.0111
3080.0,0.0112
3079.0,0.0113
3078.0,0.0113
3077.0,0.0112
3076.0,0.0112
3075.0,0.0111
3074.0,0.011
3073.0,0.0109
3072.0,0.0108
3071.0,0.0108
3070.0,0.0108
3069.0,0.0108
3068.0,0.0108
3067.0,0.0108
3066.0,0.0108
3065.0,0.0108
3064.0,0.0108
3063.0,0.0107
3062.0,0.0106
3061.0,0.0105
3060.0,0.0104
3059.0,0.0104
3058.0,0.0103
3057.0,0.0102
3056.0,0.0101
3055.0,0.01
3054.0,0.01
3053.0,0.0099
3052.0,0.0099
3051.0,0.0099
3050.0,0.0098
3049.0,0.0097
3048.0,0.0096
3047.0,0.0095
3046.0,0.0095
3045.0,0.0095
3044.0,0.0096
3043.0,0.0096
3042.0,0.0095
3041.0,0.0094
3040.0,0.0093
3039.0,0.0092
3038.0,0.0092
3037.0,0.0092
3036.0,0.0092
3035.0,0.0092
3034.0,0.0092
3033.0,0.0092
3032.0,0.0092
3031.0,0.0091
3030.0,0.0091
3029.0,0.009
3028.0,0.009
3027.0,0.009
3026.0,0.009
3025.0,0.0089
3024.0,0.0089
3023.0,0.0089
3022.0,0.0088
3021.0,0.0087
3020.0,0.0087
3019.0,0.0086
3018.0,0.0085
3017.0,0.0084
3016.0,0.0083
3015.0,0.0082
3014.0,0.0081
3013.0,0.0081
3012.0,0.0081
3011.0,0.0081
3010.0,0.008
3009.0,0.008
3008.0,0.008
3007.0,0.008
3006.0,0.008
3005.0,0.008
3004.0,0.0079
3003.0,0.0079
3002.0,0.0079
3001.0,0.0079
3000.0,0.0079
2999.0,0.0079
2998.0,0.0079
2997.0,0.0079
2996.0,0.008
2995.0,0.0081
2994.0,0.0082
2993.0,0.0084
2992.0,0.0087
2991.0,0.0089
2990.0,0.0091
2989.0,0.0093
2988.0,0.0095
2987.0,0.0098
2986.0,0.0101
2985.0,0.0105
2984.0,0.011
2983.0,0.0117
2982.0,0.0124
2981.0,0.0132
2980.0,0.0143
2979.0,0.0155
2978.0,0.0169
2977.0,0.0186
2976.0,0.0205
2975.0,0.0227
2974.0,0.0252
2973.0,0.0282
2972.0,0.0315
2971.0,0.0353
2970.0,0.0395
2969.0,0.044
2968.0,0.0489
2967.0,0.0541
2966.0,0.0595
2965.0,0.0649
2964.0,0.0701
2963.0,0.0745
2962.0,0.0778
2961.0,0.08
2960.0,0.0811
2959.0,0.0816
2958.0,0.0823
2957.0,0.0835
2956.0,0.0857
2955.0,0.0888
2954.0,0.0927
2953.0,0.0966
2952.0,0.0998
2951.0,0.1015
2950.0,0.1013
2949.0,0.099
2948.0,0.0949
2947.0,0.0894
2946.0,0.0832
2945.0,0.0768
2944.0,0.0708
2943.0,0.0656
2942.0,0.0614
2941.0,0.0584
2940.0,0.0565
2939.0,0.0555
2938.0,0.0555
2937.0,0.0562
2936.0,0.0578
2935.0,0.0602
2934.0,0.0634
2933.0,0.0673
2932.0,0.0718
2931.0,0.0768
2930.0,0.0822
2929.0,0.0877
2928.0,0.0932
2927.0,0.0987
2926.0,0.1041
2925.0,0.1094
2924.0,0.1146
2923.0,0.1199
2922.0,0.125
2921.0,0.1298
2920.0,0.1338
2919.0,0.1364
2918.0,0.1372
2917.0,0.1359
2916.0,0.1328
2915.0,0.1286
2914.0,0.1238
2913.0,0.1192
2912.0,0.115
2911.0,0.1114
2910.0,0.1084
2909.0,0.1058
2908.0,0.1033
2907.0,0.1009
2906.0,0.0985
2905.0,0.0958
2904.0,0.093
2903.0,0.0901
2902.0,0.0871
2901.0,0.0843
2900.0,0.0815
2899.0,0.079
2898.0,0.0766
2897.0,0.0744
2896.0,0.0724
2895.0,0.0706
2894.0,0.0691
2893.0,0.0679
2892.0,0.0669
2891.0,0.0662
2890.0,0.0657
2889.0,0.0654
2888.0,0.0652
2887.0,0.0651
2886.0,0.0652
2885.0,0.0655
2884.0,0.066
2883.0,0.0666
2882.0,0.0673
2881.0,0.068
2880.0,0.0686
2879.0,0.069
2878.0,0.069
2877.0,0.0688
2876.0,0.0684
2875.0,0.0681
2874.0,0.068
2873.0,0.0682
2872.0,0.0689
2871.0,0.0698
2870.0,0.0708
2869.0,0.0718
2868.0,0.0724
2867.0,0.0722
2866.0,0.0711
2865.0,0.0688
2864.0,0.0657
2863.0,0.0621
2862.0,0.0585
2861.0,0.0552
2860.0,0.0525
2859.0,0.0505
2858.0,0.0491
2857.0,0.0484
2856.0,0.0484
2855.0,0.0488
2854.0,0.0498
2853.0,0.051
2852.0,0.0524
2851.0,0.0538
2850.0,0.0549
2849.0,0.0559
2848.0,0.0568
2847.0,0.058
2846.0,0.0595
2845.0,0.0616
2844.0,0.0642
2843.0,0.0671
2842.0,0.0699
2841.0,0.0723
2840.0,0.0739
2839.0,0.0745
2838.0,0.0739
2837.0,0.0721
2836.0,0.0692
2835.0,0.0655
2834.0,0.0613
2833.0,0.0572
2832.0,0.0533
2831.0,0.0498
2830.0,0.0469
2829.0,0.0444
2828.0,0.0424
2827.0,0.0407
2826.0,0.0393
2825.0,0.038
2824.0,0.0369
2823.0,0.0359
2822.0,0.035
2821.0,0.0343
2820.0,0.0336
2819.0,0.0331
2818.0,0.0325
2817.0,0.0319
2816.0,0.0314
2815.0,0.0309
2814.0,0.0306
2813.0,0.0303
2812.0,0.03
2811.0,0.0297
2810.0,0.0293
2809.0,0.0289
2808.0,0.0285
2807.0,0.0281
2806.0,0.0278
2805.0,0.0276
2804.0,0.0273
2803.0,0.027
2802.0,0.0267
2801.0,0.0264
2800.0,0.0261
2799.0,0.0258
2798.0,0.0256
2797.0,0.0253
2796.0,0.0251
2795.0,0.0249
2794.0,0.0248
2793.0,0.0246
2792.0,0.0244
2791.0,0.0243
2790.0,0.0241
2789.0,0.024
2788.0,0.0237
2787.0,0.0235
2786.0,0.0232
2785.0,0.023
2784.0,0.0227
2783.0,0.0226
2782.0,0.0224
2781.0,0.0223
2780.0,0.0222
2779.0,0.0221
2778.0,0.022
2777.0,0.0218
2776.0,0.0216
2775.0,0.0214
2774.0,0.0213
2773.0,0.0213
2772.0,0.0213
2771.0,0.0213
2770.0,0.0211
2769.0,0.0209
2768.0,0.0208
2767.0,0.0207
2766.0,0.0207
2765.0,0.0207
2764.0,0.0206
2763.0,0.0206
2762.0,0.0205
2761.0,0.0205
2760.0,0.0204
2759.0,0.0203
2758.0,0.0202
2757.0,0.0201
2756.0,0.0201
2755.0,0.02
2754.0,0.02
2753.0,0.0199
2752.0,0.0198
2751.0,0.0198
2750.0,0.0197
2749.0,0.0197
2748.0,0.0197
2747.0,0.0196
2746.0,0.0196
2745.0,0.0196
2744.0,0.0195
2743.0,0.0194
2742.0,0.0194
2741.0,0.0195
2740.0,0.0196
2739.0,0.0197
2738.0,0.0198
2737.0,0.0198
2736.0,0.0198
2735.0,0.0199
2734.0,0.02
2733.0,0.0201
2732.0,0.0202
2731.0,0.0202
2730.0,0.0202
2729.0,0.0203
2728.0,0.0204
2727.0,0.0205
2726.0,0.0206
2725.0,0.0207
2724.0,0.0208
2723.0,0.0208
2722.0,0.0208
2721.0,0.0208
2720.0,0.0208
2719.0,0.0206
2718.0,0.0204
2717.0,0.0202
2716.0,0.0199
2715.0,0.0197
2714.0,0.0196
2713.0,0.0195
2712.0,0.0194
2711.0,0.0194
2710.0,0.0193
2709.0,0.0192
2708.0,0.0191
2707.0,0.019
2706.0,0.0189
2705.0,0.0189
2704.0,0.0188
2703.0,0.0188
2702.0,0.0187
2701.0,0.0186
2700.0,0.0186
2699.0,0.0185
2698.0,0.0185
2697.0,0.0185
2696.0,0.0186
2695.0,0.0186
2694.0,0.0185
2693.0,0.0184
2692.0,0.0183
2691.0,0.0182
2690.0,0.0182
2689.0,0.0183
2688.0,0.0184
2687.0,0.0184
2686.0,0.0184
2685.0,0.0184
2684.0,0.0184
2683.0,0.0184
2682.0,0.0184
2681.0,0.0184
2680.0,0.0183
2679.0,0.0183
2678.0,0.0183
2677.0,0.0183
2676.0,0.0182
2675.0,0.0182
2674.0,0.0181
2673.0,0.0181
2672.0,0.0181
2671.0,0.0181
2670.0,0.0181
2669.0,0.0181
2668.0,0.0181
2667.0,0.018
2666.0,0.018
2665.0,0.018
2664.0,0.0181
2663.0,0.0181
2662.0,0.018
2661.0,0.0179
2660.0,0.0179
2659.0,0.0178
2658.0,0.0178
2657.0,0.0178
2656.0,0.0178
2655.0,0.0178
2654.0,0.0178
2653.0,0.0178
2652.0,0.0178
2651.0,0.0177
2650.0,0.0177
2649.0,0.0177
2648.0,0.0176
2647.0,0.0176
2646.0,0.0175
2645.0,0.0175
2644.0,0.0174
2643.0,0.0174
2642.0,0.0174
2641.0,0.0174
2640.0,0.0173
2639.0,0.0173
2638.0,0.0172
2637.0,0.0171
2636.0,0.0171
2635.0,0.0172
2634.0,0.0172
2633.0,0.0172
2632.0,0.0172
2631.0,0.0172
2630.0,0.0172
2629.0,0.0172
2628.0,0.0172
2627.0,0.0172
2626.0,0.0172
2625.0,0.0173
2624.0,0.0173
2623.0,0.0173
2622.0,0.0173
2621.0,0.0173
2620.0,0.0173
2619.0,0.0173
2618.0,0.0173
2617.0,0.0173
2616.0,0.0173
2615.0,0.0173
2614.0,0.0173
2613.0,0.0173
2612.0,0.0173
2611.0,0.0172
2610.0,0.0172
2609.0,0.0172
2608.0,0.0172
2607.0,0.0172
2606.0,0.0171
2605.0,0.017
2604.0,0.0169
2603.0,0.0168
2602.0,0.0168
2601.0,0.0168
2600.0,0.0168
2599.0,0.0168
2598.0,0.0169
2597.0,0.0169
2596.0,0.0169
2595.0,0.0169
2594.0,0.0168
2593.0,0.0168
2592.0,0.0169
2591.0,0.0169
2590.0,0.017
2589.0,0.017
2588.0,0.017
2587.0,0.017
2586.0,0.0171
2585.0,0.0171
2584.0,0.0172
2583.0,0.0173
2582.0,0.0173
2581.0,0.0174
2580.0,0.0173
2579.0,0.0173
2578.0,0.0172
2577.0,0.0172
2576.0,0.0171
2575.0,0.0171
2574.0,0.017
2573.0,0.0169
2572.0,0.0169
2571.0,0.0168
2570.0,0.0168
2569.0,0.0168
2568.0,0.0167
2567.0,0.0167
2566.0,0.0166
2565.0,0.0166
2564.0,0.0165
2563.0,0.0165
2562.0,0.0166
2561.0,0.0166
2560.0,0.0167
2559.0,0.0166
2558.0,0.0166
2557.0,0.0166
2556.0,0.0165
2555.0,0.0164
2554.0,0.0164
2553.0,0.0164
2552.0,0.0163
2551.0,0.0163
2550.0,0.0163
2549.0,0.0163
2548.0,0.0162
2547.0,0.0162
2546.0,0.0162
2545.0,0.0162
2544.0,0.0161
2543.0,0.0161
2542.0,0.0161
2541.0,0.0161
2540.0,0.0161
2539.0,0.016
2538.0,0.016
2537.0,0.0161
2536.0,0.0161
2535.0,0.0162
2534.0,0.0162
2533.0,0.0161
2532.0,0.016
2531.0,0.016
2530.0,0.0159
2529.0,0.0159
2528.0,0.0159
2527.0,0.0159
2526.0,0.0159
2525.0,0.0159
2524.0,0.0159
2523.0,0.0159
2522.0,0.016
2521.0,0.016
2520.0,0.016
2519.0,0.0159
2518.0,0.0159
2517.0,0.0159
2516.0,0.0159
2515.0,0.0158
2514.0,0.0158
2513.0,0.0157
2512.0,0.0156
2511.0,0.0156
2510.0,0.0155
2509.0,0.0155
2508.0,0.0156
2507.0,0.0155
2506.0,0.0155
2505.0,0.0155
2504.0,0.0156
2503.0,0.0156
2502.0,0.0157
2501.0,0.0157
2500.0,0.0158
2499.0,0.0158
2498.0,0.0157
2497.0,0.0157
2496.0,0.0158
2495.0,0.0158
2494.0,0.0158
2493.0,0.0158
2492.0,0.0158
2491.0,0.0157
2490.0,0.0157
2489.0,0.0157
2488.0,0.0157
2487.0,0.0157
2486.0,0.0157
2485.0,0.0157
2484.0,0.0157
2483.0,0.0156
2482.0,0.0156
2481.0,0.0155
2480.0,0.0154
2479.0,0.0154
2478.0,0.0154
2477.0,0.0155
2476.0,0.0155
2475.0,0.0155
2474.0,0.0156
2473.0,0.0156
2472.0,0.0156
2471.0,0.0156
2470.0,0.0156
2469.0,0.0156
2468.0,0.0155
2467.0,0.0155
2466.0,0.0155
2465.0,0.0155
2464.0,0.0155
2463.0,0.0154
2462.0,0.0154
2461.0,0.0154
2460.0,0.0154
2459.0,0.0154
2458.0,0.0154
2457.0,0.0154
2456.0,0.0154
2455.0,0.0154
2454.0,0.0154
2453.0,0.0155
2452.0,0.0155
2451.0,0.0156
2450.0,0.0156
2449.0,0.0156
2448.0,0.0156
2447.0,0.0155
2446.0,0.0155
2445.0,0.0155
2444.0,0.0155
2443.0,0.0155
2442.0,0.0154
2441.0,0.0154
2440.0,0.0154
2439.0,0.0155
2438.0,0.0155
2437.0,0.0156
2436.0,0.0156
2435.0,0.0156
2434.0,0.0156
2433.0,0.0156
2432.0,0.0156
2431.0,0.0156
2430.0,0.0156
2429.0,0.0156
2428.0,0.0156
2427.0,0.0156
2426.0,0.0156
2425.0,0.0156
2424.0,0.0157
2423.0,0.0157
2422.0,0.0157
2421.0,0.0157
2420.0,0.0156
2419.0,0.0156
2418.0,0.0155
2417.0,0.0155
2416.0,0.0155
2415.0,0.0155
2414.0,0.0155
2413.0,0.0155
2412.0,0.0156
2411.0,0.0156
2410.0,0.0156
2409.0,0.0156
2408.0,0.0156
2407.0,0.0156
2406.0,0.0156
2405.0,0.0156
2404.0,0.0156
2403.0,0.0157
2402.0,0.0157
2401.0,0.0157
2400.0,0.0156
2399.0,0.0156
2398.0,0.0155
2397.0,0.0155
2396.0,0.0156
2395.0,0.0156
2394.0,0.0156
2393.0,0.0155
2392.0,0.0155
2391.0,0.0155
2390.0,0.0154
2389.0,0.0152
2388.0,0.015
2387.0,0.0146
2386.0,0.0143
2385.0,0.0139
2384.0,0.0136
2383.0,0.0133
2382.0,0.0131
2381.0,0.013
2380.0,0.0129
2379.0,0.0127
2378.0,0.0125
2377.0,0.0123
2376.0,0.012
2375.0,0.0117
2374.0,0.0114
2373.0,0.0111
2372.0,0.0108
2371.0,0.0106
2370.0,0.0107
2369.0,0.0111
2368.0,0.012
2367.0,0.0129
2366.0,0.0137
2365.0,0.0144
2364.0,0.0151
2363.0,0.0153
2362.0,0.0147
2361.0,0.0138
2360.0,0.0131
2359.0,0.013
2358.0,0.0137
2357.0,0.0146
2356.0,0.0148
2355.0,0.0139
2354.0,0.0129
2353.0,0.0126
2352.0,0.013
2351.0,0.0135
2350.0,0.0135
2349.0,0.0131
2348.0,0.0125
2347.0,0.0121
2346.0,0.0119
2345.0,0.012
2344.0,0.0118
2343.0,0.0112
2342.0,0.0109
2341.0,0.0113
2340.0,0.0118
2339.0,0.0118
2338.0,0.0112
2337.0,0.0106
2336.0,0.0103
2335.0,0.0102
2334.0,0.0105
2333.0,0.0109
2332.0,0.0112
2331.0,0.011
2330.0,0.0105
2329.0,0.0097
2328.0,0.009
2327.0,0.0087
2326.0,0.0089
2325.0,0.0096
2324.0,0.0103
2323.0,0.0107
2322.0,0.0107
2321.0,0.0105
2320.0,0.0102
2319.0,0.01
2318.0,0.0099
2317.0,0.0099
2316.0,0.01
2315.0,0.0101
2314.0,0.0103
2313.0,0.0102
2312.0,0.0101
2311.0,0.0099
2310.0,0.0099
2309.0,0.01
2308.0,0.0104
2307.0,0.0109
2306.0,0.0113
2305.0,0.0116
2304.0,0.0117
2303.0,0.0118
2302.0,0.0119
2301.0,0.012
2300.0,0.0121
2299.0,0.0123
2298.0,0.0125
2297.0,0.0127
2296.0,0.0129
2295.0,0.0131
2294.0,0.0133
2293.0,0.0135
2292.0,0.0137
2291.0,0.0139
2290.0,0.0141
2289.0,0.0143
2288.0,0.0145
2287.0,0.0147
2286.0,0.0149
2285.0,0.015
2284.0,0.0151
2283.0,0.0152
2282.0,0.0152
2281.0,0.0152
2280.0,0.0152
2279.0,0.0152
2278.0,0.0151
2277.0,0.0151
2276.0,0.0152
2275.0,0.0153
2274.0,0.0153
2273.0,0.0154
2272.0,0.0154
2271.0,0.0154
2270.0,0.0154
2269.0,0.0154
2268.0,0.0154
2267.0,0.0154
2266.0,0.0153
2265.0,0.0153
2264.0,0.0153
2263.0,0.0152
2262.0,0.0153
2261.0,0.0153
2260.0,0.0153
2259.0,0.0154
2258.0,0.0154
2257.0,0.0154
2256.0,0.0154
2255.0,0.0155
2254.0,0.0155
2253.0,0.0155
2252.0,0.0155
2251.0,0.0156
2250.0,0.0156
2249.0,0.0156
2248.0,0.0156
2247.0,0.0157
2246.0,0.0157
2245.0,0.0157
2244.0,0.0156
2243.0,0.0156
2242.0,0.0156
2241.0,0.0156
2240.0,0.0156
2239.0,0.0156
2238.0,0.0157
2237.0,0.0157
2236.0,0.0157
2235.0,0.0157
2234.0,0.0158
2233.0,0.0158
2232.0,0.0158
2231.0,0.0158
2230.0,0.0158
2229.0,0.0158
2228.0,0.0158
2227.0,0.0158
2226.0,0.0158
2225.0,0.0159
2224.0,0.0159
2223.0,0.0158
2222.0,0.0158
2221.0,0.0157
2220.0,0.0157
2219.0,0.0157
2218.0,0.0157
2217.0,0.0157
2216.0,0.0157
2215.0,0.0157
2214.0,0.0158
2213.0,0.0158
2212.0,0.0158
2211.0,0.0158
2210.0,0.0158
2209.0,0.0158
2208.0,0.0158
2207.0,0.0158
2206.0,0.0159
2205.0,0.0159
2204.0,0.0159
2203.0,0.0159
2202.0,0.0159
2201.0,0.0159
2200.0,0.0159
2199.0,0.0159
2198.0,0.0159
2197.0,0.0159
2196.0,0.016
2195.0,0.0161
2194.0,0.0161
2193.0,0.0161
2192.0,0.0161
2191.0,0.016
2190.0,0.016
2189.0,0.016
2188.0,0.0161
2187.0,0.0161
2186.0,0.0161
2185.0,0.0161
2184.0,0.0161
2183.0,0.0161
2182.0,0.016
2181.0,0.016
2180.0,0.0161
2179.0,0.0161
2178.0,0.0162
2177.0,0.0162
2176.0,0.0162
2175.0,0.0162
2174.0,0.0161
2173.0,0.0161
2172.0,0.0161
2171.0,0.0161
2170.0,0.0161
2169.0,0.0161
2168.0,0.0161
2167.0,0.0161
2166.0,0.0161
2165.0,0.0161
2164.0,0.0161
2163.0,0.016
2162.0,0.016
2161.0,0.0161
2160.0,0.0161
2159.0,0.0162
2158.0,0.0162
2157.0,0.0161
2156.0,0.0161
2155.0,0.0161
2154.0,0.0161
2153.0,0.016
2152.0,0.016
2151.0,0.016
2150.0,0.0161
2149.0,0.0161
2148.0,0.0161
2147.0,0.0161
2146.0,0.0161
2145.0,0.0161
2144.0,0.0161
2143.0,0.0161
2142.0,0.0161
2141.0,0.0161
2140.0,0.0161
2139.0,0.0161
2138.0,0.0161
2137.0,0.0162
2136.0,0.0162
2135.0,0.0162
2134.0,0.0162
2133.0,0.0161
2132.0,0.0161
2131.0,0.0162
2130.0,0.0162
2129.0,0.0163
2128.0,0.0163
2127.0,0.0163
2126.0,0.0163
2125.0,0.0163
2124.0,0.0163
2123.0,0.0162
2122.0,0.0162
2121.0,0.0162
2120.0,0.0161
2119.0,0.0161
2118.0,0.0161
2117.0,0.0161
2116.0,0.0161
2115.0,0.0161
2114.0,0.0162
2113.0,0.0162
2112.0,0.0162
2111.0,0.0162
2110.0,0.0162
2109.0,0.0161
2108.0,0.0162
2107.0,0.0162
2106.0,0.0162
2105.0,0.0161
2104.0,0.0161
2103.0,0.0161
2102.0,0.0161
2101.0,0.0162
2100.0,0.0162
2099.0,0.0162
2098.0,0.0162
2097.0,0.0162
2096.0,0.0162
2095.0,0.0162
2094.0,0.0163
2093.0,0.0162
2092.0,0.0162
2091.0,0.0162
2090.0,0.0161
2089.0,0.0161
2088.0,0.0161
2087.0,0.0161
2086.0,0.0162
2085.0,0.0162
2084.0,0.0162
2083.0,0.0162
2082.0,0.0162
2081.0,0.0162
2080.0,0.0162
2079.0,0.0162
2078.0,0.0162
2077.0,0.0163
2076.0,0.0163
2075.0,0.0163
2074.0,0.0163
2073.0,0.0163
2072.0,0.0163
2071.0,0.0163
2070.0,0.0162
2069.0,0.0162
2068.0,0.0162
2067.0,0.0163
2066.0,0.0163
2065.0,0.0164
2064.0,0.0164
2063.0,0.0163
2062.0,0.0163
2061.0,0.0163
2060.0,0.0163
2059.0,0.0163
2058.0,0.0163
2057.0,0.0163
2056.0,0.0163
2055.0,0.0163
2054.0,0.0163
2053.0,0.0162
2052.0,0.0162
2051.0,0.0162
2050.0,0.0162
2049.0,0.0163
2048.0,0.0163
2047.0,0.0163
2046.0,0.0163
2045.0,0.0164
2044.0,0.0164
2043.0,0.0164
2042.0,0.0165
2041.0,0.0165
2040.0,0.0164
2039.0,0.0164
2038.0,0.0164
2037.0,0.0164
2036.0,0.0164
2035.0,0.0164
2034.0,0.0164
2033.0,0.0164
2032.0,0.0164
2031.0,0.0164
2030.0,0.0163
2029.0,0.0163
2028.0,0.0164
2027.0,0.0164
2026.0,0.0164
2025.0,0.0164
2024.0,0.0164
2023.0,0.0165
2022.0,0.0165
2021.0,0.0165
2020.0,0.0165
2019.0,0.0165
2018.0,0.0165
2017.0,0.0165
2016.0,0.0166
2015.0,0.0166
2014.0,0.0166
2013.0,0.0166
2012.0,0.0165
2011.0,0.0165
2010.0,0.0165
2009.0,0.0165
2008.0,0.0165
2007.0,0.0165
2006.0,0.0165
2005.0,0.0165
2004.0,0.0165
2003.0,0.0165
2002.0,0.0165
2001.0,0.0165
2000.0,0.0166
1999.0,0.0166
1998.0,0.0166
1997.0,0.0166
1996.0,0.0167
1995.0,0.0167
1994.0,0.0167
1993.0,0.0166
1992.0,0.0166
1991.0,0.0166
1990.0,0.0166
1989.0,0.0167
1988.0,0.0167
1987.0,0.0167
1986.0,0.0167
1985.0,0.0166
1984.0,0.0166
1983.0,0.0166
1982.0,0.0166
1981.0,0.0166
1980.0,0.0166
1979.0,0.0166
1978.0,0.0166
1977.0,0.0166
1976.0,0.0166
1975.0,0.0166
1974.0,0.0166
1973.0,0.0167
1972.0,0.0167
1971.0,0.0167
1970.0,0.0167
1969.0,0.0167
1968.0,0.0167
1967.0,0.0168
1966.0,0.0168
1965.0,0.0168
1964.0,0.0168
1963.0,0.0167
1962.0,0.0167
1961.0,0.0167
1960.0,0.0167
1959.0,0.0167
1958.0,0.0167
1957.0,0.0167
1956.0,0.0167
1955.0,0.0167
1954.0,0.0168
1953.0,0.0168
1952.0,0.0169
1951.0,0.0169
1950.0,0.0168
1949.0,0.0168
1948.0,0.0168
1947.0,0.0168
1946.0,0.0168
1945.0,0.0169
1944.0,0.0169
1943.0,0.017
1942.0,0.0169
1941.0,0.0169
1940.0,0.0168
1939.0,0.0168
1938.0,0.0168
1937.0,0.0169
1936.0,0.0169
1935.0,0.0168
1934.0,0.0168
1933.0,0.0169
1932.0,0.0169
1931.0,0.0169
1930.0,0.017
1929.0,0.017
1928.0,0.017
1927.0,0.017
1926.0,0.017
1925.0,0.017
1924.0,0.017
1923.0,0.017
1922.0,0.017
1921.0,0.017
1920.0,0.017
1919.0,0.0169
1918.0,0.0169
1917.0,0.0169
1916.0,0.0169
1915.0,0.0169
1914.0,0.017
1913.0,0.017
1912.0,0.017
1911.0,0.017
1910.0,0.0169
1909.0,0.0169
1908.0,0.017
1907.0,0.017
1906.0,0.017
1905.0,0.017
1904.0,0.017
1903.0,0.0171
1902.0,0.0171
1901.0,0.0172
1900.0,0.0172
1899.0,0.0172
1898.0,0.0172
1897.0,0.0172
1896.0,0.0173
1895.0,0.0173
1894.0,0.0173
1893.0,0.0173
1892.0,0.0173
1891.0,0.0173
1890.0,0.0173
1889.0,0.0172
1888.0,0.0172
1887.0,0.0172
1886.0,0.0172
1885.0,0.0171
1884.0,0.0171
1883.0,0.0171
1882.0,0.0171
1881.0,0.0172
1880.0,0.0172
1879.0,0.0172
1878.0,0.0172
1877.0,0.0173
1876.0,0.0173
1875.0,0.0173
1874.0,0.0173
1873.0,0.0174
1872.0,0.0174
1871.0,0.0173
1870.0,0.0173
1869.0,0.0173
1868.0,0.0173
1867.0,0.0174
1866.0,0.0174
1865.0,0.0175
1864.0,0.0175
1863.0,0.0174
1862.0,0.0174
1861.0,0.0174
1860.0,0.0173
1859.0,0.0173
1858.0,0.0173
1857.0,0.0173
1856.0,0.0173
1855.0,0.0172
1854.0,0.0172
1853.0,0.0173
1852.0,0.0173
1851.0,0.0174
1850.0,0.0175
1849.0,0.0174
1848.0,0.0174
1847.0,0.0174
1846.0,0.0174
1845.0,0.0174
1844.0,0.0173
1843.0,0.0173
1842.0,0.0173
1841.0,0.0174
1840.0,0.0174
1839.0,0.0173
1838.0,0.0173
1837.0,0.0173
1836.0,0.0173
1835.0,0.0174
1834.0,0.0174
1833.0,0.0175
1832.0,0.0176
1831.0,0.0175
1830.0,0.0175
1829.0,0.0175
1828.0,0.0176
1827.0,0.0176
1826.0,0.0176
1825.0,0.0176
1824.0,0.0175
1823.0,0.0175
1822.0,0.0175
1821.0,0.0175
1820.0,0.0175
1819.0,0.0175
1818.0,0.0174
1817.0,0.0174
1816.0,0.0174
1815.0,0.0174
1814.0,0.0174
1813.0,0.0174
1812.0,0.0175
1811.0,0.0175
1810.0,0.0176
1809.0,0.0176
1808.0,0.0176
1807.0,0.0175
1806.0,0.0175
1805.0,0.0175
1804.0,0.0176
1803.0,0.0176
1802.0,0.0176
1801.0,0.0176
1800.0,0.0176
1799.0,0.0176
1798.0,0.0176
1797.0,0.0177
1796.0,0.0177
1795.0,0.0177
1794.0,0.0177
1793.0,0.0176
1792.0,0.0177
1791.0,0.0177
1790.0,0.0177
1789.0,0.0177
1788.0,0.0177
1787.0,0.0177
1786.0,0.0177
1785.0,0.0177
1784.0,0.0178
1783.0,0.0178
1782.0,0.0178
1781.0,0.0178
1780.0,0.0178
1779.0,0.0179
1778.0,0.0179
1777.0,0.0179
1776.0,0.0179
1775.0,0.0179
1774.0,0.0179
1773.0,0.0178
1772.0,0.0178
1771.0,0.0178
1770.0,0.0178
1769.0,0.0179
1768.0,0.0179
1767.0,0.0179
1766.0,0.0178
1765.0,0.0178
1764.0,0.0179
1763.0,0.018
1762.0,0.0181
1761.0,0.0182
1760.0,0.0183
1759.0,0.0184
1758.0,0.0185
1757.0,0.0186
1756.0,0.0186
1755.0,0.0187
1754.0,0.0187
1753.0,0.0188
1752.0,0.0189
1751.0,0.019
1750.0,0.0191
1749.0,0.0192
1748.0,0.0194
1747.0,0.0195
1746.0,0.0196
1745.0,0.0197
1744.0,0.0199
1743.0,0.02
1742.0,0.02
1741.0,0.02
1740.0,0.02
1739.0,0.02
1738.0,0.0201
1737.0,0.0201
1736.0,0.0201
1735.0,0.02
1734.0,0.0197
1733.0,0.0196
1732.0,0.0196
1731.0,0.0197
1730.0,0.0198
1729.0,0.0199
1728.0,0.0198
1727.0,0.0198
1726.0,0.0198
1725.0,0.0198
1724.0,0.0198
1723.0,0.0198
1722.0,0.0198
1721.0,0.0199
1720.0,0.0199
1719.0,0.0198
1718.0,0.0196
1717.0,0.0195
1716.0,0.0197
1715.0,0.0198
1714.0,0.0199
1713.0,0.0201
1712.0,0.0201
1711.0,0.0202
1710.0,0.0201
1709.0,0.0201
1708.0,0.0202
1707.0,0.0202
1706.0,0.0203
1705.0,0.0204
1704.0,0.0205
1703.0,0.0205
1702.0,0.0204
1701.0,0.0203
1700.0,0.0203
1699.0,0.0205
1698.0,0.0208
1697.0,0.0211
1696.0,0.0212
1695.0,0.0211
1694.0,0.021
1693.0,0.021
1692.0,0.0211
1691.0,0.0212
1690.0,0.0213
1689.0,0.0215
1688.0,0.0216
1687.0,0.0218
1686.0,0.0219
1685.0,0.022
1684.0,0.0223
1683.0,0.0223
1682.0,0.0223
1681.0,0.0224
1680.0,0.0225
1679.0,0.0226
1678.0,0.0226
1677.0,0.0226
1676.0,0.0226
1675.0,0.0228
1674.0,0.0229
1673.0,0.0231
1672.0,0.0232
1671.0,0.0233
1670.0,0.0234
1669.0,0.0236
1668.0,0.0237
1667.0,0.0238
1666.0,0.0238
1665.0,0.0238
1664.0,0.0239
1663.0,0.0239
1662.0,0.0241
1661.0,0.0242
1660.0,0.0243
1659.0,0.0243
1658.0,0.0244
1657.0,0.0244
1656.0,0.0244
1655.0,0.0243
1654.0,0.0243
1653.0,0.0245
1652.0,0.0246
1651.0,0.0245
1650.0,0.0246
1649.0,0.0247
1648.0,0.0247
1647.0,0.0247
1646.0,0.0248
1645.0,0.0248
1644.0,0.0248
1643.0,0.0248
1642.0,0.0249
1641.0,0.0248
1640.0,0.0248
1639.0,0.0248
1638.0,0.0248
1637.0,0.0248
1636.0,0.0249
1635.0,0.0249
1634.0,0.0246
1633.0,0.0244
1632.0,0.0243
1631.0,0.0242
1630.0,0.024
1629.0,0.0238
1628.0,0.0237
1627.0,0.0237
1626.0,0.0236
1625.0,0.0235
1624.0,0.0235
1623.0,0.0235
1622.0,0.0235
1621.0,0.0234
1620.0,0.0233
1619.0,0.0232
1618.0,0.023
1617.0,0.0229
1616.0,0.0229
1615.0,0.0228
1614.0,0.0228
1613.0,0.0227
1612.0,0.0227
1611.0,0.0226
1610.0,0.0226
1609.0,0.0226
1608.0,0.0226
1607.0,0.0225
1606.0,0.0225
1605.0,0.0224
1604.0,0.0224
1603.0,0.0224
1602.0,0.0225
1601.0,0.0225
1600.0,0.0225
1599.0,0.0224
1598.0,0.0223
1597.0,0.0222
1596.0,0.0221
1595.0,0.0221
1594.0,0.022
1593.0,0.022
1592.0,0.0219
1591.0,0.0219
1590.0,0.0219
1589.0,0.0219
1588.0,0.0219
1587.0,0.0219
1586.0,0.0219
1585.0,0.0219
1584.0,0.022
1583.0,0.022
1582.0,0.022
1581.0,0.0221
1580.0,0.0221
1579.0,0.0221
1578.0,0.0221
1577.0,0.022
1576.0,0.022
1575.0,0.022
1574.0,0.0219
1573.0,0.0219
1572.0,0.0218
1571.0,0.0217
1570.0,0.0216
1569.0,0.0216
1568.0,0.0216
1567.0,0.0215
1566.0,0.0215
1565.0,0.0214
1564.0,0.0214
1563.0,0.0214
1562.0,0.0214
1561.0,0.0215
1560.0,0.0215
1559.0,0.0215
1558.0,0.0213
1557.0,0.021
1556.0,0.0209
1555.0,0.0209
1554.0,0.0209
1553.0,0.021
1552.0,0.0211
1551.0,0.0211
1550.0,0.0211
1549.0,0.0211
1548.0,0.0211
1547.0,0.021
1546.0,0.021
1545.0,0.0209
1544.0,0.021
1543.0,0.0209
1542.0,0.0208
1541.0,0.0209
1540.0,0.021
1539.0,0.0209
1538.0,0.0206
1537.0,0.0205
1536.0,0.0205
1535.0,0.0204
1534.0,0.0204
1533.0,0.0203
1532.0,0.0202
1531.0,0.0201
1530.0,0.02
1529.0,0.02
1528.0,0.0199
1527.0,0.0198
1526.0,0.0196
1525.0,0.0194
1524.0,0.0194
1523.0,0.0193
1522.0,0.0194
1521.0,0.0196
1520.0,0.0197
1519.0,0.0197
1518.0,0.0196
1517.0,0.0196
1516.0,0.0196
1515.0,0.0196
1514.0,0.0196
1513.0,0.0196
1512.0,0.0196
1511.0,0.0196
1510.0,0.0197
1509.0,0.0197
1508.0,0.0199
1507.0,0.0199
1506.0,0.0196
1505.0,0.0192
1504.0,0.0192
1503.0,0.0192
1502.0,0.0193
1501.0,0.0193
1500.0,0.0194
1499.0,0.0195
1498.0,0.0196
1497.0,0.02
1496.0,0.0204
1495.0,0.0205
1494.0,0.0206
1493.0,0.0206
1492.0,0.0206
1491.0,0.0205
1490.0,0.0203
1489.0,0.0204
1488.0,0.0204
1487.0,0.0204
1486.0,0.0205
1485.0,0.0206
1484.0,0.0208
1483.0,0.0211
1482.0,0.0214
1481.0,0.0218
1480.0,0.0223
1479.0,0.0228
1478.0,0.0234
1477.0,0.0244
1476.0,0.0257
1475.0,0.0271
1474.0,0.0292
1473.0,0.0326
1472.0,0.0363
1471.0,0.0392
1470.0,0.0418
1469.0,0.0447
1468.0,0.0478
1467.0,0.0515
1466.0,0.0562
1465.0,0.0619
1464.0,0.0668
1463.0,0.0698
1462.0,0.0714
1461.0,0.0724
1460.0,0.0731
1459.0,0.0738
1458.0,0.0753
1457.0,0.0777
1456.0,0.0791
1455.0,0.0793
1454.0,0.0792
1453.0,0.079
1452.0,0.0784
1451.0,0.0773
1450.0,0.0755
1449.0,0.0727
1448.0,0.0688
1447.0,0.0645
1446.0,0.0606
1445.0,0.057
1444.0,0.0537
1443.0,0.0509
1442.0,0.0487
1441.0,0.047
1440.0,0.0459
1439.0,0.0452
1438.0,0.0451
1437.0,0.0452
1436.0,0.045
1435.0,0.044
1434.0,0.0424
1433.0,0.0405
1432.0,0.0383
1431.0,0.0363
1430.0,0.0346
1429.0,0.0333
1428.0,0.0323
1427.0,0.0317
1426.0,0.0312
1425.0,0.0307
1424.0,0.0302
1423.0,0.0298
1422.0,0.0295
1421.0,0.0291
1420.0,0.0287
1419.0,0.0286
1418.0,0.0285
1417.0,0.0284
1416.0,0.0281
1415.0,0.0279
1414.0,0.0277
1413.0,0.0274
1412.0,0.0271
1411.0,0.0269
1410.0,0.0268
1409.0,0.0266
1408.0,0.0263
1407.0,0.0262
1406.0,0.026
1405.0,0.0258
1404.0,0.0256
1403.0,0.0256
1402.0,0.0255
1401.0,0.0254
1400.0,0.0252
1399.0,0.0251
1398.0,0.025
1397.0,0.0248
1396.0,0.0247
1395.0,0.0247
1394.0,0.0247
1393.0,0.0247
1392.0,0.0246
1391.0,0.0247
1390.0,0.0249
1389.0,0.0252
1388.0,0.0258
1387.0,0.027
1386.0,0.0288
1385.0,0.0311
1384.0,0.0346
1383.0,0.0397
1382.0,0.0468
1381.0,0.056
1380.0,0.0678
1379.0,0.0817
1378.0,0.0953
1377.0,0.1056
1376.0,0.1099
1375.0,0.1067
1374.0,0.0971
1373.0,0.0856
1372.0,0.0752
1371.0,0.0665
1370.0,0.059
1369.0,0.053
1368.0,0.0486
1367.0,0.0458
1366.0,0.0441
1365.0,0.0432
1364.0,0.043
1363.0,0.0436
1362.0,0.0446
1361.0,0.0456
1360.0,0.0464
1359.0,0.0466
1358.0,0.0461
1357.0,0.0449
1356.0,0.0433
1355.0,0.0414
1354.0,0.0396
1353.0,0.0382
1352.0,0.0369
1351.0,0.0358
1350.0,0.0348
1349.0,0.034
1348.0,0.0334
1347.0,0.0328
1346.0,0.0322
1345.0,0.0318
1344.0,0.0314
1343.0,0.0311
1342.0,0.0309
1341.0,0.0308
1340.0,0.0306
1339.0,0.0305
1338.0,0.0303
1337.0,0.0302
1336.0,0.0301
1335.0,0.03
1334.0,0.0301
1333.0,0.0303
1332.0,0.0305
1331.0,0.0307
1330.0,0.0308
1329.0,0.0308
1328.0,0.0306
1327.0,0.0304
1326.0,0.0302
1325.0,0.0299
1324.0,0.0297
1323.0,0.0294
1322.0,0.0291
1321.0,0.0289
1320.0,0.0287
1319.0,0.0286
1318.0,0.0285
1317.0,0.0284
1316.0,0.0282
1315.0,0.0282
1314.0,0.0281
1313.0,0.0281
1312.0,0.0281
1311.0,0.0281
1310.0,0.0283
1309.0,0.0286
1308.0,0.0291
1307.0,0.0297
1306.0,0.0304
1305.0,0.0308
1304.0,0.0309
1303.0,0.0307
1302.0,0.0304
1301.0,0.0301
1300.0,0.0299
1299.0,0.0299
1298.0,0.0299
1297.0,0.03
1296.0,0.03
1295.0,0.0298
1294.0,0.0296
1293.0,0.0294
1292.0,0.0292
1291.0,0.029
1290.0,0.0288
1289.0,0.0286
1288.0,0.0284
1287.0,0.0283
1286.0,0.0281
1285.0,0.028
1284.0,0.0279
1283.0,0.0278
1282.0,0.0278
1281.0,0.0277
1280.0,0.0277
1279.0,0.0276
1278.0,0.0276
1277.0,0.0276
1276.0,0.0276
1275.0,0.0276
1274.0,0.0276
1273.0,0.0276
1272.0,0.0276
1271.0,0.0276
1270.0,0.0277
1269.0,0.0277
1268.0,0.0278
1267.0,0.0278
1266.0,0.0279
1265.0,0.0279
1264.0,0.0281
1263.0,0.0282
1262.0,0.0284
1261.0,0.0286
1260.0,0.0289
1259.0,0.0293
1258.0,0.0298
1257.0,0.0302
1256.0,0.0305
1255.0,0.0305
1254.0,0.0303
1253.0,0.0298
1252.0,0.0294
1251.0,0.029
1250.0,0.0287
1249.0,0.0285
1248.0,0.0283
1247.0,0.0282
1246.0,0.028
1245.0,0.0279
1244.0,0.0278
1243.0,0.0278
1242.0,0.0277
1241.0,0.0276
1240.0,0.0276
1239.0,0.0275
1238.0,0.0274
1237.0,0.0274
1236.0,0.0274
1235.0,0.0273
1234.0,0.0273
1233.0,0.0272
1232.0,0.0271
1231.0,0.0271
1230.0,0.0271
1229.0,0.0271
1228.0,0.0272
1227.0,0.0272
1226.0,0.0273
1225.0,0.0274
1224.0,0.0275
1223.0,0.0277
1222.0,0.0278
1221.0,0.0279
1220.0,0.028
1219.0,0.028
1218.0,0.0281
1217.0,0.0281
1216.0,0.028
1215.0,0.0279
1214.0,0.0278
1213.0,0.0277
1212.0,0.0275
1211.0,0.0275
1210.0,0.0274
1209.0,0.0274
1208.0,0.0273
1207.0,0.0273
1206.0,0.0273
1205.0,0.0273
1204.0,0.0273
1203.0,0.0274
1202.0,0.0276
1201.0,0.0277
1200.0,0.0278
1199.0,0.0278
1198.0,0.0277
1197.0,0.0276
1196.0,0.0275
1195.0,0.0275
1194.0,0.0275
1193.0,0.0275
1192.0,0.0276
1191.0,0.0276
1190.0,0.0277
1189.0,0.0278
1188.0,0.0279
1187.0,0.0281
1186.0,0.0282
1185.0,0.0284
1184.0,0.0285
1183.0,0.0286
1182.0,0.0287
1181.0,0.0289
1180.0,0.0291
1179.0,0.0294
1178.0,0.0297
1177.0,0.03
1176.0,0.0305
1175.0,0.0312
1174.0,0.0322
1173.0,0.0336
1172.0,0.0354
1171.0,0.0374
1170.0,0.0394
1169.0,0.0411
1168.0,0.0421
1167.0,0.0424
1166.0,0.042
1165.0,0.0413
1164.0,0.0404
1163.0,0.0395
1162.0,0.0386
1161.0,0.0379
1160.0,0.0373
1159.0,0.0368
1158.0,0.0365
1157.0,0.0363
1156.0,0.0362
1155.0,0.0361
1154.0,0.036
1153.0,0.0359
1152.0,0.0357
1151.0,0.0354
1150.0,0.0351
1149.0,0.0347
1148.0,0.0342
1147.0,0.0338
1146.0,0.0334
1145.0,0.0332
1144.0,0.0329
1143.0,0.0327
1142.0,0.0324
1141.0,0.0322
1140.0,0.0321
1139.0,0.0319
1138.0,0.0317
1137.0,0.0315
1136.0,0.0313
1135.0,0.031
1134.0,0.0308
1133.0,0.0306
1132.0,0.0305
1131.0,0.0304
1130.0,0.0303
1129.0,0.0302
1128.0,0.0302
1127.0,0.0302
1126.0,0.0301
1125.0,0.03
1124.0,0.03
1123.0,0.0299
1122.0,0.0298
1121.0,0.0298
1120.0,0.0297
1119.0,0.0297
1118.0,0.0297
1117.0,0.0297
1116.0,0.0298
1115.0,0.0299
1114.0,0.0299
1113.0,0.03
1112.0,0.0301
1111.0,0.0302
1110.0,0.0304
1109.0,0.0306
1108.0,0.0307
1107.0,0.0309
1106.0,0.0312
1105.0,0.0314
1104.0,0.0317
1103.0,0.0319
1102.0,0.032
1101.0,0.0319
1100.0,0.0317
1099.0,0.0314
1098.0,0.0311
1097.0,0.0308
1096.0,0.0306
1095.0,0.0303
1094.0,0.0302
1093.0,0.0301
1092.0,0.03
1091.0,0.0299
1090.0,0.0298
1089.0,0.0297
1088.0,0.0296
1087.0,0.0295
1086.0,0.0294
1085.0,0.0292
1084.0,0.0291
1083.0,0.0289
1082.0,0.0288
1081.0,0.0288
1080.0,0.0288
1079.0,0.0287
1078.0,0.0286
1077.0,0.0286
1076.0,0.0286
1075.0,0.0286
1074.0,0.0287
1073.0,0.0287
1072.0,0.0286
1071.0,0.0286
1070.0,0.0285
1069.0,0.0284
1068.0,0.0284
1067.0,0.0283
1066.0,0.0283
1065.0,0.0283
1064.0,0.0283
1063.0,0.0283
1062.0,0.0283
1061.0,0.0283
1060.0,0.0282
1059.0,0.0282
1058.0,0.0282
1057.0,0.0282
1056.0,0.0282
1055.0,0.0282
1054.0,0.0282
1053.0,0.0283
1052.0,0.0285
1051.0,0.0286
1050.0,0.0288
1049.0,0.0291
1048.0,0.0293
1047.0,0.0296
1046.0,0.0298
1045.0,0.03
1044.0,0.03
1043.0,0.0299
1042.0,0.0299
1041.0,0.0298
1040.0,0.0296
1039.0,0.0295
1038.0,0.0294
1037.0,0.0292
1036.0,0.0291
1035.0,0.0291
1034.0,0.029
1033.0,0.029
1032.0,0.029
1031.0,0.029
1030.0,0.0289
1029.0,0.0289
1028.0,0.0289
1027.0,0.0288
1026.0,0.0288
1025.0,0.0288
1024.0,0.0289
1023.0,0.029
1022.0,0.0291
1021.0,0.0291
1020.0,0.0292
1019.0,0.0292
1018.0,0.0292
1017.0,0.0292
1016.0,0.0292
1015.0,0.0291
1014.0,0.0291
1013.0,0.029
1012.0,0.029
1011.0,0.0289
1010.0,0.0289
1009.0,0.0289
1008.0,0.0291
1007.0,0.0295
1006.0,0.03
1005.0,0.0306
1004.0,0.0315
1003.0,0.0328
1002.0,0.0347
1001.0,0.0372
1000.0,0.0399
999.0,0.0423
998.0,0.0437
997.0,0.0437
996.0,0.0424
995.0,0.0402
994.0,0.038
993.0,0.036
992.0,0.0344
991.0,0.0331
990.0,0.0322
989.0,0.0315
988.0,0.031
987.0,0.0307
986.0,0.0307
985.0,0.0308
984.0,0.0309
983.0,0.0312
982.0,0.0317
981.0,0.0324
980.0,0.0335
979.0,0.0351
978.0,0.037
977.0,0.0394
976.0,0.0421
975.0,0.0448
974.0,0.0471
973.0,0.0483
972.0,0.048
971.0,0.0463
970.0,0.0437
969.0,0.041
968.0,0.0387
967.0,0.037
966.0,0.0357
965.0,0.0347
964.0,0.0339
963.0,0.0334
962.0,0.0329
961.0,0.0325
960.0,0.0322
959.0,0.0319
958.0,0.0316
957.0,0.0313
956.0,0.0311
955.0,0.031
954.0,0.0309
953.0,0.0309
952.0,0.0309
951.0,0.0309
950.0,0.0308
949.0,0.0308
948.0,0.0307
947.0,0.0308
946.0,0.0309
945.0,0.0311
944.0,0.0313
943.0,0.0314
942.0,0.0316
941.0,0.0317
940.0,0.0317
939.0,0.0317
938.0,0.0316
937.0,0.0315
936.0,0.0312
935.0,0.031
934.0,0.0309
933.0,0.0308
932.0,0.0307
931.0,0.0306
930.0,0.0305
929.0,0.0305
928.0,0.0305
927.0,0.0306
926.0,0.0307
925.0,0.0307
924.0,0.0308
923.0,0.0308
922.0,0.0309
921.0,0.031
920.0,0.031
919.0,0.031
918.0,0.031
917.0,0.0311
916.0,0.0311
915.0,0.0312
914.0,0.0313
913.0,0.0315
912.0,0.0316
911.0,0.0317
910.0,0.0318
909.0,0.032
908.0,0.0322
907.0,0.0325
906.0,0.0329
905.0,0.0334
904.0,0.0341
903.0,0.035
902.0,0.0361
901.0,0.0371
900.0,0.038
899.0,0.0384
898.0,0.0383
897.0,0.0378
896.0,0.0371
895.0,0.0363
894.0,0.0356
893.0,0.0351
892.0,0.0346
891.0,0.0343
890.0,0.034
889.0,0.0339
888.0,0.0339
887.0,0.0339
886.0,0.0339
885.0,0.0338
884.0,0.0338
883.0,0.0338
882.0,0.0339
881.0,0.0341
880.0,0.0342
879.0,0.0344
878.0,0.0346
877.0,0.0348
876.0,0.035
875.0,0.0351
874.0,0.0351
873.0,0.035
872.0,0.0349
871.0,0.0348
870.0,0.0348
869.0,0.0347
868.0,0.0347
867.0,0.0347
866.0,0.0347
865.0,0.0348
864.0,0.0348
863.0,0.0348
862.0,0.0348
861.0,0.0349
860.0,0.0351
859.0,0.0353
858.0,0.0355
857.0,0.0356
856.0,0.0356
855.0,0.0356
854.0,0.0357
853.0,0.0359
852.0,0.0361
851.0,0.0364
850.0,0.0366
849.0,0.0369
848.0,0.0373
847.0,0.0379
846.0,0.0389
845.0,0.0406
844.0,0.0432
843.0,0.0463
842.0,0.0491
841.0,0.0505
840.0,0.0499
839.0,0.0477
838.0,0.0451
837.0,0.0429
836.0,0.0414
835.0,0.0404
834.0,0.0398
833.0,0.0396
832.0,0.0395
831.0,0.0395
830.0,0.0394
829.0,0.0394
828.0,0.0392
827.0,0.039
826.0,0.0388
825.0,0.0388
824.0,0.0388
823.0,0.0389
822.0,0.0389
821.0,0.039
820.0,0.039
819.0,0.039
818.0,0.0392
817.0,0.0394
816.0,0.0398
815.0,0.0404
814.0,0.0412
813.0,0.0422
812.0,0.0433
811.0,0.0443
810.0,0.045
809.0,0.0454
808.0,0.0454
807.0,0.045
806.0,0.0444
805.0,0.0437
804.0,0.043
803.0,0.0425
802.0,0.042
801.0,0.0416
800.0,0.0414
799.0,0.0412
798.0,0.0411
797.0,0.0409
796.0,0.0408
795.0,0.0408
794.0,0.0408
793.0,0.0408
792.0,0.0407
791.0,0.0407
790.0,0.0407
789.0,0.0408
788.0,0.0407
787.0,0.0405
786.0,0.0403
785.0,0.0403
784.0,0.0404
783.0,0.0404
782.0,0.0404
781.0,0.0404
780.0,0.0405
779.0,0.0406
778.0,0.0406
777.0,0.0406
776.0,0.0407
775.0,0.0408
774.0,0.0408
773.0,0.0409
772.0,0.0411
771.0,0.0413
770.0,0.0415
769.0,0.0417
768.0,0.0419
767.0,0.042
766.0,0.0421
765.0,0.0422
764.0,0.0425
763.0,0.0428
762.0,0.043
761.0,0.043
760.0,0.043
759.0,0.043
758.0,0.0432
757.0,0.0435
756.0,0.0439
755.0,0.0441
754.0,0.0442
753.0,0.0442
752.0,0.0443
751.0,0.0443
750.0,0.0443
749.0,0.0443
748.0,0.0443
747.0,0.0444
746.0,0.0446
745.0,0.0447
744.0,0.0448
743.0,0.0448
742.0,0.0448
741.0,0.0448
740.0,0.0448
739.0,0.045
738.0,0.0452
737.0,0.0456
736.0,0.046
735.0,0.0464
734.0,0.0469
733.0,0.0474
732.0,0.048
731.0,0.0486
730.0,0.0489
729.0,0.049
728.0,0.0488
727.0,0.0485
726.0,0.0483
725.0,0.0483
724.0,0.0486
723.0,0.049
722.0,0.0494
721.0,0.0498
720.0,0.0503
719.0,0.0506
718.0,0.0506
717.0,0.0502
716.0,0.0496
715.0,0.0492
714.0,0.0489
713.0,0.0487
712.0,0.0486
711.0,0.0485
710.0,0.0486
709.0,0.0489
708.0,0.0496
707.0,0.0503
706.0,0.051
705.0,0.0518
704.0,0.0527
703.0,0.0538
702.0,0.0547
701.0,0.0552
700.0,0.0556
699.0,0.056
698.0,0.0561
697.0,0.0559
696.0,0.0552
695.0,0.0542
694.0,0.0529
693.0,0.0516
692.0,0.0504
691.0,0.0495
690.0,0.0491
689.0,0.049
688.0,0.0493
687.0,0.0499
686.0,0.0506
685.0,0.0511
684.0,0.0512
683.0,0.0507
682.0,0.05
681.0,0.0496
680.0,0.0494
679.0,0.0495
678.0,0.0497
677.0,0.0502
676.0,0.0507
675.0,0.051
674.0,0.0509
673.0,0.0507
672.0,0.0504
671.0,0.0505
670.0,0.0515
669.0,0.0539
668.0,0.056
667.0,0.055
666.0,0.0526
665.0,0.0509
664.0,0.0497
663.0,0.0489
662.0,0.0484
661.0,0.0482
660.0,0.0484
659.0,0.049
658.0,0.0494
657.0,0.0497
656.0,0.0499
655.0,0.0502
654.0,0.0502
653.0,0.05
652.0,0.0497
651.0,0.0493
650.0,0.0488
649.0,0.0485
648.0,0.0484
647.0,0.0486
646.0,0.0486
645.0,0.0486
644.0,0.0487
643.0,0.0491
642.0,0.0494
641.0,0.0495
640.0,0.0494
639.0,0.0495
638.0,0.0501
637.0,0.0514
636.0,0.0535
635.0,0.0558
634.0,0.0567
633.0,0.0557
632.0,0.0536
631.0,0.052
630.0,0.0514
629.0,0.0517
628.0,0.0522
627.0,0.0525
626.0,0.0525
625.0,0.0521
624.0,0.0516
623.0,0.051
622.0,0.0507
621.0,0.0509
620.0,0.051
619.0,0.0509
618.0,0.0506
617.0,0.0508
616.0,0.0515
615.0,0.0523
614.0,0.0528
613.0,0.053
612.0,0.053
611.0,0.0526
610.0,0.0519
609.0,0.0514
608.0,0.0516
607.0,0.0523
606.0,0.0527
605.0,0.0526
604.0,0.0523
603.0,0.052
602.0,0.0516
601.0,0.0513
600.0,0.0516
