cm-1,A
4000.0,0.0035321097382827737
3999.0,0.0035321097382827737
3998.0,0.003488327845821315
3997.0,0.003488327845821315
3996.0,0.003488327845821315
3995.0,0.0035758960449088217
3994.0,0.003619686766589858
3993.0,0.003619686766589858
3992.0,0.0035758960449088217
3991.0,0.003619686766589858
3990.0,0.0036634819042162814
3989.0,0.003707281458678491
3988.0,0.0037510854308679953
3987.0,0.003707281458678491
3986.0,0.0035758960449088217
3985.0,0.003488327845821315
3984.0,0.0034007772998332353
3983.0,0.0034445503666347133
3982.0,0.003488327845821315
3981.0,0.0035321097382827737
3980.0,0.0035321097382827737
3979.0,0.003488327845821315
3978.0,0.0034445503666347133
3977.0,0.0034445503666347133
3976.0,0.003488327845821315
3975.0,0.0035758960449088217
3974.0,0.003619686766589858
3973.0,0.003619686766589858
3972.0,0.0035321097382827737
3971.0,0.0034445503666347133
3970.0,0.0034445503666347133
3969.0,0.003488327845821315
3968.0,0.003619686766589858
3967.0,0.003707281458678491
3966.0,0.0036634819042162814
3965.0,0.0035758960449088217
3964.0,0.003488327845821315
3963.0,0.0033570086445275926
3962.0,0.0033570086445275926
3961.0,0.0033570086445275926
3960.0,0.0034445503666347133
3959.0,0.0034445503666347133
3958.0,0.0034445503666347133
3957.0,0.0034445503666347133
3956.0,0.003488327845821315
3955.0,0.0035321097382827737
3954.0,0.0035321097382827737
3953.0,0.003488327845821315
3952.0,0.0034007772998332353
3951.0,0.0033570086445275926
3950.0,0.0033132443998284966
3949.0,0.0033132443998284966
3948.0,0.0033132443998284966
3947.0,0.0033132443998284966
3946.0,0.0033132443998284966
3945.0,0.0032694845648473247
3944.0,0.0032257291386954545
3943.0,0.0031819781204844855
3942.0,0.0031819781204844855
3941.0,0.0031382315093266833
3940.0,0.0031382315093266833
3939.0,0.0031382315093266833
3938.0,0.0031819781204844855
3937.0,0.0031819781204844855
3936.0,0.0032257291386954545
3935.0,0.0031819781204844855
3934.0,0.0032257291386954545
3933.0,0.0032694845648473247
3932.0,0.0033570086445275926
3931.0,0.0034445503666347133
3930.0,0.003488327845821315
3929.0,0.0034007772998332353
3928.0,0.0033132443998284966
3927.0,0.0032257291386954545
3926.0,0.0032257291386954545
3925.0,0.0033132443998284966
3924.0,0.0034007772998332353
3923.0,0.0034007772998332353
3922.0,0.0033570086445275926
3921.0,0.0032257291386954545
3920.0,0.0031819781204844855
3919.0,0.0032257291386954545
3918.0,0.0033132443998284966
3917.0,0.0033570086445275926
3916.0,0.0032694845648473247
3915.0,0.0031382315093266833
3914.0,0.0030070181092942683
3913.0,0.0030070181092942683
3912.0,0.003050751504618754
3911.0,0.0031819781204844855
3910.0,0.0032694845648473247
3909.0,0.0032694845648473247
3908.0,0.0031382315093266833
3907.0,0.0029632891174733444
3906.0,0.0027884171674950053
3905.0,0.002701007590486082
3904.0,0.002613615602686581
3903.0,0.002482560585275184
3902.0,0.0023078820582733695
3901.0,0.0022205691343961664
3900.0,0.0022642234021015284
3899.0,0.002395212539545666
3898.0,0.002569926202528716
3897.0,0.0027447101798967477
3896.0,0.0028321285541661467
3895.0,0.0028758443407954637
3894.0,0.0028758443407954637
3893.0,0.0028758443407954637
3892.0,0.0028758443407954637
3891.0,0.0028321285541661467
3890.0,0.0027447101798967477
3889.0,0.002613615602686581
3888.0,0.0025262411970197185
3887.0,0.0024388843664115978
3886.0,0.0025262411970197185
3885.0,0.002613615602686581
3884.0,0.002613615602686581
3883.0,0.0025262411970197185
3882.0,0.0025262411970197185
3881.0,0.002613615602686581
3880.0,0.0027447101798967477
3879.0,0.0027884171674950053
3878.0,0.002701007590486082
3877.0,0.0025262411970197185
3876.0,0.002395212539545666
3875.0,0.0023078820582733695
3874.0,0.0022642234021015284
3873.0,0.0021769192542746563
3872.0,0.0021332737608552588
3871.0,0.0021332737608552588
3870.0,0.0022205691343961664
3869.0,0.0022205691343961664
3868.0,0.0021332737608552588
3867.0,0.0019587356365717845
3866.0,0.0018714928717336043
3865.0,0.0019587356365717845
3864.0,0.0022205691343961664
3863.0,0.002395212539545666
3862.0,0.0024388843664115978
3861.0,0.002395212539545666
3860.0,0.002395212539545666
3859.0,0.002351545103793873
3858.0,0.0022205691343961664
3857.0,0.0020023635919956817
3856.0,0.0018278780605593958
3855.0,0.0017406615763013722
3854.0,0.0016970599014589638
3853.0,0.0014355417390583547
3852.0,0.0011306361176557367
3851.0,0.0011306361176557367
3850.0,0.0014791171649619628
3849.0,0.001915112063444413
3848.0,0.0022205691343961664
3847.0,0.002395212539545666
3846.0,0.002395212539545666
3845.0,0.002395212539545666
3844.0,0.002482560585275184
3843.0,0.0025262411970197185
3842.0,0.002482560585275184
3841.0,0.0023078820582733695
3840.0,0.0020459959305969555
3839.0,0.0016970599014589638
3838.0,0.0014355417390583547
3837.0,0.001348404001626502
3836.0,0.0014355417390583547
3835.0,0.0016970599014589638
3834.0,0.0020023635919956817
3833.0,0.0022205691343961664
3832.0,0.0023078820582733695
3831.0,0.002395212539545666
3830.0,0.002482560585275184
3829.0,0.002569926202528716
3828.0,0.002701007590486082
3827.0,0.0028758443407954637
3826.0,0.0029632891174733444
3825.0,0.0028321285541661467
3824.0,0.0025262411970197185
3823.0,0.0021769192542746563
3822.0,0.0019587356365717845
3821.0,0.0018278780605593958
3820.0,0.001609869681952425
3819.0,0.0014355417390583547
3818.0,0.0013919706849057079
3817.0,0.0016534626036355249
3816.0,0.0021332737608552588
3815.0,0.002482560585275184
3814.0,0.002701007590486082
3813.0,0.0028321285541661467
3812.0,0.0029195645282691363
3811.0,0.0029632891174733444
3810.0,0.0029195645282691363
3809.0,0.0027884171674950053
3808.0,0.0026573093983774942
3807.0,0.0025262411970197185
3806.0,0.0024388843664115978
3805.0,0.0022642234021015284
3804.0,0.0021769192542746563
3803.0,0.0021769192542746563
3802.0,0.0024388843664115978
3801.0,0.002613615602686581
3800.0,0.0025262411970197185
3799.0,0.002395212539545666
3798.0,0.002395212539545666
3797.0,0.0025262411970197185
3796.0,0.0027447101798967477
3795.0,0.0028758443407954637
3794.0,0.0029195645282691363
3793.0,0.0029632891174733444
3792.0,0.0030944893043338695
3791.0,0.0032694845648473247
3790.0,0.0034007772998332353
3789.0,0.0034007772998332353
3788.0,0.0033132443998284966
3787.0,0.0031819781204844855
3786.0,0.0031382315093266833
3785.0,0.0030944893043338695
3784.0,0.0030070181092942683
3783.0,0.0028758443407954637
3782.0,0.0027447101798967477
3781.0,0.0026573093983774942
3780.0,0.002701007590486082
3779.0,0.0028321285541661467
3778.0,0.0030070181092942683
3777.0,0.0031819781204844855
3776.0,0.0033570086445275926
3775.0,0.003488327845821315
3774.0,0.003488327845821315
3773.0,0.0033570086445275926
3772.0,0.0031819781204844855
3771.0,0.0030944893043338695
3770.0,0.0031382315093266833
3769.0,0.0032257291386954545
3768.0,0.0032257291386954545
3767.0,0.0031819781204844855
3766.0,0.0031382315093266833
3765.0,0.003050751504618754
3764.0,0.0029195645282691363
3763.0,0.0027884171674950053
3762.0,0.002701007590486082
3761.0,0.002701007590486082
3760.0,0.0028758443407954637
3759.0,0.0030944893043338695
3758.0,0.0031819781204844855
3757.0,0.003050751504618754
3756.0,0.0027447101798967477
3755.0,0.002351545103793873
3754.0,0.0018714928717336043
3753.0,0.0014791171649619628
3752.0,0.001348404001626502
3751.0,0.0013919706849057079
3750.0,0.0012612837441823288
3749.0,0.0009565003968372565
3748.0,0.0006954276616513155
3747.0,0.0005649501236701937
3746.0,0.0006519307932786322
3745.0,0.0009565003968372565
3744.0,0.0012612837441823288
3743.0,0.0013919706849057079
3742.0,0.0015226969634936083
3741.0,0.0016970599014589638
3740.0,0.0017406615763013722
3739.0,0.0016970599014589638
3738.0,0.0014791171649619628
3737.0,0.0012177301682640973
3736.0,0.0011306361176557367
3735.0,0.0012612837441823288
3734.0,0.0014355417390583547
3733.0,0.0015662811355310335
3732.0,0.0016970599014589638
3731.0,0.0018278780605593958
3730.0,0.0019587356365717845
3729.0,0.002089632653256679
3728.0,0.0021769192542746563
3727.0,0.0022642234021015284
3726.0,0.002395212539545666
3725.0,0.0024388843664115978
3724.0,0.0024388843664115978
3723.0,0.0025262411970197185
3722.0,0.0026573093983774942
3721.0,0.0028758443407954637
3720.0,0.0030944893043338695
3719.0,0.0032257291386954545
3718.0,0.0032257291386954545
3717.0,0.0031382315093266833
3716.0,0.0028758443407954637
3715.0,0.002569926202528716
3714.0,0.0022205691343961664
3713.0,0.0021332737608552588
3712.0,0.0023078820582733695
3711.0,0.002482560585275184
3710.0,0.0025262411970197185
3709.0,0.0025262411970197185
3708.0,0.002613615602686581
3707.0,0.0027884171674950053
3706.0,0.0029632891174733444
3705.0,0.003050751504618754
3704.0,0.003050751504618754
3703.0,0.0030944893043338695
3702.0,0.0031819781204844855
3701.0,0.0032694845648473247
3700.0,0.0033132443998284966
3699.0,0.0034445503666347133
3698.0,0.0036634819042162814
3697.0,0.0038825238627120395
3696.0,0.00401400208620073
3695.0,0.003970171588923321
3694.0,0.003794893821675638
3693.0,0.0035321097382827737
3692.0,0.0033132443998284966
3691.0,0.0030944893043338695
3690.0,0.0028321285541661467
3689.0,0.0025262411970197185
3688.0,0.002351545103793873
3687.0,0.002395212539545666
3686.0,0.002701007590486082
3685.0,0.0031819781204844855
3684.0,0.0035758960449088217
3683.0,0.0038387066319929275
3682.0,0.0038825238627120395
3681.0,0.003794893821675638
3680.0,0.003619686766589858
3679.0,0.0033570086445275926
3678.0,0.0030944893043338695
3677.0,0.0029632891174733444
3676.0,0.0029195645282691363
3675.0,0.0027884171674950053
3674.0,0.002613615602686581
3673.0,0.0025262411970197185
3672.0,0.0026573093983774942
3671.0,0.0030070181092942683
3670.0,0.0033570086445275926
3669.0,0.0035321097382827737
3668.0,0.003488327845821315
3667.0,0.003488327845821315
3666.0,0.003707281458678491
3665.0,0.003970171588923321
3664.0,0.004233220950025984
3663.0,0.004408675747646695
3662.0,0.004452550524862486
3661.0,0.004408675747646695
3660.0,0.0043648054024501
3659.0,0.004320939488377862
3658.0,0.004320939488377862
3657.0,0.0043648054024501
3656.0,0.004320939488377862
3655.0,0.004101676353562844
3654.0,0.003707281458678491
3653.0,0.0032257291386954545
3652.0,0.0027884171674950053
3651.0,0.0027447101798967477
3650.0,0.003050751504618754
3649.0,0.0031382315093266833
3648.0,0.0028321285541661467
3647.0,0.002482560585275184
3646.0,0.0024388843664115978
3645.0,0.0027447101798967477
3644.0,0.0030944893043338695
3643.0,0.0033570086445275926
3642.0,0.0035321097382827737
3641.0,0.0035758960449088217
3640.0,0.0035758960449088217
3639.0,0.003619686766589858
3638.0,0.003707281458678491
3637.0,0.0038387066319929275
3636.0,0.0038825238627120395
3635.0,0.0038387066319929275
3634.0,0.0036634819042162814
3633.0,0.0033570086445275926
3632.0,0.0030070181092942683
3631.0,0.002613615602686581
3630.0,0.0025262411970197185
3629.0,0.0026573093983774942
3628.0,0.002701007590486082
3627.0,0.002569926202528716
3626.0,0.0025262411970197185
3625.0,0.0025262411970197185
3624.0,0.0025262411970197185
3623.0,0.002482560585275184
3622.0,0.002395212539545666
3621.0,0.002351545103793873
3620.0,0.002482560585275184
3619.0,0.002613615602686581
3618.0,0.002613615602686581
3617.0,0.002613615602686581
3616.0,0.002613615602686581
3615.0,0.0027447101798967477
3614.0,0.0029195645282691363
3613.0,0.003050751504618754
3612.0,0.003050751504618754
3611.0,0.0029632891174733444
3610.0,0.0029632891174733444
3609.0,0.0030944893043338695
3608.0,0.0033132443998284966
3607.0,0.0034007772998332353
3606.0,0.0033132443998284966
3605.0,0.0032257291386954545
3604.0,0.0031382315093266833
3603.0,0.0031382315093266833
3602.0,0.0032694845648473247
3601.0,0.0034445503666347133
3600.0,0.003619686766589858
3599.0,0.0036634819042162814
3598.0,0.003707281458678491
3597.0,0.0036634819042162814
3596.0,0.003619686766589858
3595.0,0.0035758960449088217
3594.0,0.0035321097382827737
3593.0,0.003488327845821315
3592.0,0.0034007772998332353
3591.0,0.0032694845648473247
3590.0,0.0030944893043338695
3589.0,0.0029195645282691363
3588.0,0.0027884171674950053
3587.0,0.002701007590486082
3586.0,0.002701007590486082
3585.0,0.0027884171674950053
3584.0,0.003050751504618754
3583.0,0.0033570086445275926
3582.0,0.003619686766589858
3581.0,0.0037510854308679953
3580.0,0.0038387066319929275
3579.0,0.0038825238627120395
3578.0,0.0038825238627120395
3577.0,0.003926345514724705
3576.0,0.003926345514724705
3575.0,0.003970171588923321
3574.0,0.003970171588923321
3573.0,0.0038825238627120395
3572.0,0.0037510854308679953
3571.0,0.0035321097382827737
3570.0,0.0033132443998284966
3569.0,0.0032257291386954545
3568.0,0.0032694845648473247
3567.0,0.0033570086445275926
3566.0,0.0033132443998284966
3565.0,0.0032694845648473247
3564.0,0.0033132443998284966
3563.0,0.003488327845821315
3562.0,0.003707281458678491
3561.0,0.003970171588923321
3560.0,0.004145520125434121
3559.0,0.004233220950025984
3558.0,0.004189368323957332
3557.0,0.0040578370074493275
3556.0,0.003926345514724705
3555.0,0.0038387066319929275
3554.0,0.0038825238627120395
3553.0,0.003970171588923321
3552.0,0.0040578370074493275
3551.0,0.004189368323957332
3550.0,0.004277078004534696
3549.0,0.004320939488377862
3548.0,0.004277078004534696
3547.0,0.004233220950025984
3546.0,0.004189368323957332
3545.0,0.004101676353562844
3544.0,0.0040578370074493275
3543.0,0.003970171588923321
3542.0,0.003926345514724705
3541.0,0.003926345514724705
3540.0,0.003970171588923321
3539.0,0.003970171588923321
3538.0,0.00401400208620073
3537.0,0.0040578370074493275
3536.0,0.0040578370074493275
3535.0,0.004101676353562844
3534.0,0.004101676353562844
3533.0,0.004101676353562844
3532.0,0.004101676353562844
3531.0,0.0040578370074493275
3530.0,0.003970171588923321
3529.0,0.0038825238627120395
3528.0,0.0038387066319929275
3527.0,0.003926345514724705
3526.0,0.0040578370074493275
3525.0,0.004233220950025984
3524.0,0.004233220950025984
3523.0,0.004145520125434121
3522.0,0.0040578370074493275
3521.0,0.004145520125434121
3520.0,0.004320939488377862
3519.0,0.004628093971837721
3518.0,0.004759798137184523
3517.0,0.004715892310740433
3516.0,0.0044964297349936455
3515.0,0.004277078004534696
3514.0,0.004189368323957332
3513.0,0.004233220950025984
3512.0,0.0043648054024501
3511.0,0.004408675747646695
3510.0,0.004452550524862486
3509.0,0.004408675747646695
3508.0,0.0043648054024501
3507.0,0.004277078004534696
3506.0,0.004145520125434121
3505.0,0.0040578370074493275
3504.0,0.00401400208620073
3503.0,0.00401400208620073
3502.0,0.004101676353562844
3501.0,0.004189368323957332
3500.0,0.004320939488377862
3499.0,0.004408675747646695
3498.0,0.004408675747646695
3497.0,0.004408675747646695
3496.0,0.004320939488377862
3495.0,0.004277078004534696
3494.0,0.004189368323957332
3493.0,0.004189368323957332
3492.0,0.004189368323957332
3491.0,0.004233220950025984
3490.0,0.004233220950025984
3489.0,0.004277078004534696
3488.0,0.004320939488377862
3487.0,0.0043648054024501
3486.0,0.0043648054024501
3485.0,0.0043648054024501
3484.0,0.0043648054024501
3483.0,0.0043648054024501
3482.0,0.004320939488377862
3481.0,0.004277078004534696
3480.0,0.004189368323957332
3479.0,0.004101676353562844
3478.0,0.004145520125434121
3477.0,0.004233220950025984
3476.0,0.0043648054024501
3475.0,0.0043648054024501
3474.0,0.004233220950025984
3473.0,0.0040578370074493275
3472.0,0.003926345514724705
3471.0,0.003926345514724705
3470.0,0.0040578370074493275
3469.0,0.004233220950025984
3468.0,0.004408675747646695
3467.0,0.00458420145758498
3466.0,0.004628093971837721
3465.0,0.004540313378935901
3464.0,0.0043648054024501
3463.0,0.004189368323957332
3462.0,0.0040578370074493275
3461.0,0.0040578370074493275
3460.0,0.004145520125434121
3459.0,0.004320939488377862
3458.0,0.004452550524862486
3457.0,0.004540313378935901
3456.0,0.0044964297349936455
3455.0,0.0043648054024501
3454.0,0.004277078004534696
3453.0,0.004233220950025984
3452.0,0.004189368323957332
3451.0,0.004233220950025984
3450.0,0.004277078004534696
3449.0,0.0043648054024501
3448.0,0.004540313378935901
3447.0,0.004759798137184523
3446.0,0.00489154225525934
3445.0,0.00484762310854614
3444.0,0.004671990922590297
3443.0,0.0044964297349936455
3442.0,0.0043648054024501
3441.0,0.004408675747646695
3440.0,0.0044964297349936455
3439.0,0.00458420145758498
3438.0,0.00458420145758498
3437.0,0.0044964297349936455
3436.0,0.0043648054024501
3435.0,0.004277078004534696
3434.0,0.0043648054024501
3433.0,0.004540313378935901
3432.0,0.004803708402820517
3431.0,0.004935465843858511
3430.0,0.004979393875242044
3429.0,0.00489154225525934
3428.0,0.004715892310740433
3427.0,0.004540313378935901
3426.0,0.004408675747646695
3425.0,0.0043648054024501
3424.0,0.004452550524862486
3423.0,0.004671990922590297
3422.0,0.004803708402820517
3421.0,0.004803708402820517
3420.0,0.004628093971837721
3419.0,0.004408675747646695
3418.0,0.004233220950025984
3417.0,0.004233220950025984
3416.0,0.004320939488377862
3415.0,0.004540313378935901
3414.0,0.004715892310740433
3413.0,0.00484762310854614
3412.0,0.00489154225525934
3411.0,0.004803708402820517
3410.0,0.004715892310740433
3409.0,0.004628093971837721
3408.0,0.00458420145758498
3407.0,0.004540313378935901
3406.0,0.004540313378935901
3405.0,0.0044964297349936455
3404.0,0.004408675747646695
3403.0,0.004320939488377862
3402.0,0.004233220950025984
3401.0,0.004233220950025984
3400.0,0.004277078004534696
3399.0,0.0043648054024501
3398.0,0.0043648054024501
3397.0,0.004408675747646695
3396.0,0.004408675747646695
3395.0,0.0044964297349936455
3394.0,0.004540313378935901
3393.0,0.004540313378935901
3392.0,0.0044964297349936455
3391.0,0.0043648054024501
3390.0,0.004320939488377862
3389.0,0.004320939488377862
3388.0,0.0043648054024501
3387.0,0.0043648054024501
3386.0,0.0043648054024501
3385.0,0.0043648054024501
3384.0,0.0043648054024501
3383.0,0.004408675747646695
3382.0,0.004452550524862486
3381.0,0.004452550524862486
3380.0,0.004452550524862486
3379.0,0.004452550524862486
3378.0,0.004408675747646695
3377.0,0.0043648054024501
3376.0,0.004320939488377862
3375.0,0.004233220950025984
3374.0,0.004189368323957332
3373.0,0.004145520125434121
3372.0,0.004145520125434121
3371.0,0.004233220950025984
3370.0,0.0043648054024501
3369.0,0.004452550524862486
3368.0,0.0044964297349936455
3367.0,0.004540313378935901
3366.0,0.00458420145758498
3365.0,0.004671990922590297
3364.0,0.004671990922590297
3363.0,0.00458420145758498
3362.0,0.004452550524862486
3361.0,0.004320939488377862
3360.0,0.004277078004534696
3359.0,0.004320939488377862
3358.0,0.004408675747646695
3357.0,0.004452550524862486
3356.0,0.004408675747646695
3355.0,0.004277078004534696
3354.0,0.004145520125434121
3353.0,0.003970171588923321
3352.0,0.0038825238627120395
3351.0,0.0038825238627120395
3350.0,0.003970171588923321
3349.0,0.004145520125434121
3348.0,0.0043648054024501
3347.0,0.0044964297349936455
3346.0,0.004628093971837721
3345.0,0.004671990922590297
3344.0,0.004671990922590297
3343.0,0.00458420145758498
3342.0,0.004452550524862486
3341.0,0.0043648054024501
3340.0,0.004320939488377862
3339.0,0.0043648054024501
3338.0,0.004452550524862486
3337.0,0.004540313378935901
3336.0,0.004628093971837721
3335.0,0.004671990922590297
3334.0,0.004671990922590297
3333.0,0.004628093971837721
3332.0,0.0044964297349936455
3331.0,0.004320939488377862
3330.0,0.004145520125434121
3329.0,0.004101676353562844
3328.0,0.004233220950025984
3327.0,0.0043648054024501
3326.0,0.0044964297349936455
3325.0,0.004452550524862486
3324.0,0.0043648054024501
3323.0,0.004233220950025984
3322.0,0.004101676353562844
3321.0,0.004101676353562844
3320.0,0.004233220950025984
3319.0,0.004408675747646695
3318.0,0.0044964297349936455
3317.0,0.0044964297349936455
3316.0,0.0043648054024501
3315.0,0.004189368323957332
3314.0,0.0040578370074493275
3313.0,0.0040578370074493275
3312.0,0.004101676353562844
3311.0,0.004145520125434121
3310.0,0.0040578370074493275
3309.0,0.003926345514724705
3308.0,0.0038387066319929275
3307.0,0.003794893821675638
3306.0,0.003926345514724705
3305.0,0.004101676353562844
3304.0,0.004277078004534696
3303.0,0.0043648054024501
3302.0,0.0043648054024501
3301.0,0.004277078004534696
3300.0,0.004145520125434121
3299.0,0.004145520125434121
3298.0,0.004189368323957332
3297.0,0.0043648054024501
3296.0,0.004452550524862486
3295.0,0.004452550524862486
3294.0,0.0043648054024501
3293.0,0.004189368323957332
3292.0,0.0040578370074493275
3291.0,0.0040578370074493275
3290.0,0.004101676353562844
3289.0,0.004145520125434121
3288.0,0.004189368323957332
3287.0,0.004145520125434121
3286.0,0.0040578370074493275
3285.0,0.003926345514724705
3284.0,0.0038825238627120395
3283.0,0.003926345514724705
3282.0,0.003970171588923321
3281.0,0.00401400208620073
3280.0,0.003970171588923321
3279.0,0.003970171588923321
3278.0,0.003970171588923321
3277.0,0.003970171588923321
3276.0,0.003926345514724705
3275.0,0.0038825238627120395
3274.0,0.003926345514724705
3273.0,0.00401400208620073
3272.0,0.004101676353562844
3271.0,0.004189368323957332
3270.0,0.004189368323957332
3269.0,0.004189368323957332
3268.0,0.004189368323957332
3267.0,0.004233220950025984
3266.0,0.004277078004534696
3265.0,0.004277078004534696
3264.0,0.004277078004534696
3263.0,0.004233220950025984
3262.0,0.004189368323957332
3261.0,0.004145520125434121
3260.0,0.0040578370074493275
3259.0,0.003970171588923321
3258.0,0.0038387066319929275
3257.0,0.003794893821675638
3256.0,0.003794893821675638
3255.0,0.003794893821675638
3254.0,0.0038387066319929275
3253.0,0.003926345514724705
3252.0,0.00401400208620073
3251.0,0.004101676353562844
3250.0,0.004145520125434121
3249.0,0.004233220950025984
3248.0,0.004233220950025984
3247.0,0.004145520125434121
3246.0,0.00401400208620073
3245.0,0.0038825238627120395
3244.0,0.0038387066319929275
3243.0,0.0038387066319929275
3242.0,0.0038387066319929275
3241.0,0.0038825238627120395
3240.0,0.003926345514724705
3239.0,0.003926345514724705
3238.0,0.0038825238627120395
3237.0,0.0037510854308679953
3236.0,0.003619686766589858
3235.0,0.0035758960449088217
3234.0,0.0036634819042162814
3233.0,0.0037510854308679953
3232.0,0.0038825238627120395
3231.0,0.00401400208620073
3230.0,0.004189368323957332
3229.0,0.0043648054024501
3228.0,0.004452550524862486
3227.0,0.004408675747646695
3226.0,0.004277078004534696
3225.0,0.004145520125434121
3224.0,0.0040578370074493275
3223.0,0.00401400208620073
3222.0,0.003970171588923321
3221.0,0.0038387066319929275
3220.0,0.0037510854308679953
3219.0,0.0037510854308679953
3218.0,0.003794893821675638
3217.0,0.003926345514724705
3216.0,0.00401400208620073
3215.0,0.0040578370074493275
3214.0,0.004101676353562844
3213.0,0.004101676353562844
3212.0,0.004189368323957332
3211.0,0.004233220950025984
3210.0,0.004320939488377862
3209.0,0.0043648054024501
3208.0,0.004320939488377862
3207.0,0.004277078004534696
3206.0,0.004233220950025984
3205.0,0.004145520125434121
3204.0,0.004145520125434121
3203.0,0.004189368323957332
3202.0,0.004277078004534696
3201.0,0.004320939488377862
3200.0,0.004277078004534696
3199.0,0.004189368323957332
3198.0,0.004145520125434121
3197.0,0.004145520125434121
3196.0,0.004189368323957332
3195.0,0.004320939488377862
3194.0,0.004408675747646695
3193.0,0.004408675747646695
3192.0,0.004320939488377862
3191.0,0.004189368323957332
3190.0,0.0040578370074493275
3189.0,0.003926345514724705
3188.0,0.0038387066319929275
3187.0,0.0038387066319929275
3186.0,0.003970171588923321
3185.0,0.004101676353562844
3184.0,0.004145520125434121
3183.0,0.004145520125434121
3182.0,0.004101676353562844
3181.0,0.00401400208620073
3180.0,0.003970171588923321
3179.0,0.003970171588923321
3178.0,0.00401400208620073
3177.0,0.0040578370074493275
3176.0,0.00401400208620073
3175.0,0.003926345514724705
3174.0,0.0038387066319929275
3173.0,0.0037510854308679953
3172.0,0.003707281458678491
3171.0,0.003707281458678491
3170.0,0.003707281458678491
3169.0,0.003707281458678491
3168.0,0.0037510854308679953
3167.0,0.0038387066319929275
3166.0,0.003970171588923321
3165.0,0.00401400208620073
3164.0,0.003970171588923321
3163.0,0.0038825238627120395
3162.0,0.0037510854308679953
3161.0,0.003707281458678491
3160.0,0.003619686766589858
3159.0,0.0035321097382827737
3158.0,0.0034445503666347133
3157.0,0.0033570086445275926
3156.0,0.0033570086445275926
3155.0,0.0034007772998332353
3154.0,0.0034445503666347133
3153.0,0.0034445503666347133
3152.0,0.0034007772998332353
3151.0,0.0034445503666347133
3150.0,0.0035321097382827737
3149.0,0.0036634819042162814
3148.0,0.0037510854308679953
3147.0,0.0037510854308679953
3146.0,0.003707281458678491
3145.0,0.003707281458678491
3144.0,0.0037510854308679953
3143.0,0.0037510854308679953
3142.0,0.003707281458678491
3141.0,0.0035758960449088217
3140.0,0.0034445503666347133
3139.0,0.0033132443998284966
3138.0,0.0031819781204844855
3137.0,0.0030944893043338695
3136.0,0.003050751504618754
3135.0,0.003050751504618754
3134.0,0.0030944893043338695
3133.0,0.0031382315093266833
3132.0,0.0031382315093266833
3131.0,0.0030944893043338695
3130.0,0.0030070181092942683
3129.0,0.0029632891174733444
3128.0,0.0029195645282691363
3127.0,0.0029195645282691363
3126.0,0.0028758443407954637
3125.0,0.0028321285541661467
3124.0,0.0027884171674950053
3123.0,0.0027884171674950053
3122.0,0.0027884171674950053
3121.0,0.0028321285541661467
3120.0,0.0028758443407954637
3119.0,0.0030070181092942683
3118.0,0.003050751504618754
3117.0,0.0030070181092942683
3116.0,0.0029632891174733444
3115.0,0.0029195645282691363
3114.0,0.0029195645282691363
3113.0,0.0028758443407954637
3112.0,0.0027884171674950053
3111.0,0.0026573093983774942
3110.0,0.002569926202528716
3109.0,0.002569926202528716
3108.0,0.002569926202528716
3107.0,0.002613615602686581
3106.0,0.002569926202528716
3105.0,0.002569926202528716
3104.0,0.0025262411970197185
3103.0,0.0025262411970197185
3102.0,0.002482560585275184
3101.0,0.002482560585275184
3100.0,0.002395212539545666
3099.0,0.0023078820582733695
3098.0,0.0022642234021015284
3097.0,0.0022642234021015284
3096.0,0.0022642234021015284
3095.0,0.0022642234021015284
3094.0,0.0022642234021015284
3093.0,0.0023078820582733695
3092.0,0.0023078820582733695
3091.0,0.002351545103793873
3090.0,0.0023078820582733695
3089.0,0.0022642234021015284
3088.0,0.0021769192542746563
3087.0,0.002089632653256679
3086.0,0.0020459959305969555
3085.0,0.0020459959305969555
3084.0,0.0020023635919956817
3083.0,0.0020023635919956817
3082.0,0.0020459959305969555
3081.0,0.0020459959305969555
3080.0,0.002089632653256679
3079.0,0.0020459959305969555
3078.0,0.0019587356365717845
3077.0,0.001915112063444413
3076.0,0.0018278780605593958
3075.0,0.0018278780605593958
3074.0,0.0017842676290416026
3073.0,0.0017842676290416026
3072.0,0.0017406615763013722
3071.0,0.001609869681952425
3070.0,0.0015226969634936083
3069.0,0.0015226969634936083
3068.0,0.0015226969634936083
3067.0,0.0015662811355310335
3066.0,0.0015662811355310335
3065.0,0.001609869681952425
3064.0,0.001609869681952425
3063.0,0.001609869681952425
3062.0,0.001609869681952425
3061.0,0.0015662811355310335
3060.0,0.001609869681952425
3059.0,0.0016970599014589638
3058.0,0.0017842676290416026
3057.0,0.001915112063444413
3056.0,0.0019587356365717845
3055.0,0.0018714928717336043
3054.0,0.0017406615763013722
3053.0,0.0015662811355310335
3052.0,0.0014791171649619628
3051.0,0.0015226969634936083
3050.0,0.0015662811355310335
3049.0,0.0016970599014589638
3048.0,0.0017842676290416026
3047.0,0.0018278780605593958
3046.0,0.0018278780605593958
3045.0,0.0018278780605593958
3044.0,0.0017406615763013722
3043.0,0.001609869681952425
3042.0,0.0014791171649619628
3041.0,0.0014791171649619628
3040.0,0.0015226969634936083
3039.0,0.0016534626036355249
3038.0,0.0017406615763013722
3037.0,0.0017842676290416026
3036.0,0.0017406615763013722
3035.0,0.0016970599014589638
3034.0,0.0016534626036355249
3033.0,0.0015662811355310335
3032.0,0.0015226969634936083
3031.0,0.0014791171649619628
3030.0,0.0014791171649619628
3029.0,0.0014791171649619628
3028.0,0.0015662811355310335
3027.0,0.0016534626036355249
3026.0,0.0018278780605593958
3025.0,0.001915112063444413
3024.0,0.0019587356365717845
3023.0,0.0020023635919956817
3022.0,0.0020459959305969555
3021.0,0.0021769192542746563
3020.0,0.002395212539545666
3019.0,0.002613615602686581
3018.0,0.0027447101798967477
3017.0,0.0027884171674950053
3016.0,0.0028321285541661467
3015.0,0.0029195645282691363
3014.0,0.0031819781204844855
3013.0,0.003488327845821315
3012.0,0.0037510854308679953
3011.0,0.003926345514724705
3010.0,0.003970171588923321
3009.0,0.00401400208620073
3008.0,0.0040578370074493275
3007.0,0.004189368323957332
3006.0,0.0043648054024501
3005.0,0.004540313378935901
3004.0,0.004759798137184523
3003.0,0.005023326350308999
3002.0,0.0052870145684298375
3001.0,0.005506877116487674
3000.0,0.00577085918230158
2999.0,0.005990966876386672
2998.0,0.00621118618129457
2997.0,0.006475596832934416
2996.0,0.006784279525863024
2995.0,0.007093181776687496
2994.0,0.0074464821678643656
2993.0,0.007844288957383316
2992.0,0.008419542825660153
2991.0,0.009128595198514056
2990.0,0.009838807101520963
2989.0,0.010505687227290839
2988.0,0.011084479487313281
2987.0,0.011619434777991433
2986.0,0.01215504982870197
2985.0,0.012825498912458322
2984.0,0.013586594534531482
2983.0,0.014573525916998342
2982.0,0.015742798294583915
2981.0,0.017141057687924732
2980.0,0.018679826740892747
2979.0,0.020315076172974234
2978.0,0.022139270735302752
2977.0,0.024154774532432866
2976.0,0.026456531467510258
2975.0,0.02904906565457588
2974.0,0.032031037121307726
2973.0,0.03531618502395939
2972.0,0.038958783046687984
2971.0,0.04291974034210022
2970.0,0.04715914332429838
2969.0,0.05163594401163074
2968.0,0.056456022846545606
2967.0,0.06153031163235467
2966.0,0.0666645899223488
2965.0,0.07175781684269089
2964.0,0.07654873036034848
2963.0,0.08086958613938555
2962.0,0.08454739831152125
2961.0,0.08756536662442538
2960.0,0.09028354676565531
2959.0,0.09291125492570451
2958.0,0.09587978652380036
2957.0,0.09946901754724413
2956.0,0.1038045895457893
2955.0,0.10896458468468917
2954.0,0.1148084593931522
2953.0,0.1207893947082408
2952.0,0.1263307072932056
2951.0,0.1305922506177981
2950.0,0.13270933014511588
2949.0,0.132179091954427
2948.0,0.12883586719705065
2947.0,0.12297438413275108
2946.0,0.11531789579397489
2945.0,0.10679324694015202
2944.0,0.09816040794877057
2943.0,0.09028354676565531
2942.0,0.08365134772453975
2941.0,0.07857365898473456
2940.0,0.07520400420208784
2939.0,0.0734517753643813
2938.0,0.07319468988839395
2937.0,0.07422394616325367
2936.0,0.0763933569825408
2935.0,0.07966792846041071
2934.0,0.0838620168928248
2933.0,0.08884239126002336
2932.0,0.09452793807529569
2931.0,0.10078158214862709
2930.0,0.10746019534136453
2929.0,0.11429961987167014
2928.0,0.12113366304327466
2927.0,0.1277271537757949
2926.0,0.1340081998737246
2925.0,0.1399616101928065
2924.0,0.14575470293388149
2923.0,0.15168769637271562
2922.0,0.1577028656719348
2921.0,0.16367588429324842
2920.0,0.16921892439363884
2919.0,0.17360121781238225
2918.0,0.17633018673186363
2917.0,0.17698247655395072
2916.0,0.1754836719927908
2915.0,0.17224313702138327
2914.0,0.16781053893148679
2913.0,0.16272729749769965
2912.0,0.15757799664235028
2911.0,0.1527358982292355
2910.0,0.1482525808667361
2909.0,0.1441175699639643
2908.0,0.1402014525194344
2907.0,0.13649869935854997
2906.0,0.13276828548110586
2905.0,0.12895273869450063
2904.0,0.1251124891538875
2903.0,0.12113366304327466
2902.0,0.11719095860756013
2901.0,0.11328372588352176
2900.0,0.10941133229451272
2899.0,0.10562854614376227
2898.0,0.10204318999304807
2897.0,0.09875969792669093
2896.0,0.09587978652380036
2895.0,0.09339562827501968
2894.0,0.09135416109288674
2893.0,0.08974922769985194
2892.0,0.0885227828938977
2891.0,0.08772478950118767
2890.0,0.0872466963286771
2889.0,0.08708744882390307
2888.0,0.0872997918091396
2887.0,0.0877779434675845
2886.0,0.08841629901892434
2885.0,0.0892689019566193
2884.0,0.09044397075882471
2883.0,0.09189045960744768
2882.0,0.09366495819490939
2881.0,0.09560907998763835
2880.0,0.09767069414168117
2879.0,0.09946901754724413
2878.0,0.10072681268239614
2877.0,0.10127481841050656
2876.0,0.10116516193172598
2875.0,0.10067205012234592
2874.0,0.10023419805561384
2873.0,0.10023419805561384
2872.0,0.10083635852278117
2871.0,0.10209812573177213
2870.0,0.10369429253391926
2869.0,0.10529634739076998
2868.0,0.10640466618011679
2867.0,0.10651565378151395
2866.0,0.10507502264045665
2865.0,0.10171372141087698
2864.0,0.09663866374468144
2863.0,0.09033701484598189
2862.0,0.08354605145007499
2861.0,0.07696333132921396
2860.0,0.0710411591191702
2859.0,0.06615853710127872
2858.0,0.06223143295006417
2857.0,0.05923456436878238
2856.0,0.0571489934456626
2855.0,0.05581353871631256
2854.0,0.055122694036304765
2853.0,0.0549255115212699
2852.0,0.055172003656783764
2851.0,0.05581353871631256
2850.0,0.056950888991593285
2849.0,0.05858795962645047
2848.0,0.060880282351513104
2847.0,0.06388856832514578
2846.0,0.0676277178520861
2845.0,0.07206531825882068
2844.0,0.07685964397479927
2843.0,0.08186477383364066
2842.0,0.0867691288864394
2841.0,0.09130056764777605
2840.0,0.09512223303659528
2839.0,0.09783387072894878
2838.0,0.09892328427374508
2837.0,0.09816040794877057
2836.0,0.09539263618455207
2835.0,0.09087205801073917
2834.0,0.08512818245994969
2833.0,0.07867775641617802
2832.0,0.07232173586200852
2831.0,0.06646209802829528
2830.0,0.06133019897732073
2829.0,0.057049929922901255
2828.0,0.053449489430144714
2827.0,0.050414848673348
2826.0,0.047934409814949674
2825.0,0.04580574818413763
2824.0,0.0439276630048171
2823.0,0.042344833056508824
2822.0,0.04091088563260792
2821.0,0.03962436858984186
2820.0,0.03848398855105106
2819.0,0.037488606492403154
2818.0,0.03663723389626394
2817.0,0.03597620715996652
2816.0,0.035363296211498474
2815.0,0.03479829897408804
2814.0,0.03423403581731388
2813.0,0.03362357691107709
2812.0,0.03301397488206215
2811.0,0.03240522732811035
2810.0,0.03179733185715028
2809.0,0.031190286087141805
2808.0,0.030537492025363155
2807.0,0.029885677714903025
2806.0,0.029281296279810798
2805.0,0.028677754757187035
2804.0,0.028075050815808744
2803.0,0.02751945012352408
2802.0,0.02691835039863255
2801.0,0.02636422658259252
2800.0,0.025856900097785074
2799.0,0.02539620791296726
2798.0,0.02498200236711723
2797.0,0.024660115394541604
2796.0,0.02438440203310499
2795.0,0.024154774532432866
2794.0,0.023925268380126097
2793.0,0.023695883447997224
2792.0,0.023374947949272418
2791.0,0.02300845469384938
2790.0,0.02259651912656535
2789.0,0.0221849739168134
2788.0,0.021819483062586187
2787.0,0.021499930688540836
2786.0,0.021135015652343103
2785.0,0.020770406977844713
2784.0,0.020406104151069693
2783.0,0.02013307743509718
2782.0,0.01990568621470623
2781.0,0.019769308608968306
2780.0,0.019632973815224997
2779.0,0.01940584422377989
2778.0,0.019178833355664393
2777.0,0.018951941086827073
2776.0,0.018725167293411005
2775.0,0.018543833477873584
2774.0,0.01840788278591865
2773.0,0.018271974638383703
2772.0,0.018181392829336396
2771.0,0.01809082990920774
2770.0,0.01800028587012159
2769.0,0.017909760704207134
2768.0,0.01781925440359733
2767.0,0.01768353030793479
2766.0,0.017547848615010242
2765.0,0.017457417697056554
2764.0,0.017367005605150476
2763.0,0.01727661233145472
2762.0,0.017186237868137555
2761.0,0.017095882207371904
2760.0,0.017005545341335804
2759.0,0.016870075265299933
2758.0,0.016734647433454652
2757.0,0.016554142658660398
2756.0,0.01646391839700767
2755.0,0.016418813294209356
2754.0,0.016418813294209356
2753.0,0.016418813294209356
2752.0,0.01632861713980338
2751.0,0.016238439713835096
2750.0,0.016148281008528276
2749.0,0.016058141016111804
2748.0,0.015922966097169144
2747.0,0.015832872853011715
2746.0,0.01578783323856614
2745.0,0.015742798294583915
2744.0,0.01578783323856614
2743.0,0.015877917138889863
2742.0,0.015922966097169144
2741.0,0.015922966097169144
2740.0,0.015922966097169144
2739.0,0.015922966097169144
2738.0,0.016013078034810446
2737.0,0.016193358021584725
2736.0,0.016418813294209356
2735.0,0.016644385668211692
2734.0,0.016870075265299933
2733.0,0.017005545341335804
2732.0,0.017141057687924732
2731.0,0.017231422748988034
2730.0,0.017412209298337533
2729.0,0.01768353030793479
2728.0,0.018045555530026514
2727.0,0.01831727262871463
2726.0,0.018543833477873584
2725.0,0.018725167293411005
2724.0,0.018770512579999288
2723.0,0.018770512579999288
2722.0,0.018634490921455527
2721.0,0.01845319495476394
2720.0,0.018226681372252695
2719.0,0.017955020928509757
2718.0,0.017728766960431575
2717.0,0.017502630802287644
2716.0,0.01727661233145472
2715.0,0.017095882207371904
2714.0,0.016870075265299933
2713.0,0.016644385668211692
2712.0,0.016418813294209356
2711.0,0.016238439713835096
2710.0,0.016013078034810446
2709.0,0.01578783323856614
2708.0,0.015517693597737248
2707.0,0.015247721884586563
2706.0,0.014977917890464765
2705.0,0.014843078722943437
2704.0,0.014753209197138295
2703.0,0.014663358264387139
2702.0,0.014618439768003144
2701.0,0.0144837121472845
2700.0,0.014349026309051105
2699.0,0.014169510141607944
2698.0,0.014079779876432497
2697.0,0.01403492169512921
2696.0,0.013990068146738865
2695.0,0.013945219230304673
2694.0,0.013990068146738865
2693.0,0.014079779876432497
2692.0,0.014169510141607944
2691.0,0.014214382227394795
2690.0,0.014259258949925524
2689.0,0.014259258949925524
2688.0,0.014259258949925524
2687.0,0.014259258949925524
2686.0,0.014259258949925524
2685.0,0.014214382227394795
2684.0,0.014124642691606404
2683.0,0.013990068146738865
2682.0,0.013900374944870508
2681.0,0.01385553528947936
2680.0,0.013990068146738865
2679.0,0.014124642691606404
2678.0,0.014214382227394795
2677.0,0.014214382227394795
2676.0,0.014124642691606404
2675.0,0.013990068146738865
2674.0,0.013945219230304673
2673.0,0.013900374944870508
2672.0,0.01385553528947936
2671.0,0.013765869865004277
2670.0,0.01372104409400876
2669.0,0.013631406429727155
2668.0,0.013631406429727155
2667.0,0.013586594534531482
2666.0,0.013586594534531482
2665.0,0.013586594534531482
2664.0,0.013586594534531482
2663.0,0.013496984613259544
2662.0,0.013452186585275916
2661.0,0.013452186585275916
2660.0,0.013452186585275916
2659.0,0.013452186585275916
2658.0,0.013407393177789162
2657.0,0.013317820220494436
2656.0,0.01322826573375524
2655.0,0.013138729709955221
2654.0,0.013049212141483357
2653.0,0.013049212141483357
2652.0,0.013049212141483357
2651.0,0.013004460275618523
2650.0,0.012959713020733288
2649.0,0.012914970375878188
2648.0,0.012825498912458322
2647.0,0.012736045877764557
2646.0,0.012691326268817527
2645.0,0.01264661126420652
2644.0,0.012691326268817527
2643.0,0.01264661126420652
2642.0,0.01260190086298274
2641.0,0.012557195064198723
2640.0,0.012467797270160563
2639.0,0.012378417874516323
2638.0,0.012289056869694281
2637.0,0.012289056869694281
2636.0,0.012289056869694281
2635.0,0.012289056869694281
2634.0,0.012244383261476699
2633.0,0.01215504982870197
2632.0,0.012110390002254778
2631.0,0.01215504982870197
2630.0,0.012244383261476699
2629.0,0.012333735073725371
2628.0,0.012378417874516323
2627.0,0.012378417874516323
2626.0,0.012378417874516323
2625.0,0.012289056869694281
2624.0,0.012199714248127602
2623.0,0.01215504982870197
2622.0,0.01215504982870197
2621.0,0.012199714248127602
2620.0,0.012333735073725371
2619.0,0.012423105273012602
2618.0,0.012467797270160563
2617.0,0.012467797270160563
2616.0,0.012467797270160563
2615.0,0.012423105273012602
2614.0,0.012333735073725371
2613.0,0.012199714248127602
2612.0,0.012065734767841452
2611.0,0.0119764380713403
2610.0,0.011931796607364653
2609.0,0.011887159731648111
2608.0,0.011887159731648111
2607.0,0.011842527443247208
2606.0,0.011797899741219142
2605.0,0.011753276624621556
2604.0,0.011797899741219142
2603.0,0.011797899741219142
2602.0,0.011753276624621556
2601.0,0.011664044143949504
2600.0,0.011530229790124524
2599.0,0.011485634166333858
2598.0,0.011441043121384498
2597.0,0.011441043121384498
2596.0,0.011485634166333858
2595.0,0.011530229790124524
2594.0,0.011574829993696856
2593.0,0.011664044143949504
2592.0,0.011753276624621556
2591.0,0.011842527443247208
2590.0,0.0119764380713403
2589.0,0.012065734767841452
2588.0,0.012110390002254778
2587.0,0.01215504982870197
2586.0,0.012199714248127602
2585.0,0.012289056869694281
2584.0,0.012333735073725371
2583.0,0.012423105273012602
2582.0,0.012512493866907004
2581.0,0.012557195064198723
2580.0,0.012557195064198723
2579.0,0.012512493866907004
2578.0,0.012423105273012602
2577.0,0.012333735073725371
2576.0,0.012199714248127602
2575.0,0.012021084124518078
2574.0,0.011887159731648111
2573.0,0.011708658092512314
2572.0,0.011574829993696856
2571.0,0.011441043121384498
2570.0,0.011351874764248926
2569.0,0.011307297450183107
2568.0,0.011262724711199823
2567.0,0.01117359295472431
2566.0,0.011039929609661936
2565.0,0.010906307389674463
2564.0,0.010817248744452446
2563.0,0.010817248744452446
2562.0,0.010817248744452446
2561.0,0.010817248744452446
2560.0,0.01086177578421088
2559.0,0.010950843561779777
2558.0,0.010995384301463185
2557.0,0.011084479487313281
2556.0,0.011129033935354915
2555.0,0.011129033935354915
2554.0,0.011084479487313281
2553.0,0.010995384301463185
2552.0,0.01086177578421088
2551.0,0.010683695010048622
2550.0,0.010550182333308289
2549.0,0.010416710688994968
2548.0,0.01037222925484893
2547.0,0.01037222925484893
2546.0,0.010505687227290839
2545.0,0.010594681998483901
2544.0,0.010550182333308289
2543.0,0.010416710688994968
2542.0,0.010283280051895272
2541.0,0.01023881228122181
2540.0,0.01023881228122181
2539.0,0.01023881228122181
2538.0,0.01023881228122181
2537.0,0.010194349063173958
2536.0,0.010149890396819572
2535.0,0.010194349063173958
2534.0,0.01023881228122181
2533.0,0.010283280051895272
2532.0,0.01023881228122181
2531.0,0.010149890396819572
2530.0,0.010105436281226954
2529.0,0.010105436281226954
2528.0,0.010105436281226954
2527.0,0.010105436281226954
2526.0,0.010105436281226954
2525.0,0.010105436281226954
2524.0,0.010060986715464404
2523.0,0.009972101229705377
2522.0,0.009883233932095559
2521.0,0.009794384815193347
2520.0,0.00974996707218323
2519.0,0.00974996707218323
2518.0,0.009794384815193347
2517.0,0.009838807101520963
2516.0,0.009838807101520963
2515.0,0.00974996707218323
2514.0,0.009572341514736404
2513.0,0.00939478857608056
2512.0,0.009306039320248427
2511.0,0.009261671492462709
2510.0,0.009350411681145587
2509.0,0.009483555971770974
2508.0,0.009572341514736404
2507.0,0.009572341514736404
2506.0,0.009572341514736404
2505.0,0.009527946474380489
2504.0,0.009483555971770974
2503.0,0.00939478857608056
2502.0,0.009306039320248427
2501.0,0.009261671492462709
2500.0,0.009261671492462709
2499.0,0.009306039320248427
2498.0,0.009350411681145587
2497.0,0.00939478857608056
2496.0,0.009439170005980158
2495.0,0.009483555971770974
2494.0,0.009527946474380489
2493.0,0.009527946474380489
2492.0,0.009439170005980158
2491.0,0.00939478857608056
2490.0,0.009306039320248427
2489.0,0.009306039320248427
2488.0,0.009306039320248427
2487.0,0.009350411681145587
2486.0,0.00939478857608056
2485.0,0.00939478857608056
2484.0,0.009439170005980158
2483.0,0.009483555971770974
2482.0,0.009527946474380489
2481.0,0.009483555971770974
2480.0,0.009350411681145587
2479.0,0.009128595198514056
2478.0,0.008995559669244813
2477.0,0.008995559669244813
2476.0,0.009039900317800775
2475.0,0.009172949432521227
2474.0,0.009261671492462709
2473.0,0.009306039320248427
2472.0,0.009306039320248427
2471.0,0.009217308196862062
2470.0,0.009128595198514056
2469.0,0.00908424549391551
2468.0,0.009039900317800775
2467.0,0.008995559669244813
2466.0,0.008995559669244813
2465.0,0.009039900317800775
2464.0,0.009128595198514056
2463.0,0.009172949432521227
2462.0,0.009172949432521227
2461.0,0.009172949432521227
2460.0,0.009172949432521227
2459.0,0.009128595198514056
2458.0,0.009039900317800775
2457.0,0.008906891951112605
2456.0,0.008906891951112605
2455.0,0.008951223547323472
2454.0,0.009039900317800775
2453.0,0.009128595198514056
2452.0,0.009172949432521227
2451.0,0.009261671492462709
2450.0,0.009350411681145587
2449.0,0.00939478857608056
2448.0,0.009439170005980158
2447.0,0.009439170005980158
2446.0,0.009439170005980158
2445.0,0.009439170005980158
2444.0,0.00939478857608056
2443.0,0.009350411681145587
2442.0,0.009261671492462709
2441.0,0.009217308196862062
2440.0,0.009172949432521227
2439.0,0.009128595198514056
2438.0,0.009172949432521227
2437.0,0.009217308196862062
2436.0,0.009261671492462709
2435.0,0.009261671492462709
2434.0,0.009261671492462709
2433.0,0.009261671492462709
2432.0,0.009306039320248427
2431.0,0.00939478857608056
2430.0,0.009439170005980158
2429.0,0.009439170005980158
2428.0,0.009439170005980158
2427.0,0.009439170005980158
2426.0,0.009439170005980158
2425.0,0.009439170005980158
2424.0,0.00939478857608056
2423.0,0.009350411681145587
2422.0,0.009306039320248427
2421.0,0.009306039320248427
2420.0,0.009306039320248427
2419.0,0.009350411681145587
2418.0,0.00939478857608056
2417.0,0.009439170005980158
2416.0,0.009439170005980158
2415.0,0.009439170005980158
2414.0,0.00939478857608056
2413.0,0.009306039320248427
2412.0,0.009261671492462709
2411.0,0.009172949432521227
2410.0,0.009172949432521227
2409.0,0.009172949432521227
2408.0,0.009172949432521227
2407.0,0.009217308196862062
2406.0,0.009261671492462709
2405.0,0.009306039320248427
2404.0,0.009261671492462709
2403.0,0.009172949432521227
2402.0,0.00908424549391551
2401.0,0.009039900317800775
2400.0,0.009039900317800775
2399.0,0.00908424549391551
2398.0,0.009128595198514056
2397.0,0.009172949432521227
2396.0,0.009217308196862062
2395.0,0.009261671492462709
2394.0,0.009217308196862062
2393.0,0.009172949432521227
2392.0,0.00908424549391551
2391.0,0.009039900317800775
2390.0,0.008951223547323472
2389.0,0.008906891951112605
2388.0,0.008818242332126802
2387.0,0.008773924307505121
2386.0,0.0087296108049002
2385.0,0.008685301823389224
2384.0,0.008596697419959609
2383.0,0.008552401996197112
2382.0,0.008463824699968647
2381.0,0.008419542825660153
2380.0,0.008286724286910463
2379.0,0.008153946355103248
2378.0,0.007976972236149349
2377.0,0.007844288957383316
2376.0,0.007800070204414977
2375.0,0.007888512213050314
2374.0,0.008153946355103248
2373.0,0.008463824699968647
2372.0,0.008596697419959609
2371.0,0.008419542825660153
2370.0,0.007844288957383316
2369.0,0.007137328610972382
2368.0,0.006475596832934416
2367.0,0.00625524344553785
2366.0,0.006651960076740071
2365.0,0.007358130121602358
2364.0,0.007755855953228474
2363.0,0.007490664932224611
2362.0,0.006872514894289861
2361.0,0.006607862550997545
2360.0,0.007004901568658406
2359.0,0.007888512213050314
2358.0,0.0087296108049002
2357.0,0.008995559669244813
2356.0,0.008419542825660153
2355.0,0.0075790439479759275
2354.0,0.007181479933320523
2353.0,0.007534852191956709
2352.0,0.008065450281052211
2351.0,0.008198201155356077
2350.0,0.007667440952535687
2349.0,0.00656376950238835
2348.0,0.00541891874010525
2347.0,0.004715892310740433
2346.0,0.004759798137184523
2345.0,0.005330978174470591
2344.0,0.005990966876386672
2343.0,0.006387442061109638
2342.0,0.006519680930003435
2341.0,0.006519680930003435
2340.0,0.00656376950238835
2339.0,0.006607862550997545
2338.0,0.006740168563263094
2337.0,0.00696076819309055
2336.0,0.007269796045857202
2335.0,0.0074464821678643656
2334.0,0.0074464821678643656
2333.0,0.007225635744644521
2332.0,0.007049039429553483
2331.0,0.007137328610972382
2330.0,0.007490664932224611
2329.0,0.007755855953228474
2328.0,0.007844288957383316
2327.0,0.007888512213050314
2326.0,0.007932739972333236
2325.0,0.007976972236149349
2324.0,0.007844288957383316
2323.0,0.00762324020119709
2322.0,0.007490664932224611
2321.0,0.007490664932224611
2320.0,0.0075790439479759275
2319.0,0.007755855953228474
2318.0,0.007932739972333236
2317.0,0.008109696063975047
2316.0,0.008242460465651913
2315.0,0.008242460465651913
2314.0,0.008198201155356077
2313.0,0.008109696063975047
2312.0,0.008021209005416363
2311.0,0.007844288957383316
2310.0,0.007755855953228474
2309.0,0.007711646202907652
2308.0,0.007755855953228474
2307.0,0.007755855953228474
2306.0,0.007755855953228474
2305.0,0.007711646202907652
2304.0,0.007711646202907652
2303.0,0.007755855953228474
2302.0,0.007888512213050314
2301.0,0.007976972236149349
2300.0,0.007932739972333236
2299.0,0.007800070204414977
2298.0,0.007755855953228474
2297.0,0.007844288957383316
2296.0,0.008021209005416363
2295.0,0.008109696063975047
2294.0,0.008153946355103248
2293.0,0.008065450281052211
2292.0,0.008021209005416363
2291.0,0.008021209005416363
2290.0,0.008109696063975047
2289.0,0.008242460465651913
2288.0,0.008330992620051436
2287.0,0.008375265465994541
2286.0,0.008419542825660153
2285.0,0.008375265465994541
2284.0,0.008330992620051436
2283.0,0.008286724286910463
2282.0,0.008242460465651913
2281.0,0.008242460465651913
2280.0,0.008242460465651913
2279.0,0.008242460465651913
2278.0,0.008286724286910463
2277.0,0.008330992620051436
2276.0,0.008375265465994541
2275.0,0.008375265465994541
2274.0,0.008375265465994541
2273.0,0.008419542825660153
2272.0,0.00850811108984062
2271.0,0.008552401996197112
2270.0,0.008596697419959609
2269.0,0.008596697419959609
2268.0,0.008552401996197112
2267.0,0.008552401996197112
2266.0,0.008596697419959609
2265.0,0.008596697419959609
2264.0,0.008596697419959609
2263.0,0.008596697419959609
2262.0,0.008552401996197112
2261.0,0.008552401996197112
2260.0,0.008552401996197112
2259.0,0.008596697419959609
2258.0,0.008640997362049818
2257.0,0.008640997362049818
2256.0,0.008552401996197112
2255.0,0.00850811108984062
2254.0,0.008463824699968647
2253.0,0.008463824699968647
2252.0,0.00850811108984062
2251.0,0.00850811108984062
2250.0,0.00850811108984062
2249.0,0.008463824699968647
2248.0,0.008375265465994541
2247.0,0.008330992620051436
2246.0,0.008242460465651913
2245.0,0.008198201155356077
2244.0,0.008198201155356077
2243.0,0.008198201155356077
2242.0,0.008286724286910463
2241.0,0.008286724286910463
2240.0,0.008286724286910463
2239.0,0.008242460465651913
2238.0,0.008198201155356077
2237.0,0.008198201155356077
2236.0,0.008242460465651913
2235.0,0.008242460465651913
2234.0,0.008242460465651913
2233.0,0.008286724286910463
2232.0,0.008330992620051436
2231.0,0.008375265465994541
2230.0,0.008375265465994541
2229.0,0.008330992620051436
2228.0,0.008286724286910463
2227.0,0.008286724286910463
2226.0,0.008286724286910463
2225.0,0.008330992620051436
2224.0,0.008330992620051436
2223.0,0.008242460465651913
2222.0,0.008198201155356077
2221.0,0.008153946355103248
2220.0,0.008198201155356077
2219.0,0.008242460465651913
2218.0,0.008286724286910463
2217.0,0.008330992620051436
2216.0,0.008330992620051436
2215.0,0.008330992620051436
2214.0,0.008330992620051436
2213.0,0.008286724286910463
2212.0,0.008198201155356077
2211.0,0.008153946355103248
2210.0,0.008153946355103248
2209.0,0.008198201155356077
2208.0,0.008242460465651913
2207.0,0.008242460465651913
2206.0,0.008242460465651913
2205.0,0.008198201155356077
2204.0,0.008198201155356077
2203.0,0.008198201155356077
2202.0,0.008198201155356077
2201.0,0.008198201155356077
2200.0,0.008242460465651913
2199.0,0.008242460465651913
2198.0,0.008242460465651913
2197.0,0.008242460465651913
2196.0,0.008286724286910463
2195.0,0.008330992620051436
2194.0,0.008375265465994541
2193.0,0.008375265465994541
2192.0,0.008419542825660153
2191.0,0.008463824699968647
2190.0,0.008463824699968647
2189.0,0.008419542825660153
2188.0,0.008330992620051436
2187.0,0.008242460465651913
2186.0,0.008242460465651913
2185.0,0.008286724286910463
2184.0,0.008419542825660153
2183.0,0.008463824699968647
2182.0,0.008463824699968647
2181.0,0.008419542825660153
2180.0,0.008375265465994541
2179.0,0.008375265465994541
2178.0,0.008419542825660153
2177.0,0.008375265465994541
2176.0,0.008375265465994541
2175.0,0.008375265465994541
2174.0,0.008463824699968647
2173.0,0.008552401996197112
2172.0,0.008596697419959609
2171.0,0.008596697419959609
2170.0,0.008596697419959609
2169.0,0.008552401996197112
2168.0,0.00850811108984062
2167.0,0.008419542825660153
2166.0,0.008330992620051436
2165.0,0.008198201155356077
2164.0,0.008153946355103248
2163.0,0.008198201155356077
2162.0,0.008286724286910463
2161.0,0.008330992620051436
2160.0,0.008286724286910463
2159.0,0.008242460465651913
2158.0,0.008198201155356077
2157.0,0.008242460465651913
2156.0,0.008330992620051436
2155.0,0.008375265465994541
2154.0,0.008375265465994541
2153.0,0.008286724286910463
2152.0,0.008153946355103248
2151.0,0.008021209005416363
2150.0,0.007976972236149349
2149.0,0.008021209005416363
2148.0,0.008065450281052211
2147.0,0.008109696063975047
2146.0,0.008109696063975047
2145.0,0.008065450281052211
2144.0,0.007976972236149349
2143.0,0.007932739972333236
2142.0,0.007888512213050314
2141.0,0.007888512213050314
2140.0,0.007932739972333236
2139.0,0.008021209005416363
2138.0,0.008153946355103248
2137.0,0.008198201155356077
2136.0,0.008198201155356077
2135.0,0.008198201155356077
2134.0,0.008198201155356077
2133.0,0.008198201155356077
2132.0,0.008198201155356077
2131.0,0.008109696063975047
2130.0,0.008109696063975047
2129.0,0.008065450281052211
2128.0,0.008065450281052211
2127.0,0.008065450281052211
2126.0,0.008065450281052211
2125.0,0.008109696063975047
2124.0,0.008198201155356077
2123.0,0.008286724286910463
2122.0,0.008330992620051436
2121.0,0.008330992620051436
2120.0,0.008242460465651913
2119.0,0.008109696063975047
2118.0,0.008021209005416363
2117.0,0.007932739972333236
2116.0,0.007888512213050314
2115.0,0.007800070204414977
2114.0,0.007800070204414977
2113.0,0.007844288957383316
2112.0,0.007888512213050314
2111.0,0.007888512213050314
2110.0,0.007888512213050314
2109.0,0.007932739972333236
2108.0,0.007932739972333236
2107.0,0.007976972236149349
2106.0,0.008021209005416363
2105.0,0.008065450281052211
2104.0,0.008109696063975047
2103.0,0.008065450281052211
2102.0,0.008021209005416363
2101.0,0.008021209005416363
2100.0,0.008065450281052211
2099.0,0.008065450281052211
2098.0,0.008021209005416363
2097.0,0.007976972236149349
2096.0,0.007932739972333236
2095.0,0.007888512213050314
2094.0,0.007844288957383316
2093.0,0.007844288957383316
2092.0,0.007888512213050314
2091.0,0.007888512213050314
2090.0,0.007932739972333236
2089.0,0.007888512213050314
2088.0,0.007844288957383316
2087.0,0.007755855953228474
2086.0,0.007667440952535687
2085.0,0.00762324020119709
2084.0,0.00762324020119709
2083.0,0.007667440952535687
2082.0,0.007711646202907652
2081.0,0.007711646202907652
2080.0,0.007667440952535687
2079.0,0.007667440952535687
2078.0,0.007711646202907652
2077.0,0.007800070204414977
2076.0,0.007888512213050314
2075.0,0.007888512213050314
2074.0,0.007888512213050314
2073.0,0.007844288957383316
2072.0,0.007844288957383316
2071.0,0.007800070204414977
2070.0,0.007755855953228474
2069.0,0.007711646202907652
2068.0,0.007711646202907652
2067.0,0.007667440952535687
2066.0,0.00762324020119709
2065.0,0.0075790439479759275
2064.0,0.007534852191956709
2063.0,0.007490664932224611
2062.0,0.007490664932224611
2061.0,0.007534852191956709
2060.0,0.007534852191956709
2059.0,0.007534852191956709
2058.0,0.0075790439479759275
2057.0,0.00762324020119709
2056.0,0.007667440952535687
2055.0,0.007711646202907652
2054.0,0.007755855953228474
2053.0,0.007800070204414977
2052.0,0.007844288957383316
2051.0,0.007844288957383316
2050.0,0.007800070204414977
2049.0,0.007800070204414977
2048.0,0.007800070204414977
2047.0,0.007800070204414977
2046.0,0.007844288957383316
2045.0,0.007844288957383316
2044.0,0.007844288957383316
2043.0,0.007755855953228474
2042.0,0.007711646202907652
2041.0,0.007667440952535687
2040.0,0.007711646202907652
2039.0,0.007711646202907652
2038.0,0.007711646202907652
2037.0,0.007711646202907652
2036.0,0.007755855953228474
2035.0,0.007755855953228474
2034.0,0.007800070204414977
2033.0,0.007755855953228474
2032.0,0.007667440952535687
2031.0,0.0075790439479759275
2030.0,0.007534852191956709
2029.0,0.0075790439479759275
2028.0,0.00762324020119709
2027.0,0.007667440952535687
2026.0,0.00762324020119709
2025.0,0.007534852191956709
2024.0,0.0074464821678643656
2023.0,0.007358130121602358
2022.0,0.007269796045857202
2021.0,0.007269796045857202
2020.0,0.007269796045857202
2019.0,0.007358130121602358
2018.0,0.007490664932224611
2017.0,0.00762324020119709
2016.0,0.00762324020119709
2015.0,0.00762324020119709
2014.0,0.007534852191956709
2013.0,0.007534852191956709
2012.0,0.0075790439479759275
2011.0,0.00762324020119709
2010.0,0.007667440952535687
2009.0,0.007667440952535687
2008.0,0.007667440952535687
2007.0,0.00762324020119709
2006.0,0.00762324020119709
2005.0,0.0075790439479759275
2004.0,0.007534852191956709
2003.0,0.007490664932224611
2002.0,0.0074464821678643656
2001.0,0.0074464821678643656
2000.0,0.007490664932224611
1999.0,0.007490664932224611
1998.0,0.007490664932224611
1997.0,0.0074464821678643656
1996.0,0.007358130121602358
1995.0,0.007313960837872058
1994.0,0.007402303897961815
1993.0,0.007534852191956709
1992.0,0.007667440952535687
1991.0,0.007711646202907652
1990.0,0.00762324020119709
1989.0,0.007534852191956709
1988.0,0.007490664932224611
1987.0,0.0074464821678643656
1986.0,0.0074464821678643656
1985.0,0.0074464821678643656
1984.0,0.007490664932224611
1983.0,0.007534852191956709
1982.0,0.007534852191956709
1981.0,0.007490664932224611
1980.0,0.0074464821678643656
1979.0,0.0074464821678643656
1978.0,0.0074464821678643656
1977.0,0.007490664932224611
1976.0,0.007534852191956709
1975.0,0.0075790439479759275
1974.0,0.0075790439479759275
1973.0,0.0075790439479759275
1972.0,0.0075790439479759275
1971.0,0.0075790439479759275
1970.0,0.0075790439479759275
1969.0,0.0075790439479759275
1968.0,0.0075790439479759275
1967.0,0.007534852191956709
1966.0,0.0074464821678643656
1965.0,0.007402303897961815
1964.0,0.007402303897961815
1963.0,0.007490664932224611
1962.0,0.0075790439479759275
1961.0,0.00762324020119709
1960.0,0.00762324020119709
1959.0,0.0075790439479759275
1958.0,0.00762324020119709
1957.0,0.00762324020119709
1956.0,0.007534852191956709
1955.0,0.007490664932224611
1954.0,0.007402303897961815
1953.0,0.007358130121602358
1952.0,0.007358130121602358
1951.0,0.007358130121602358
1950.0,0.007402303897961815
1949.0,0.0074464821678643656
1948.0,0.0074464821678643656
1947.0,0.007402303897961815
1946.0,0.007313960837872058
1945.0,0.007225635744644521
1944.0,0.007225635744644521
1943.0,0.007269796045857202
1942.0,0.007313960837872058
1941.0,0.007402303897961815
1940.0,0.007490664932224611
1939.0,0.007534852191956709
1938.0,0.007534852191956709
1937.0,0.007534852191956709
1936.0,0.007534852191956709
1935.0,0.007534852191956709
1934.0,0.0075790439479759275
1933.0,0.00762324020119709
1932.0,0.007711646202907652
1931.0,0.007667440952535687
1930.0,0.0075790439479759275
1929.0,0.007490664932224611
1928.0,0.007402303897961815
1927.0,0.007358130121602358
1926.0,0.007358130121602358
1925.0,0.0074464821678643656
1924.0,0.007534852191956709
1923.0,0.0075790439479759275
1922.0,0.00762324020119709
1921.0,0.0075790439479759275
1920.0,0.0075790439479759275
1919.0,0.007534852191956709
1918.0,0.007490664932224611
1917.0,0.007490664932224611
1916.0,0.007490664932224611
1915.0,0.007534852191956709
1914.0,0.007534852191956709
1913.0,0.007490664932224611
1912.0,0.007402303897961815
1911.0,0.007313960837872058
1910.0,0.007313960837872058
1909.0,0.007358130121602358
1908.0,0.007358130121602358
1907.0,0.007402303897961815
1906.0,0.0074464821678643656
1905.0,0.0074464821678643656
1904.0,0.007490664932224611
1903.0,0.007490664932224611
1902.0,0.0074464821678643656
1901.0,0.007358130121602358
1900.0,0.007313960837872058
1899.0,0.007313960837872058
1898.0,0.007358130121602358
1897.0,0.007402303897961815
1896.0,0.007402303897961815
1895.0,0.007358130121602358
1894.0,0.007313960837872058
1893.0,0.007313960837872058
1892.0,0.007313960837872058
1891.0,0.007313960837872058
1890.0,0.007313960837872058
1889.0,0.007313960837872058
1888.0,0.007313960837872058
1887.0,0.007269796045857202
1886.0,0.007269796045857202
1885.0,0.007269796045857202
1884.0,0.007269796045857202
1883.0,0.007269796045857202
1882.0,0.007313960837872058
1881.0,0.007402303897961815
1880.0,0.007402303897961815
1879.0,0.007313960837872058
1878.0,0.007269796045857202
1877.0,0.007225635744644521
1876.0,0.007269796045857202
1875.0,0.007269796045857202
1874.0,0.007225635744644521
1873.0,0.007225635744644521
1872.0,0.007137328610972382
1871.0,0.007093181776687496
1870.0,0.007049039429553483
1869.0,0.007093181776687496
1868.0,0.007181479933320523
1867.0,0.007181479933320523
1866.0,0.007225635744644521
1865.0,0.007181479933320523
1864.0,0.007137328610972382
1863.0,0.007137328610972382
1862.0,0.007181479933320523
1861.0,0.007269796045857202
1860.0,0.007358130121602358
1859.0,0.007402303897961815
1858.0,0.007402303897961815
1857.0,0.007402303897961815
1856.0,0.007358130121602358
1855.0,0.007313960837872058
1854.0,0.007269796045857202
1853.0,0.007313960837872058
1852.0,0.007313960837872058
1851.0,0.007358130121602358
1850.0,0.007358130121602358
1849.0,0.007313960837872058
1848.0,0.007225635744644521
1847.0,0.007137328610972382
1846.0,0.007093181776687496
1845.0,0.007181479933320523
1844.0,0.007225635744644521
1843.0,0.007181479933320523
1842.0,0.007137328610972382
1841.0,0.007181479933320523
1840.0,0.007269796045857202
1839.0,0.007313960837872058
1838.0,0.007313960837872058
1837.0,0.007313960837872058
1836.0,0.007269796045857202
1835.0,0.007181479933320523
1834.0,0.007137328610972382
1833.0,0.007181479933320523
1832.0,0.007269796045857202
1831.0,0.007358130121602358
1830.0,0.007313960837872058
1829.0,0.007225635744644521
1828.0,0.007137328610972382
1827.0,0.007093181776687496
1826.0,0.007093181776687496
1825.0,0.007093181776687496
1824.0,0.007093181776687496
1823.0,0.007049039429553483
1822.0,0.007049039429553483
1821.0,0.007093181776687496
1820.0,0.007137328610972382
1819.0,0.007181479933320523
1818.0,0.007181479933320523
1817.0,0.007181479933320523
1816.0,0.007137328610972382
1815.0,0.007093181776687496
1814.0,0.007049039429553483
1813.0,0.007049039429553483
1812.0,0.007049039429553483
1811.0,0.007049039429553483
1810.0,0.007049039429553483
1809.0,0.007093181776687496
1808.0,0.007137328610972382
1807.0,0.007137328610972382
1806.0,0.007093181776687496
1805.0,0.007049039429553483
1804.0,0.00696076819309055
1803.0,0.006872514894289861
1802.0,0.006784279525863024
1801.0,0.006828394969235152
1800.0,0.00696076819309055
1799.0,0.007093181776687496
1798.0,0.007093181776687496
1797.0,0.007049039429553483
1796.0,0.007004901568658406
1795.0,0.006916639301937977
1794.0,0.006872514894289861
1793.0,0.006916639301937977
1792.0,0.00696076819309055
1791.0,0.00696076819309055
1790.0,0.00696076819309055
1789.0,0.007004901568658406
1788.0,0.007049039429553483
1787.0,0.007093181776687496
1786.0,0.007181479933320523
1785.0,0.007225635744644521
1784.0,0.007181479933320523
1783.0,0.007137328610972382
1782.0,0.007093181776687496
1781.0,0.007049039429553483
1780.0,0.006872514894289861
1779.0,0.006740168563263094
1778.0,0.006651960076740071
1777.0,0.006651960076740071
1776.0,0.006696062080525422
1775.0,0.006784279525863024
1774.0,0.006784279525863024
1773.0,0.006784279525863024
1772.0,0.006784279525863024
1771.0,0.006784279525863024
1770.0,0.006828394969235152
1769.0,0.006916639301937977
1768.0,0.006916639301937977
1767.0,0.006916639301937977
1766.0,0.006872514894289861
1765.0,0.006916639301937977
1764.0,0.006916639301937977
1763.0,0.006916639301937977
1762.0,0.006916639301937977
1761.0,0.00696076819309055
1760.0,0.007049039429553483
1759.0,0.007137328610972382
1758.0,0.007269796045857202
1757.0,0.007358130121602358
1756.0,0.007402303897961815
1755.0,0.007490664932224611
1754.0,0.00762324020119709
1753.0,0.007711646202907652
1752.0,0.007755855953228474
1751.0,0.007755855953228474
1750.0,0.007711646202907652
1749.0,0.007711646202907652
1748.0,0.007667440952535687
1747.0,0.00762324020119709
1746.0,0.0075790439479759275
1745.0,0.007667440952535687
1744.0,0.007800070204414977
1743.0,0.007888512213050314
1742.0,0.007888512213050314
1741.0,0.007844288957383316
1740.0,0.007844288957383316
1739.0,0.007800070204414977
1738.0,0.007711646202907652
1737.0,0.00762324020119709
1736.0,0.007490664932224611
1735.0,0.007313960837872058
1734.0,0.007225635744644521
1733.0,0.007137328610972382
1732.0,0.007225635744644521
1731.0,0.007313960837872058
1730.0,0.007358130121602358
1729.0,0.007358130121602358
1728.0,0.007402303897961815
1727.0,0.007402303897961815
1726.0,0.007402303897961815
1725.0,0.007402303897961815
1724.0,0.0074464821678643656
1723.0,0.007402303897961815
1722.0,0.007358130121602358
1721.0,0.007313960837872058
1720.0,0.007269796045857202
1719.0,0.007181479933320523
1718.0,0.007181479933320523
1717.0,0.007313960837872058
1716.0,0.007402303897961815
1715.0,0.0074464821678643656
1714.0,0.007402303897961815
1713.0,0.007313960837872058
1712.0,0.007269796045857202
1711.0,0.007269796045857202
1710.0,0.007225635744644521
1709.0,0.007225635744644521
1708.0,0.007225635744644521
1707.0,0.007269796045857202
1706.0,0.007358130121602358
1705.0,0.0074464821678643656
1704.0,0.007534852191956709
1703.0,0.00762324020119709
1702.0,0.007667440952535687
1701.0,0.0075790439479759275
1700.0,0.007358130121602358
1699.0,0.007137328610972382
1698.0,0.007269796045857202
1697.0,0.007490664932224611
1696.0,0.007534852191956709
1695.0,0.007358130121602358
1694.0,0.007269796045857202
1693.0,0.007402303897961815
1692.0,0.007490664932224611
1691.0,0.007490664932224611
1690.0,0.007490664932224611
1689.0,0.0074464821678643656
1688.0,0.007490664932224611
1687.0,0.007490664932224611
1686.0,0.0074464821678643656
1685.0,0.007490664932224611
1684.0,0.007534852191956709
1683.0,0.007358130121602358
1682.0,0.007358130121602358
1681.0,0.0074464821678643656
1680.0,0.007534852191956709
1679.0,0.007534852191956709
1678.0,0.007534852191956709
1677.0,0.0075790439479759275
1676.0,0.007667440952535687
1675.0,0.007667440952535687
1674.0,0.007534852191956709
1673.0,0.0074464821678643656
1672.0,0.0074464821678643656
1671.0,0.0074464821678643656
1670.0,0.0074464821678643656
1669.0,0.007358130121602358
1668.0,0.007313960837872058
1667.0,0.007313960837872058
1666.0,0.007269796045857202
1665.0,0.007269796045857202
1664.0,0.007225635744644521
1663.0,0.007269796045857202
1662.0,0.007402303897961815
1661.0,0.0074464821678643656
1660.0,0.007490664932224611
1659.0,0.0074464821678643656
1658.0,0.007402303897961815
1657.0,0.007402303897961815
1656.0,0.007490664932224611
1655.0,0.00762324020119709
1654.0,0.007755855953228474
1653.0,0.00762324020119709
1652.0,0.007093181776687496
1651.0,0.007004901568658406
1650.0,0.007181479933320523
1649.0,0.007269796045857202
1648.0,0.007358130121602358
1647.0,0.007534852191956709
1646.0,0.0075790439479759275
1645.0,0.0075790439479759275
1644.0,0.0075790439479759275
1643.0,0.0075790439479759275
1642.0,0.0075790439479759275
1641.0,0.007534852191956709
1640.0,0.007490664932224611
1639.0,0.007490664932224611
1638.0,0.007490664932224611
1637.0,0.0075790439479759275
1636.0,0.007800070204414977
1635.0,0.007800070204414977
1634.0,0.007755855953228474
1633.0,0.007844288957383316
1632.0,0.007888512213050314
1631.0,0.007844288957383316
1630.0,0.007711646202907652
1629.0,0.0075790439479759275
1628.0,0.0075790439479759275
1627.0,0.007534852191956709
1626.0,0.007534852191956709
1625.0,0.0074464821678643656
1624.0,0.007402303897961815
1623.0,0.007313960837872058
1622.0,0.007225635744644521
1621.0,0.007137328610972382
1620.0,0.007093181776687496
1619.0,0.007049039429553483
1618.0,0.007093181776687496
1617.0,0.007225635744644521
1616.0,0.007313960837872058
1615.0,0.007313960837872058
1614.0,0.007313960837872058
1613.0,0.007269796045857202
1612.0,0.007137328610972382
1611.0,0.007004901568658406
1610.0,0.00696076819309055
1609.0,0.007004901568658406
1608.0,0.007137328610972382
1607.0,0.007225635744644521
1606.0,0.007225635744644521
1605.0,0.007137328610972382
1604.0,0.007004901568658406
1603.0,0.006916639301937977
1602.0,0.006872514894289861
1601.0,0.006828394969235152
1600.0,0.006784279525863024
1599.0,0.006740168563263094
1598.0,0.006696062080525422
1597.0,0.006696062080525422
1596.0,0.006696062080525422
1595.0,0.006696062080525422
1594.0,0.006651960076740071
1593.0,0.006696062080525422
1592.0,0.006740168563263094
1591.0,0.006828394969235152
1590.0,0.006872514894289861
1589.0,0.006828394969235152
1588.0,0.006784279525863024
1587.0,0.006784279525863024
1586.0,0.006828394969235152
1585.0,0.006872514894289861
1584.0,0.006916639301937977
1583.0,0.007004901568658406
1582.0,0.007049039429553483
1581.0,0.007137328610972382
1580.0,0.007181479933320523
1579.0,0.007181479933320523
1578.0,0.007137328610972382
1577.0,0.007093181776687496
1576.0,0.007049039429553483
1575.0,0.006916639301937977
1574.0,0.006916639301937977
1573.0,0.00696076819309055
1572.0,0.007049039429553483
1571.0,0.007049039429553483
1570.0,0.007004901568658406
1569.0,0.006916639301937977
1568.0,0.006828394969235152
1567.0,0.006828394969235152
1566.0,0.006828394969235152
1565.0,0.006784279525863024
1564.0,0.006696062080525422
1563.0,0.006607862550997545
1562.0,0.006475596832934416
1561.0,0.00612308505878878
1560.0,0.005814871797682919
1559.0,0.00590291041179003
1558.0,0.005858888873877532
1557.0,0.005946936412324799
1556.0,0.00621118618129457
1555.0,0.006431517210272464
1554.0,0.006475596832934416
1553.0,0.006431517210272464
1552.0,0.006387442061109638
1551.0,0.006387442061109638
1550.0,0.006343371384537999
1549.0,0.006431517210272464
1548.0,0.006519680930003435
1547.0,0.00656376950238835
1546.0,0.006519680930003435
1545.0,0.006431517210272464
1544.0,0.006299305179649828
1543.0,0.006167133386013823
1542.0,0.006079041198713275
1541.0,0.006299305179649828
1540.0,0.006607862550997545
1539.0,0.006431517210272464
1538.0,0.00621118618129457
1537.0,0.006167133386013823
1536.0,0.00612308505878878
1535.0,0.005946936412324799
1534.0,0.005726851026829571
1533.0,0.005594853310833647
1532.0,0.005550862985963967
1531.0,0.005506877116487674
1530.0,0.005462895701502157
1529.0,0.005462895701502157
1528.0,0.005506877116487674
1527.0,0.005462895701502157
1526.0,0.00537494623139545
1525.0,0.005330978174470591
1524.0,0.0052870145684298375
1523.0,0.005243055412371911
1522.0,0.0052870145684298375
1521.0,0.005462895701502157
1520.0,0.005550862985963967
1519.0,0.005550862985963967
1518.0,0.005506877116487674
1517.0,0.00541891874010525
1516.0,0.00541891874010525
1515.0,0.00537494623139545
1514.0,0.00541891874010525
1513.0,0.005462895701502157
1512.0,0.005506877116487674
1511.0,0.005550862985963967
1510.0,0.005638848091999105
1509.0,0.005814871797682919
1508.0,0.006079041198713275
1507.0,0.006035001804881146
1506.0,0.005638848091999105
1505.0,0.005550862985963967
1504.0,0.005726851026829571
1503.0,0.00590291041179003
1502.0,0.005990966876386672
1501.0,0.006035001804881146
1500.0,0.00612308505878878
1499.0,0.006079041198713275
1498.0,0.005990966876386672
1497.0,0.006079041198713275
1496.0,0.00621118618129457
1495.0,0.006343371384537999
1494.0,0.006475596832934416
1493.0,0.006696062080525422
1492.0,0.006784279525863024
1491.0,0.006740168563263094
1490.0,0.006784279525863024
1489.0,0.007004901568658406
1488.0,0.007358130121602358
1487.0,0.00762324020119709
1486.0,0.007932739972333236
1485.0,0.008375265465994541
1484.0,0.008862564879688284
1483.0,0.009350411681145587
1482.0,0.009927665307847056
1481.0,0.010683695010048622
1480.0,0.011485634166333858
1479.0,0.012199714248127602
1478.0,0.013093968619278806
1477.0,0.014393916947563534
1476.0,0.01596801972881945
1475.0,0.017728766960431575
1474.0,0.020406104151069693
1473.0,0.024798037742147727
1472.0,0.030071810571884017
1471.0,0.034516075754861264
1470.0,0.03848398855105106
1469.0,0.04253638427006878
1468.0,0.04696554274964315
1467.0,0.05207638016827354
1466.0,0.058538260652670315
1465.0,0.06610796423578891
1464.0,0.07268097504034388
1463.0,0.07670415934449615
1462.0,0.0788860261633193
1461.0,0.08013774644446192
1460.0,0.08086958613938555
1459.0,0.08155025759884227
1458.0,0.0833881548906541
1457.0,0.08634506491338012
1456.0,0.08804381092731295
1455.0,0.08799062441302175
1454.0,0.08740600224789441
1453.0,0.08650404038287651
1452.0,0.08523386307414738
1451.0,0.08328292240118751
1450.0,0.08045124103115198
1449.0,0.07634157820669385
1448.0,0.07078549626260622
1447.0,0.06469430971007495
1446.0,0.059135024033278416
1445.0,0.05423607688882637
1444.0,0.04987865248862655
1443.0,0.046192002334692894
1442.0,0.04339941178682327
1441.0,0.041436116778032606
1440.0,0.04019568349166214
1439.0,0.03962436858984186
1438.0,0.040005161671583744
1437.0,0.04091088563260792
1436.0,0.041149548320321694
1435.0,0.03981472339538916
1434.0,0.03720463014276687
1433.0,0.03376437590141812
1432.0,0.029932203450862893
1431.0,0.026410376572743033
1430.0,0.02365002099672653
1429.0,0.02159120737696063
1428.0,0.02013307743509718
1427.0,0.019133445417920836
1426.0,0.018362575344230914
1425.0,0.01759307113620534
1424.0,0.017050711425501408
1423.0,0.016689514205884493
1422.0,0.016418813294209356
1421.0,0.016013078034810446
1420.0,0.015517693597737248
1419.0,0.015157768594724175
1418.0,0.014977917890464765
1417.0,0.014708281407112
1416.0,0.014438812226654996
1415.0,0.014349026309051105
1414.0,0.014259258949925524
1413.0,0.014079779876432497
1412.0,0.013945219230304673
1411.0,0.013900374944870508
1410.0,0.01385553528947936
1409.0,0.013765869865004277
1408.0,0.013586594534531482
1407.0,0.013452186585275916
1406.0,0.013407393177789162
1405.0,0.013317820220494436
1404.0,0.013093968619278806
1403.0,0.012914970375878188
1402.0,0.012736045877764557
1401.0,0.012423105273012602
1400.0,0.012110390002254778
1399.0,0.0119764380713403
1398.0,0.012065734767841452
1397.0,0.012244383261476699
1396.0,0.012512493866907004
1395.0,0.012870232340102872
1394.0,0.013093968619278806
1393.0,0.013093968619278806
1392.0,0.013004460275618523
1391.0,0.01318349541446362
1390.0,0.013586594534531482
1389.0,0.014304140310157809
1388.0,0.015652742414136167
1387.0,0.017955020928509757
1386.0,0.021135015652343103
1385.0,0.025304128090317013
1384.0,0.031143625385307683
1383.0,0.03929144831144349
1382.0,0.050073556332087765
1381.0,0.06353652599525317
1380.0,0.07987667370927598
1379.0,0.09832376867362447
1378.0,0.11605480496572018
1377.0,0.1294790499872358
1376.0,0.13590442657575252
1375.0,0.13341732293645103
1374.0,0.12262865413022594
1373.0,0.10768273927751948
1372.0,0.09274991711867164
1371.0,0.079094395835976
1370.0,0.06696850489759454
1369.0,0.05690137699451481
1368.0,0.04948910701400333
1367.0,0.04455278942230456
1366.0,0.04153168163305643
1365.0,0.039909932095080425
1364.0,0.03967194946985697
1363.0,0.040672354027829094
1362.0,0.04248848854552012
1361.0,0.044456557540257124
1360.0,0.04599883231842972
1359.0,0.04653025674659861
1358.0,0.04585401117045196
1357.0,0.04387961360698034
1356.0,0.040958607678906356
1355.0,0.037583306554248797
1354.0,0.03423403581731388
1353.0,0.031236951802751545
1352.0,0.028770552723758724
1351.0,0.026687379547098322
1350.0,0.025028005701930978
1349.0,0.023604163388120325
1348.0,0.022413561996148967
1347.0,0.021317434843055594
1346.0,0.02036058777709271
1345.0,0.019632973815224997
1344.0,0.01899731005860028
1343.0,0.01840788278591865
1342.0,0.017864505196230507
1341.0,0.017367005605150476
1340.0,0.017005545341335804
1339.0,0.016734647433454652
1338.0,0.016644385668211692
1337.0,0.016689514205884493
1336.0,0.01677978535189717
1335.0,0.016960383953898095
1334.0,0.017231422748988034
1333.0,0.017638298366853045
1332.0,0.01800028587012159
1331.0,0.01831727262871463
1330.0,0.018362575344230914
1329.0,0.018226681372252695
1328.0,0.017864505196230507
1327.0,0.017367005605150476
1326.0,0.016824927962187042
1325.0,0.01628352608625061
1324.0,0.015742798294583915
1323.0,0.015247721884586563
1322.0,0.014798141635428141
1321.0,0.014438812226654996
1320.0,0.014124642691606404
1319.0,0.01381070026317599
1318.0,0.013631406429727155
1317.0,0.013452186585275916
1316.0,0.013273040668781544
1315.0,0.013049212141483357
1314.0,0.012825498912458322
1313.0,0.01264661126420652
1312.0,0.012557195064198723
1311.0,0.01260190086298274
1310.0,0.012736045877764557
1309.0,0.013093968619278806
1308.0,0.013586594534531482
1307.0,0.014214382227394795
1306.0,0.014798141635428141
1305.0,0.015202742910707112
1304.0,0.01538268676325183
1303.0,0.015337693809893471
1302.0,0.015202742910707112
1301.0,0.015112798935672522
1300.0,0.015157768594724175
1299.0,0.015292705517326866
1298.0,0.015517693597737248
1297.0,0.015652742414136167
1296.0,0.015697768020096703
1295.0,0.015517693597737248
1294.0,0.015247721884586563
1293.0,0.014888020460646079
1292.0,0.014438812226654996
1291.0,0.013900374944870508
1290.0,0.013452186585275916
1289.0,0.013093968619278806
1288.0,0.012780770091995297
1287.0,0.01260190086298274
1286.0,0.012467797270160563
1285.0,0.012378417874516323
1284.0,0.012244383261476699
1283.0,0.012065734767841452
1282.0,0.011887159731648111
1281.0,0.011708658092512314
1280.0,0.011574829993696856
1279.0,0.011485634166333858
1278.0,0.011441043121384498
1277.0,0.011351874764248926
1276.0,0.011262724711199823
1275.0,0.011129033935354915
1274.0,0.011084479487313281
1273.0,0.011084479487313281
1272.0,0.011129033935354915
1271.0,0.011129033935354915
1270.0,0.01117359295472431
1269.0,0.011218156546359825
1268.0,0.011262724711199823
1267.0,0.011351874764248926
1266.0,0.011485634166333858
1265.0,0.011664044143949504
1264.0,0.011797899741219142
1263.0,0.0119764380713403
1262.0,0.012199714248127602
1261.0,0.012557195064198723
1260.0,0.013049212141483357
1259.0,0.013631406429727155
1258.0,0.014214382227394795
1257.0,0.014618439768003144
1256.0,0.014798141635428141
1255.0,0.014708281407112
1254.0,0.014393916947563534
1253.0,0.013990068146738865
1252.0,0.013631406429727155
1251.0,0.013273040668781544
1250.0,0.012914970375878188
1249.0,0.012557195064198723
1248.0,0.012199714248127602
1247.0,0.0119764380713403
1246.0,0.011842527443247208
1245.0,0.011708658092512314
1244.0,0.011664044143949504
1243.0,0.011574829993696856
1242.0,0.011485634166333858
1241.0,0.011307297450183107
1240.0,0.011084479487313281
1239.0,0.010995384301463185
1238.0,0.010995384301463185
1237.0,0.011039929609661936
1236.0,0.011084479487313281
1235.0,0.011039929609661936
1234.0,0.010995384301463185
1233.0,0.011039929609661936
1232.0,0.011129033935354915
1231.0,0.011218156546359825
1230.0,0.011307297450183107
1229.0,0.011351874764248926
1228.0,0.011396456654336085
1227.0,0.011441043121384498
1226.0,0.011530229790124524
1225.0,0.011753276624621556
1224.0,0.012021084124518078
1223.0,0.012289056869694281
1222.0,0.012512493866907004
1221.0,0.012691326268817527
1220.0,0.012736045877764557
1219.0,0.01264661126420652
1218.0,0.012423105273012602
1217.0,0.012110390002254778
1216.0,0.011753276624621556
1215.0,0.011441043121384498
1214.0,0.011218156546359825
1213.0,0.010950843561779777
1212.0,0.010728208358306901
1211.0,0.010505687227290839
1210.0,0.010327752376126709
1209.0,0.010149890396819572
1208.0,0.009927665307847056
1207.0,0.00974996707218323
1206.0,0.009527946474380489
1205.0,0.00939478857608056
1204.0,0.009306039320248427
1203.0,0.009217308196862062
1202.0,0.009217308196862062
1201.0,0.009172949432521227
1200.0,0.00908424549391551
1199.0,0.008995559669244813
1198.0,0.008951223547323472
1197.0,0.008906891951112605
1196.0,0.008862564879688284
1195.0,0.008818242332126802
1194.0,0.008773924307505121
1193.0,0.008818242332126802
1192.0,0.008862564879688284
1191.0,0.008818242332126802
1190.0,0.0087296108049002
1189.0,0.008640997362049818
1188.0,0.008552401996197112
1187.0,0.008552401996197112
1186.0,0.008552401996197112
1185.0,0.008640997362049818
1184.0,0.0087296108049002
1183.0,0.008818242332126802
1182.0,0.008951223547323472
1181.0,0.009128595198514056
1180.0,0.00939478857608056
1179.0,0.00966114521239847
1178.0,0.009972101229705377
1177.0,0.01046119667949763
1176.0,0.011218156546359825
1175.0,0.012199714248127602
1174.0,0.013452186585275916
1173.0,0.015022873584506602
1172.0,0.016870075265299933
1171.0,0.018815862601645694
1170.0,0.020633757603838898
1169.0,0.02204787879853809
1168.0,0.022871099419317753
1167.0,0.023100049017062307
1166.0,0.02282532397981263
1165.0,0.022322112326006227
1164.0,0.021728158389364705
1163.0,0.0211806132671577
1162.0,0.020724852408976924
1161.0,0.020315076172974234
1160.0,0.01990568621470623
1159.0,0.01958753839310856
1158.0,0.019360432556262852
1157.0,0.019269623464054586
1156.0,0.019269623464054586
1155.0,0.0192242260373785
1154.0,0.019178833355664393
1153.0,0.019042683770379876
1152.0,0.018770512579999288
1151.0,0.018271974638383703
1150.0,0.017502630802287644
1149.0,0.016599261819461697
1148.0,0.015697768020096703
1147.0,0.014843078722943437
1146.0,0.014124642691606404
1145.0,0.013407393177789162
1144.0,0.012825498912458322
1143.0,0.012289056869694281
1142.0,0.011753276624621556
1141.0,0.011262724711199823
1140.0,0.01077272626946324
1139.0,0.010327752376126709
1138.0,0.009927665307847056
1137.0,0.009572341514736404
1136.0,0.009306039320248427
1135.0,0.009172949432521227
1134.0,0.009128595198514056
1133.0,0.00908424549391551
1132.0,0.008951223547323472
1131.0,0.008818242332126802
1130.0,0.0087296108049002
1129.0,0.0087296108049002
1128.0,0.008862564879688284
1127.0,0.008951223547323472
1126.0,0.008995559669244813
1125.0,0.008995559669244813
1124.0,0.008995559669244813
1123.0,0.009039900317800775
1122.0,0.009128595198514056
1121.0,0.009172949432521227
1120.0,0.009172949432521227
1119.0,0.009172949432521227
1118.0,0.009261671492462709
1117.0,0.009439170005980158
1116.0,0.009705553871561357
1115.0,0.009972101229705377
1114.0,0.01023881228122181
1113.0,0.010505687227290839
1112.0,0.01077272626946324
1111.0,0.010950843561779777
1110.0,0.01117359295472431
1109.0,0.011530229790124524
1108.0,0.012110390002254778
1107.0,0.012959713020733288
1106.0,0.01385553528947936
1105.0,0.014708281407112
1104.0,0.015292705517326866
1103.0,0.015517693597737248
1102.0,0.015427684378367834
1101.0,0.015022873584506602
1100.0,0.014438812226654996
1099.0,0.01381070026317599
1098.0,0.013273040668781544
1097.0,0.012870232340102872
1096.0,0.012557195064198723
1095.0,0.012289056869694281
1094.0,0.012065734767841452
1093.0,0.011931796607364653
1092.0,0.011842527443247208
1091.0,0.011887159731648111
1090.0,0.012021084124518078
1089.0,0.01215504982870197
1088.0,0.012244383261476699
1087.0,0.012244383261476699
1086.0,0.012333735073725371
1085.0,0.012467797270160563
1084.0,0.012691326268817527
1083.0,0.012959713020733288
1082.0,0.013138729709955221
1081.0,0.01322826573375524
1080.0,0.013138729709955221
1079.0,0.013004460275618523
1078.0,0.012959713020733288
1077.0,0.013049212141483357
1076.0,0.013138729709955221
1075.0,0.01318349541446362
1074.0,0.013138729709955221
1073.0,0.013004460275618523
1072.0,0.012825498912458322
1071.0,0.01260190086298274
1070.0,0.012512493866907004
1069.0,0.01264661126420652
1068.0,0.012914970375878188
1067.0,0.01318349541446362
1066.0,0.01322826573375524
1065.0,0.013004460275618523
1064.0,0.01264661126420652
1063.0,0.012378417874516323
1062.0,0.012289056869694281
1061.0,0.012333735073725371
1060.0,0.012512493866907004
1059.0,0.012736045877764557
1058.0,0.012914970375878188
1057.0,0.012959713020733288
1056.0,0.012914970375878188
1055.0,0.012914970375878188
1054.0,0.013004460275618523
1053.0,0.013138729709955221
1052.0,0.013273040668781544
1051.0,0.013362604389846044
1050.0,0.013496984613259544
1049.0,0.013541787262693505
1048.0,0.013586594534531482
1047.0,0.013541787262693505
1046.0,0.013452186585275916
1045.0,0.013273040668781544
1044.0,0.013004460275618523
1043.0,0.012736045877764557
1042.0,0.012423105273012602
1041.0,0.01215504982870197
1040.0,0.011887159731648111
1039.0,0.011708658092512314
1038.0,0.011530229790124524
1037.0,0.011307297450183107
1036.0,0.010995384301463185
1035.0,0.010594681998483901
1034.0,0.010194349063173958
1033.0,0.009794384815193347
1032.0,0.009527946474380489
1031.0,0.00939478857608056
1030.0,0.009483555971770974
1029.0,0.00966114521239847
1028.0,0.00974996707218323
1027.0,0.009705553871561357
1026.0,0.009439170005980158
1025.0,0.00908424549391551
1024.0,0.008773924307505121
1023.0,0.008640997362049818
1022.0,0.008596697419959609
1021.0,0.008596697419959609
1020.0,0.008596697419959609
1019.0,0.008596697419959609
1018.0,0.008685301823389224
1017.0,0.008773924307505121
1016.0,0.008862564879688284
1015.0,0.008906891951112605
1014.0,0.008862564879688284
1013.0,0.008862564879688284
1012.0,0.008862564879688284
1011.0,0.008951223547323472
1010.0,0.009172949432521227
1009.0,0.009483555971770974
1008.0,0.009838807101520963
1007.0,0.010194349063173958
1006.0,0.010683695010048622
1005.0,0.011351874764248926
1004.0,0.012289056869694281
1003.0,0.013631406429727155
1002.0,0.01538268676325183
1001.0,0.017502630802287644
1000.0,0.019769308608968306
999.0,0.021545566634771474
998.0,0.022322112326006227
997.0,0.021773818325474092
996.0,0.020178569969774962
995.0,0.018045555530026514
994.0,0.01596801972881945
993.0,0.014259258949925524
992.0,0.012870232340102872
991.0,0.011797899741219142
990.0,0.010950843561779777
989.0,0.010283280051895272
988.0,0.00974996707218323
987.0,0.00939478857608056
986.0,0.009217308196862062
985.0,0.009172949432521227
984.0,0.009261671492462709
983.0,0.009527946474380489
982.0,0.010194349063173958
981.0,0.011396456654336085
980.0,0.01322826573375524
979.0,0.015607721475734415
978.0,0.018362575344230914
977.0,0.021363051615525652
976.0,0.024292536462819925
975.0,0.02677975314776626
974.0,0.028306761050139073
973.0,0.02839947976994095
972.0,0.027056991894431892
971.0,0.024476287039668643
970.0,0.021317434843055594
969.0,0.018181392829336396
968.0,0.015517693597737248
967.0,0.013452186585275916
966.0,0.012021084124518078
965.0,0.010995384301463185
964.0,0.01023881228122181
963.0,0.00974996707218323
962.0,0.00939478857608056
961.0,0.00908424549391551
960.0,0.0087296108049002
959.0,0.008419542825660153
958.0,0.008153946355103248
957.0,0.007932739972333236
956.0,0.007711646202907652
955.0,0.0074464821678643656
954.0,0.007269796045857202
953.0,0.007137328610972382
952.0,0.007137328610972382
951.0,0.007181479933320523
950.0,0.007225635744644521
949.0,0.007313960837872058
948.0,0.007358130121602358
947.0,0.007490664932224611
946.0,0.007755855953228474
945.0,0.008109696063975047
944.0,0.00850811108984062
943.0,0.008906891951112605
942.0,0.009261671492462709
941.0,0.009572341514736404
940.0,0.009616741093766423
939.0,0.009439170005980158
938.0,0.009039900317800775
937.0,0.008596697419959609
936.0,0.008109696063975047
935.0,0.007711646202907652
934.0,0.007402303897961815
933.0,0.007225635744644521
932.0,0.007093181776687496
931.0,0.00696076819309055
930.0,0.006872514894289861
929.0,0.006872514894289861
928.0,0.006916639301937977
927.0,0.006916639301937977
926.0,0.006828394969235152
925.0,0.006651960076740071
924.0,0.006519680930003435
923.0,0.006475596832934416
922.0,0.00656376950238835
921.0,0.006607862550997545
920.0,0.006607862550997545
919.0,0.006519680930003435
918.0,0.006431517210272464
917.0,0.006387442061109638
916.0,0.006431517210272464
915.0,0.00656376950238835
914.0,0.006696062080525422
913.0,0.006784279525863024
912.0,0.006784279525863024
911.0,0.006828394969235152
910.0,0.00696076819309055
909.0,0.007137328610972382
908.0,0.007402303897961815
907.0,0.007755855953228474
906.0,0.008330992620051436
905.0,0.009217308196862062
904.0,0.01046119667949763
903.0,0.012199714248127602
902.0,0.014259258949925524
901.0,0.01632861713980338
900.0,0.017909760704207134
899.0,0.01858915983411169
898.0,0.018226681372252695
897.0,0.017005545341335804
896.0,0.015247721884586563
895.0,0.013407393177789162
894.0,0.011887159731648111
893.0,0.010728208358306901
892.0,0.009927665307847056
891.0,0.009350411681145587
890.0,0.008906891951112605
889.0,0.008685301823389224
888.0,0.008596697419959609
887.0,0.00850811108984062
886.0,0.008463824699968647
885.0,0.008330992620051436
884.0,0.008198201155356077
883.0,0.008065450281052211
882.0,0.008065450281052211
881.0,0.008198201155356077
880.0,0.008330992620051436
879.0,0.008463824699968647
878.0,0.008552401996197112
877.0,0.008596697419959609
876.0,0.008640997362049818
875.0,0.008640997362049818
874.0,0.008640997362049818
873.0,0.008685301823389224
872.0,0.0087296108049002
871.0,0.008862564879688284
870.0,0.009039900317800775
869.0,0.009172949432521227
868.0,0.009217308196862062
867.0,0.009217308196862062
866.0,0.009217308196862062
865.0,0.009217308196862062
864.0,0.009261671492462709
863.0,0.009350411681145587
862.0,0.009439170005980158
861.0,0.009527946474380489
860.0,0.009483555971770974
859.0,0.00939478857608056
858.0,0.009306039320248427
857.0,0.009306039320248427
856.0,0.009261671492462709
855.0,0.009217308196862062
854.0,0.009261671492462709
853.0,0.009483555971770974
852.0,0.009794384815193347
851.0,0.010060986715464404
850.0,0.010194349063173958
849.0,0.010283280051895272
848.0,0.010505687227290839
847.0,0.010995384301463185
846.0,0.011931796607364653
845.0,0.013541787262693505
844.0,0.01578783323856614
843.0,0.018271974638383703
842.0,0.020178569969774962
841.0,0.02067930261797568
840.0,0.01954210772389997
839.0,0.01727661233145472
838.0,0.014798141635428141
837.0,0.012736045877764557
836.0,0.011262724711199823
835.0,0.010283280051895272
834.0,0.00966114521239847
833.0,0.009306039320248427
832.0,0.00908424549391551
831.0,0.008995559669244813
830.0,0.008906891951112605
829.0,0.008773924307505121
828.0,0.008463824699968647
827.0,0.008065450281052211
826.0,0.007755855953228474
825.0,0.007711646202907652
824.0,0.007976972236149349
823.0,0.008375265465994541
822.0,0.008685301823389224
821.0,0.008906891951112605
820.0,0.008995559669244813
819.0,0.00908424549391551
818.0,0.009350411681145587
817.0,0.009972101229705377
816.0,0.010906307389674463
815.0,0.012199714248127602
814.0,0.01385553528947936
813.0,0.01578783323856614
812.0,0.017864505196230507
811.0,0.019723858922159776
810.0,0.021043834782408455
809.0,0.0214542995372613
808.0,0.0209982515252789
807.0,0.01995115493504329
806.0,0.018543833477873584
805.0,0.016960383953898095
804.0,0.015427684378367834
803.0,0.014169510141607944
802.0,0.013138729709955221
801.0,0.012378417874516323
800.0,0.011708658092512314
799.0,0.011129033935354915
798.0,0.010639186223752484
797.0,0.010194349063173958
796.0,0.009794384815193347
795.0,0.009439170005980158
794.0,0.009128595198514056
793.0,0.008773924307505121
792.0,0.008419542825660153
791.0,0.008109696063975047
790.0,0.007888512213050314
789.0,0.007711646202907652
788.0,0.007534852191956709
787.0,0.007358130121602358
786.0,0.007225635744644521
785.0,0.007137328610972382
784.0,0.006916639301937977
783.0,0.006475596832934416
782.0,0.00590291041179003
781.0,0.005330978174470591
780.0,0.00484762310854614
779.0,0.004540313378935901
778.0,0.0043648054024501
777.0,0.004277078004534696
776.0,0.004145520125434121
775.0,0.004101676353562844
774.0,0.004101676353562844
773.0,0.0040578370074493275
772.0,0.003970171588923321
771.0,0.003926345514724705
770.0,0.00401400208620073
769.0,0.004277078004534696
768.0,0.004408675747646695
767.0,0.004408675747646695
766.0,0.004408675747646695
765.0,0.004452550524862486
764.0,0.004540313378935901
763.0,0.00458420145758498
762.0,0.00458420145758498
761.0,0.004540313378935901
760.0,0.004408675747646695
759.0,0.004408675747646695
758.0,0.0044964297349936455
757.0,0.004628093971837721
756.0,0.004715892310740433
755.0,0.004671990922590297
754.0,0.004671990922590297
753.0,0.004671990922590297
752.0,0.004628093971837721
751.0,0.00458420145758498
750.0,0.004540313378935901
749.0,0.004540313378935901
748.0,0.004628093971837721
747.0,0.004671990922590297
746.0,0.004540313378935901
745.0,0.004320939488377862
744.0,0.004101676353562844
743.0,0.003970171588923321
742.0,0.0040578370074493275
741.0,0.004233220950025984
740.0,0.004452550524862486
739.0,0.004628093971837721
738.0,0.004671990922590297
737.0,0.004759798137184523
736.0,0.00484762310854614
735.0,0.004935465843858511
734.0,0.00489154225525934
733.0,0.004408675747646695
732.0,0.003488327845821315
731.0,0.0023078820582733695
730.0,0.001304841688344327
729.0,0.0007389288868995258
728.0,0.0007824344698965646
727.0,0.0013919706849057079
726.0,0.0022205691343961664
725.0,0.0027884171674950053
724.0,0.0029632891174733444
723.0,0.0030944893043338695
722.0,0.0035758960449088217
721.0,0.004320939488377862
720.0,0.004628093971837721
719.0,0.004189368323957332
718.0,0.0032694845648473247
717.0,0.0022642234021015284
716.0,0.0013919706849057079
715.0,0.0006954276616513155
714.0,0.0003475746339209884
713.0,0.0006519307932786322
712.0,0.001609869681952425
711.0,0.0029195645282691363
710.0,0.0038825238627120395
709.0,0.003970171588923321
708.0,0.0032257291386954545
707.0,0.0024388843664115978
706.0,0.0025262411970197185
705.0,0.003707281458678491
704.0,0.005243055412371911
703.0,0.006343371384537999
702.0,0.00656376950238835
701.0,0.006035001804881146
700.0,0.004803708402820517
699.0,0.0030944893043338695
698.0,0.0013919706849057079
697.0,0.0003910410285830057
696.0,0.0007389288868995258
695.0,0.0021769192542746563
694.0,0.003619686766589858
693.0,0.004320939488377862
692.0,0.004408675747646695
691.0,0.004320939488377862
690.0,0.003707281458678491
689.0,0.0019587356365717845
688.0,-0.0006075870628903246
687.0,-0.0022956825549340643
686.0,-0.0019499410842680476
685.0,-0.0003472966853634851
684.0,0.0006519307932786322
683.0,0.0003475746339209884
682.0,-0.0003906892499099257
681.0,-0.0005208409361854294
680.0,0.0001303078917322953
679.0,0.0009129773741116676
678.0,0.001348404001626502
677.0,0.001348404001626502
676.0,0.0014355417390583547
675.0,0.0021769192542746563
674.0,0.0030944893043338695
673.0,0.0029195645282691363
672.0,0.0007824344698965646
671.0,-0.0024252646779014952
670.0,-0.005180512503780488
669.0,-0.006166425485431226
668.0,-0.0058666018753847915
667.0,-0.005566571133294396
666.0,-0.005652315355074045
665.0,-0.005352136486216796
664.0,-0.003805073565025019
663.0,-0.0013875234866409514
662.0,0.00043451177401765406
661.0,0.0007389288868995258
660.0,-0.00030389978481260016
659.0,-0.0018634626925240205
658.0,-0.003115717099805959
657.0,-0.003934206173708432
656.0,-0.00445035298922436
655.0,-0.004536317851322913
654.0,-0.003546693102131737
653.0,-0.0009543984064577238
652.0,0.0022205691343961664
651.0,0.00401400208620073
650.0,0.003050751504618754
649.0,0.00026065489343207737
648.0,-0.0016471913460383014
647.0,-0.0006943158663546001
646.0,0.0020023635919956817
645.0,0.003794893821675638
644.0,0.0031819781204844855
643.0,0.0012612837441823288
642.0,0.00021720154586435392
641.0,0.0010000277816797354
640.0,0.0027447101798967477
639.0,0.003970171588923321
638.0,0.0040578370074493275
637.0,0.0033132443998284966
636.0,0.0023078820582733695
635.0,0.0009129773741116676
634.0,-0.0016039241497978196
633.0,-0.005180512503780488
632.0,-0.007918390645599072
631.0,-0.007875743767585153
630.0,-0.005137595908863979
629.0,-0.0014308122463981832
628.0,0.0018278780605593958
627.0,0.004101676353562844
626.0,0.005243055412371911
625.0,0.005199100705396198
624.0,0.004628093971837721
623.0,0.00484762310854614
622.0,0.006299305179649828
621.0,0.007888512213050314
620.0,0.008153946355103248
619.0,0.006651960076740071
618.0,0.0043648054024501
617.0,0.002569926202528716
616.0,0.0022642234021015284
615.0,0.0033132443998284966
614.0,0.004101676353562844
613.0,0.0027884171674950053
612.0,-0.0008243766056055257
611.0,-0.004665233247877154
610.0,-0.0066799277408255975
609.0,-0.006380458549692936
608.0,-0.003891166236910326
607.0,0.0007824344698965646
606.0,0.00537494623139545
605.0,0.005858888873877532
604.0,0.0011741809597138886
603.0,-0.0042783722001624724
602.0,-0.005352136486216796
601.0,-0.002338880892056583
600.0,0.0
