cm-1,A
4000.0,0.005243055412371911
3999.0,0.005243055412371911
3998.0,0.005243055412371911
3997.0,0.005243055412371911
3996.0,0.005199100705396198
3995.0,0.005199100705396198
3994.0,0.005243055412371911
3993.0,0.005243055412371911
3992.0,0.005199100705396198
3991.0,0.005199100705396198
3990.0,0.005155150446602086
3989.0,0.005155150446602086
3988.0,0.005155150446602086
3987.0,0.005199100705396198
3986.0,0.0052870145684298375
3985.0,0.005330978174470591
3984.0,0.00541891874010525
3983.0,0.00541891874010525
3982.0,0.00537494623139545
3981.0,0.005330978174470591
3980.0,0.005243055412371911
3979.0,0.005155150446602086
3978.0,0.005023326350308999
3977.0,0.00489154225525934
3976.0,0.004803708402820517
3975.0,0.004803708402820517
3974.0,0.00489154225525934
3973.0,0.005111204635089406
3972.0,0.005330978174470591
3971.0,0.005506877116487674
3970.0,0.005550862985963967
3969.0,0.005506877116487674
3968.0,0.00541891874010525
3967.0,0.00537494623139545
3966.0,0.00537494623139545
3965.0,0.00541891874010525
3964.0,0.00541891874010525
3963.0,0.00537494623139545
3962.0,0.005330978174470591
3961.0,0.005330978174470591
3960.0,0.0052870145684298375
3959.0,0.0052870145684298375
3958.0,0.0052870145684298375
3957.0,0.005243055412371911
3956.0,0.005155150446602086
3955.0,0.005111204635089406
3954.0,0.005155150446602086
3953.0,0.0052870145684298375
3952.0,0.005462895701502157
3951.0,0.005594853310833647
3950.0,0.005594853310833647
3949.0,0.005550862985963967
3948.0,0.005506877116487674
3947.0,0.005550862985963967
3946.0,0.005594853310833647
3945.0,0.005682847330363394
3944.0,0.005682847330363394
3943.0,0.005682847330363394
3942.0,0.005638848091999105
3941.0,0.005594853310833647
3940.0,0.005594853310833647
3939.0,0.005726851026829571
3938.0,0.00590291041179003
3937.0,0.006079041198713275
3936.0,0.00625524344553785
3935.0,0.00625524344553785
3934.0,0.00612308505878878
3933.0,0.00590291041179003
3932.0,0.005638848091999105
3931.0,0.00541891874010525
3930.0,0.00537494623139545
3929.0,0.00541891874010525
3928.0,0.005506877116487674
3927.0,0.005506877116487674
3926.0,0.005506877116487674
3925.0,0.005594853310833647
3924.0,0.00577085918230158
3923.0,0.005946936412324799
3922.0,0.005990966876386672
3921.0,0.005946936412324799
3920.0,0.00577085918230158
3919.0,0.005638848091999105
3918.0,0.005550862985963967
3917.0,0.005550862985963967
3916.0,0.005594853310833647
3915.0,0.005594853310833647
3914.0,0.005506877116487674
3913.0,0.005462895701502157
3912.0,0.00541891874010525
3911.0,0.005506877116487674
3910.0,0.005682847330363394
3909.0,0.005858888873877532
3908.0,0.006079041198713275
3907.0,0.00625524344553785
3906.0,0.006343371384537999
3905.0,0.006387442061109638
3904.0,0.006387442061109638
3903.0,0.006343371384537999
3902.0,0.006299305179649828
3901.0,0.00625524344553785
3900.0,0.006299305179649828
3899.0,0.006299305179649828
3898.0,0.006167133386013823
3897.0,0.006035001804881146
3896.0,0.005946936412324799
3895.0,0.005946936412324799
3894.0,0.005858888873877532
3893.0,0.00577085918230158
3892.0,0.005682847330363394
3891.0,0.005682847330363394
3890.0,0.005726851026829571
3889.0,0.005858888873877532
3888.0,0.00590291041179003
3887.0,0.005946936412324799
3886.0,0.00612308505878878
3885.0,0.006387442061109638
3884.0,0.006475596832934416
3883.0,0.006299305179649828
3882.0,0.006079041198713275
3881.0,0.005990966876386672
3880.0,0.00612308505878878
3879.0,0.00625524344553785
3878.0,0.006343371384537999
3877.0,0.00625524344553785
3876.0,0.00612308505878878
3875.0,0.006167133386013823
3874.0,0.00625524344553785
3873.0,0.006299305179649828
3872.0,0.006167133386013823
3871.0,0.005990966876386672
3870.0,0.005990966876386672
3869.0,0.006079041198713275
3868.0,0.006167133386013823
3867.0,0.006079041198713275
3866.0,0.005946936412324799
3865.0,0.005990966876386672
3864.0,0.00621118618129457
3863.0,0.006387442061109638
3862.0,0.006343371384537999
3861.0,0.00625524344553785
3860.0,0.006167133386013823
3859.0,0.00625524344553785
3858.0,0.006431517210272464
3857.0,0.006607862550997545
3856.0,0.00656376950238835
3855.0,0.006343371384537999
3854.0,0.006387442061109638
3853.0,0.006607862550997545
3852.0,0.006607862550997545
3851.0,0.006387442061109638
3850.0,0.006167133386013823
3849.0,0.006035001804881146
3848.0,0.005990966876386672
3847.0,0.005946936412324799
3846.0,0.005858888873877532
3845.0,0.005814871797682919
3844.0,0.00590291041179003
3843.0,0.00612308505878878
3842.0,0.006431517210272464
3841.0,0.006607862550997545
3840.0,0.006651960076740071
3839.0,0.006519680930003435
3838.0,0.006343371384537999
3837.0,0.00612308505878878
3836.0,0.005946936412324799
3835.0,0.005858888873877532
3834.0,0.005814871797682919
3833.0,0.005814871797682919
3832.0,0.005814871797682919
3831.0,0.005858888873877532
3830.0,0.005858888873877532
3829.0,0.00577085918230158
3828.0,0.005682847330363394
3827.0,0.005726851026829571
3826.0,0.005946936412324799
3825.0,0.00625524344553785
3824.0,0.006431517210272464
3823.0,0.006343371384537999
3822.0,0.00625524344553785
3821.0,0.006343371384537999
3820.0,0.006431517210272464
3819.0,0.006387442061109638
3818.0,0.006167133386013823
3817.0,0.006035001804881146
3816.0,0.00612308505878878
3815.0,0.00625524344553785
3814.0,0.00621118618129457
3813.0,0.006079041198713275
3812.0,0.005990966876386672
3811.0,0.005990966876386672
3810.0,0.005990966876386672
3809.0,0.00590291041179003
3808.0,0.005858888873877532
3807.0,0.005946936412324799
3806.0,0.006167133386013823
3805.0,0.00625524344553785
3804.0,0.006167133386013823
3803.0,0.005946936412324799
3802.0,0.006035001804881146
3801.0,0.006299305179649828
3800.0,0.006475596832934416
3799.0,0.006387442061109638
3798.0,0.006167133386013823
3797.0,0.006035001804881146
3796.0,0.005946936412324799
3795.0,0.005858888873877532
3794.0,0.005726851026829571
3793.0,0.005594853310833647
3792.0,0.005594853310833647
3791.0,0.005638848091999105
3790.0,0.005726851026829571
3789.0,0.005726851026829571
3788.0,0.005726851026829571
3787.0,0.005682847330363394
3786.0,0.005726851026829571
3785.0,0.005814871797682919
3784.0,0.005946936412324799
3783.0,0.005990966876386672
3782.0,0.00590291041179003
3781.0,0.00577085918230158
3780.0,0.005726851026829571
3779.0,0.00577085918230158
3778.0,0.005814871797682919
3777.0,0.005814871797682919
3776.0,0.005726851026829571
3775.0,0.005682847330363394
3774.0,0.005726851026829571
3773.0,0.005814871797682919
3772.0,0.00590291041179003
3771.0,0.006079041198713275
3770.0,0.006299305179649828
3769.0,0.006475596832934416
3768.0,0.006431517210272464
3767.0,0.00625524344553785
3766.0,0.006035001804881146
3765.0,0.005946936412324799
3764.0,0.00590291041179003
3763.0,0.005946936412324799
3762.0,0.005946936412324799
3761.0,0.005990966876386672
3760.0,0.006079041198713275
3759.0,0.00621118618129457
3758.0,0.006343371384537999
3757.0,0.006475596832934416
3756.0,0.006696062080525422
3755.0,0.006828394969235152
3754.0,0.006828394969235152
3753.0,0.006740168563263094
3752.0,0.006740168563263094
3751.0,0.006916639301937977
3750.0,0.007093181776687496
3749.0,0.007225635744644521
3748.0,0.007225635744644521
3747.0,0.007049039429553483
3746.0,0.006740168563263094
3745.0,0.006651960076740071
3744.0,0.006784279525863024
3743.0,0.006784279525863024
3742.0,0.006696062080525422
3741.0,0.00656376950238835
3740.0,0.006651960076740071
3739.0,0.006784279525863024
3738.0,0.006916639301937977
3737.0,0.006916639301937977
3736.0,0.006916639301937977
3735.0,0.006872514894289861
3734.0,0.006740168563263094
3733.0,0.006519680930003435
3732.0,0.006387442061109638
3731.0,0.006343371384537999
3730.0,0.006343371384537999
3729.0,0.006299305179649828
3728.0,0.00621118618129457
3727.0,0.00612308505878878
3726.0,0.006167133386013823
3725.0,0.00625524344553785
3724.0,0.006299305179649828
3723.0,0.00625524344553785
3722.0,0.006167133386013823
3721.0,0.006167133386013823
3720.0,0.00612308505878878
3719.0,0.006167133386013823
3718.0,0.00621118618129457
3717.0,0.006343371384537999
3716.0,0.00656376950238835
3715.0,0.006784279525863024
3714.0,0.006828394969235152
3713.0,0.006740168563263094
3712.0,0.006519680930003435
3711.0,0.006387442061109638
3710.0,0.006299305179649828
3709.0,0.006299305179649828
3708.0,0.00625524344553785
3707.0,0.00621118618129457
3706.0,0.00621118618129457
3705.0,0.006167133386013823
3704.0,0.006167133386013823
3703.0,0.00625524344553785
3702.0,0.006343371384537999
3701.0,0.006475596832934416
3700.0,0.00656376950238835
3699.0,0.00656376950238835
3698.0,0.006519680930003435
3697.0,0.006519680930003435
3696.0,0.00656376950238835
3695.0,0.006651960076740071
3694.0,0.006784279525863024
3693.0,0.006916639301937977
3692.0,0.007004901568658406
3691.0,0.007093181776687496
3690.0,0.007137328610972382
3689.0,0.007225635744644521
3688.0,0.007225635744644521
3687.0,0.007181479933320523
3686.0,0.007093181776687496
3685.0,0.00696076819309055
3684.0,0.006872514894289861
3683.0,0.006872514894289861
3682.0,0.00696076819309055
3681.0,0.007181479933320523
3680.0,0.007534852191956709
3679.0,0.007888512213050314
3678.0,0.008021209005416363
3677.0,0.008065450281052211
3676.0,0.008242460465651913
3675.0,0.008552401996197112
3674.0,0.008685301823389224
3673.0,0.008552401996197112
3672.0,0.008198201155356077
3671.0,0.007932739972333236
3670.0,0.008021209005416363
3669.0,0.008153946355103248
3668.0,0.008153946355103248
3667.0,0.007976972236149349
3666.0,0.007800070204414977
3665.0,0.00762324020119709
3664.0,0.007534852191956709
3663.0,0.007490664932224611
3662.0,0.007534852191956709
3661.0,0.00762324020119709
3660.0,0.007800070204414977
3659.0,0.007932739972333236
3658.0,0.007976972236149349
3657.0,0.008065450281052211
3656.0,0.008330992620051436
3655.0,0.008640997362049818
3654.0,0.008906891951112605
3653.0,0.00908424549391551
3652.0,0.009128595198514056
3651.0,0.00908424549391551
3650.0,0.009172949432521227
3649.0,0.009350411681145587
3648.0,0.00939478857608056
3647.0,0.009306039320248427
3646.0,0.009172949432521227
3645.0,0.009039900317800775
3644.0,0.008862564879688284
3643.0,0.008773924307505121
3642.0,0.0087296108049002
3641.0,0.008685301823389224
3640.0,0.008640997362049818
3639.0,0.008685301823389224
3638.0,0.008773924307505121
3637.0,0.008906891951112605
3636.0,0.008995559669244813
3635.0,0.00908424549391551
3634.0,0.009306039320248427
3633.0,0.00966114521239847
3632.0,0.009972101229705377
3631.0,0.010060986715464404
3630.0,0.010105436281226954
3629.0,0.010327752376126709
3628.0,0.010505687227290839
3627.0,0.01046119667949763
3626.0,0.010327752376126709
3625.0,0.010194349063173958
3624.0,0.010194349063173958
3623.0,0.010283280051895272
3622.0,0.010327752376126709
3621.0,0.01046119667949763
3620.0,0.010683695010048622
3619.0,0.011039929609661936
3618.0,0.011307297450183107
3617.0,0.011351874764248926
3616.0,0.011307297450183107
3615.0,0.011307297450183107
3614.0,0.011530229790124524
3613.0,0.011842527443247208
3612.0,0.01215504982870197
3611.0,0.012199714248127602
3610.0,0.01215504982870197
3609.0,0.012065734767841452
3608.0,0.012065734767841452
3607.0,0.012110390002254778
3606.0,0.01215504982870197
3605.0,0.012244383261476699
3604.0,0.012289056869694281
3603.0,0.012378417874516323
3602.0,0.012423105273012602
3601.0,0.012512493866907004
3600.0,0.01264661126420652
3599.0,0.012825498912458322
3598.0,0.012959713020733288
3597.0,0.013093968619278806
3596.0,0.01318349541446362
3595.0,0.01322826573375524
3594.0,0.013362604389846044
3593.0,0.013541787262693505
3592.0,0.01372104409400876
3591.0,0.01381070026317599
3590.0,0.01381070026317599
3589.0,0.01385553528947936
3588.0,0.014124642691606404
3587.0,0.01452861671041239
3586.0,0.014753209197138295
3585.0,0.014798141635428141
3584.0,0.014753209197138295
3583.0,0.014708281407112
3582.0,0.014708281407112
3581.0,0.014753209197138295
3580.0,0.014843078722943437
3579.0,0.014977917890464765
3578.0,0.015067833932588037
3577.0,0.015157768594724175
3576.0,0.015202742910707112
3575.0,0.015292705517326866
3574.0,0.015427684378367834
3573.0,0.015652742414136167
3572.0,0.015922966097169144
3571.0,0.01628352608625061
3570.0,0.016599261819461697
3569.0,0.016824927962187042
3568.0,0.017141057687924732
3567.0,0.017457417697056554
3566.0,0.017638298366853045
3565.0,0.017638298366853045
3564.0,0.017502630802287644
3563.0,0.017321806616515723
3562.0,0.017141057687924732
3561.0,0.017050711425501408
3560.0,0.017050711425501408
3559.0,0.017186237868137555
3558.0,0.017367005605150476
3557.0,0.017547848615010242
3556.0,0.01768353030793479
3555.0,0.01781925440359733
3554.0,0.01800028587012159
3553.0,0.018226681372252695
3552.0,0.018498511851753108
3551.0,0.018770512579999288
3550.0,0.018906576854070378
3549.0,0.018951941086827073
3548.0,0.018951941086827073
3547.0,0.01899731005860028
3546.0,0.019178833355664393
3545.0,0.019360432556262852
3544.0,0.019451260640229506
3543.0,0.019451260640229506
3542.0,0.019451260640229506
3541.0,0.019451260640229506
3540.0,0.01954210772389997
3539.0,0.019678413991243593
3538.0,0.019814763052665052
3537.0,0.01995115493504329
3536.0,0.020087589665283012
3535.0,0.02022406727031445
3534.0,0.020315076172974234
3533.0,0.02036058777709271
3532.0,0.020406104151069693
3531.0,0.020406104151069693
3530.0,0.020542681902151694
3529.0,0.020770406977844713
3528.0,0.021043834782408455
3527.0,0.021317434843055594
3526.0,0.0214542995372613
3525.0,0.02140867317992523
3524.0,0.02140867317992523
3523.0,0.0214542995372613
3522.0,0.02159120737696063
3521.0,0.021773818325474092
3520.0,0.021865152601710403
3519.0,0.021956506090037076
3518.0,0.02204787879853809
3517.0,0.0221849739168134
3516.0,0.022322112326006227
3515.0,0.022413561996148967
3514.0,0.022413561996148967
3513.0,0.02245929405346514
3512.0,0.02255077261765881
3511.0,0.022688026603074007
3510.0,0.02282532397981263
3509.0,0.022871099419317753
3508.0,0.022871099419317753
3507.0,0.02291687968414724
3506.0,0.02300845469384938
3505.0,0.023237476732539397
3504.0,0.023466619608062178
3503.0,0.023604163388120325
3502.0,0.02365002099672653
3501.0,0.02365002099672653
3500.0,0.02365002099672653
3499.0,0.023695883447997224
3498.0,0.023741750742954926
3497.0,0.023787622882622816
3496.0,0.023925268380126097
3495.0,0.024108863598207186
3494.0,0.024338466818941473
3493.0,0.024568191490736968
3492.0,0.024798037742147727
3491.0,0.024890010313838973
3490.0,0.02498200236711723
3489.0,0.025028005701930978
3488.0,0.025074013910237447
3487.0,0.02516604495145991
3486.0,0.025258095499050004
3485.0,0.025350165561278004
3484.0,0.02544225514642018
3483.0,0.025672564576383117
3482.0,0.025949097207122573
3481.0,0.02617967564731627
3480.0,0.026271941311972746
3479.0,0.026271941311972746
3478.0,0.026225806029419818
3477.0,0.026318081496016443
3476.0,0.026502691267936695
3475.0,0.02677975314776626
3474.0,0.027010773144651168
3473.0,0.027195677663422346
3472.0,0.027334407733889066
3471.0,0.02751945012352408
3470.0,0.0277045713888604
3469.0,0.027936083991977778
3468.0,0.02812138297373412
3467.0,0.028306761050139073
3466.0,0.028445846553939003
3465.0,0.02858497661500481
3464.0,0.028677754757187035
3463.0,0.02872415126189476
3462.0,0.028677754757187035
3461.0,0.02863136320857662
3460.0,0.02863136320857662
3459.0,0.02872415126189476
3458.0,0.028863370523193765
3457.0,0.028956208163971375
3456.0,0.02904906565457588
3455.0,0.029141943003497595
3454.0,0.02932775731028059
3453.0,0.029560137048236124
3452.0,0.02969962459782227
3451.0,0.029792641193145286
3450.0,0.029792641193145286
3449.0,0.029792641193145286
3448.0,0.029932203450862893
3447.0,0.030118356253500123
3446.0,0.03025802323714588
3445.0,0.030397735151460825
3444.0,0.030490901403433135
3443.0,0.03058408764601861
3442.0,0.0307239045110681
3441.0,0.030863766403287585
3440.0,0.03105031901865729
3439.0,0.03128362253321426
3438.0,0.03147035562516054
3437.0,0.031657169041054534
3436.0,0.03184406285002961
3435.0,0.03193753992355086
3434.0,0.031984286006358165
3433.0,0.032031037121307726
3432.0,0.032124554451966825
3431.0,0.032311649546687526
3430.0,0.03249882527715853
3429.0,0.032686081712916426
3428.0,0.032873418923587305
3427.0,0.03310770413286357
3426.0,0.0332483359486222
3425.0,0.033295223342125535
3424.0,0.033201453616638954
3423.0,0.03310770413286357
3422.0,0.03310770413286357
3421.0,0.033201453616638954
3420.0,0.03334211579824231
3419.0,0.03352973627071565
3418.0,0.03371743783253667
3417.0,0.033905220553829274
3416.0,0.03399914237121604
3415.0,0.03399914237121604
3414.0,0.03399914237121604
3413.0,0.03399914237121604
3412.0,0.03409308450480819
3411.0,0.034187046963396917
3410.0,0.03428102975577918
3409.0,0.03437503289075727
3408.0,0.034516075754861264
3407.0,0.03465716443937783
3406.0,0.03484535401307465
3405.0,0.03498654972775217
3404.0,0.03508070571335731
3403.0,0.03512779136222477
3402.0,0.03517488211661135
3401.0,0.03526907894637077
3400.0,0.035363296211498474
3399.0,0.03545753392086315
3398.0,0.03555179208333925
3397.0,0.035693217696063595
3396.0,0.03578752703018084
3395.0,0.03588185684851508
3394.0,0.03588185684851508
3393.0,0.03592902944204468
3392.0,0.03592902944204468
3391.0,0.03592902944204468
3390.0,0.03588185684851508
3389.0,0.03588185684851508
3388.0,0.03592902944204468
3387.0,0.03602339000339416
3386.0,0.036117771071222604
3385.0,0.03625938114211591
3384.0,0.036401037402758574
3383.0,0.03644826642590382
3382.0,0.03644826642590382
3381.0,0.036401037402758574
3380.0,0.03630659476198117
3379.0,0.03630659476198117
3378.0,0.03635381351515665
3377.0,0.036401037402758574
3376.0,0.036401037402758574
3375.0,0.03630659476198117
3374.0,0.036117771071222604
3373.0,0.03597620715996652
3372.0,0.03592902944204468
3371.0,0.03592902944204468
3370.0,0.03597620715996652
3369.0,0.0360705779734416
3368.0,0.03616496929785207
3367.0,0.03635381351515665
3366.0,0.036542739883292485
3365.0,0.03668448861388862
3364.0,0.036731748473764814
3363.0,0.03663723389626394
3362.0,0.03644826642590382
3361.0,0.03625938114211591
3360.0,0.036117771071222604
3359.0,0.0360705779734416
3358.0,0.0360705779734416
3357.0,0.036117771071222604
3356.0,0.036117771071222604
3355.0,0.03602339000339416
3354.0,0.03588185684851508
3353.0,0.03583468937826462
3352.0,0.03583468937826462
3351.0,0.03583468937826462
3350.0,0.03578752703018084
3349.0,0.03578752703018084
3348.0,0.03578752703018084
3347.0,0.03583468937826462
3346.0,0.03583468937826462
3345.0,0.03578752703018084
3344.0,0.035693217696063595
3343.0,0.03555179208333925
3342.0,0.03541041251009669
3341.0,0.03531618502395939
3340.0,0.03522197797762394
3339.0,0.03517488211661135
3338.0,0.03512779136222477
3337.0,0.03512779136222477
3336.0,0.03522197797762394
3335.0,0.03531618502395939
3334.0,0.03541041251009669
3333.0,0.035363296211498474
3332.0,0.03526907894637077
3331.0,0.03517488211661135
3330.0,0.03508070571335731
3329.0,0.03498654972775217
3328.0,0.03489241415094413
3327.0,0.03479829897408804
3326.0,0.03475124903287918
3325.0,0.03479829897408804
3324.0,0.03489241415094413
3323.0,0.0349394793888016
3322.0,0.03479829897408804
3321.0,0.034516075754861264
3320.0,0.03414006319292828
3319.0,0.0338113190438627
3318.0,0.03367050483612166
3317.0,0.03376437590141812
3316.0,0.033952178923546183
3315.0,0.03414006319292828
3314.0,0.034187046963396917
3313.0,0.034187046963396917
3312.0,0.03414006319292828
3311.0,0.034046110897937076
3310.0,0.03399914237121604
3309.0,0.033905220553829274
3308.0,0.03376437590141812
3307.0,0.03357665405630694
3306.0,0.03338901331806565
3305.0,0.0332483359486222
3304.0,0.033201453616638954
3303.0,0.033154576345083564
3302.0,0.03310770413286357
3301.0,0.033154576345083564
3300.0,0.033154576345083564
3299.0,0.033201453616638954
3298.0,0.033201453616638954
3297.0,0.033201453616638954
3296.0,0.03310770413286357
3295.0,0.032920265855503006
3294.0,0.032686081712916426
3293.0,0.03240522732811035
3292.0,0.032124554451966825
3291.0,0.031984286006358165
3290.0,0.031984286006358165
3289.0,0.03207779326948268
3288.0,0.032218091924200776
3287.0,0.03226486821611996
3286.0,0.032218091924200776
3285.0,0.03207779326948268
3284.0,0.03193753992355086
3283.0,0.03184406285002961
3282.0,0.03175060589208267
3281.0,0.03170388495374454
3280.0,0.031657169041054534
3279.0,0.03170388495374454
3278.0,0.03184406285002961
3277.0,0.03193753992355086
3276.0,0.03193753992355086
3275.0,0.03184406285002961
3274.0,0.03175060589208267
3273.0,0.031657169041054534
3272.0,0.031563752288295444
3271.0,0.03151705144606498
3270.0,0.03147035562516054
3269.0,0.03142366482450232
3268.0,0.03147035562516054
3267.0,0.031563752288295444
3266.0,0.03175060589208267
3265.0,0.03184406285002961
3264.0,0.03175060589208267
3263.0,0.031563752288295444
3262.0,0.03137697904301118
3261.0,0.03133029827960798
3260.0,0.03142366482450232
3259.0,0.03151705144606498
3258.0,0.031563752288295444
3257.0,0.03151705144606498
3256.0,0.03151705144606498
3255.0,0.03147035562516054
3254.0,0.03147035562516054
3253.0,0.03142366482450232
3252.0,0.03137697904301118
3251.0,0.03133029827960798
3250.0,0.03128362253321426
3249.0,0.03128362253321426
3248.0,0.031236951802751545
3247.0,0.031143625385307683
3246.0,0.03105031901865729
3245.0,0.030957032694186815
3244.0,0.030910397045078586
3243.0,0.03081714076773867
3242.0,0.03063068826647264
3241.0,0.030444315779156517
3240.0,0.03025802323714588
3239.0,0.030164906924202484
3238.0,0.030164906924202484
3237.0,0.03030458888152676
3236.0,0.030351159519274695
3235.0,0.030397735151460825
3234.0,0.030397735151460825
3233.0,0.030490901403433135
3232.0,0.030537492025363155
3231.0,0.030490901403433135
3230.0,0.030351159519274695
3229.0,0.030118356253500123
3228.0,0.029839156962686353
3227.0,0.02960662792039992
3226.0,0.029467170231675777
3225.0,0.029374223311705583
3224.0,0.02932775731028059
3223.0,0.029188389127482228
3222.0,0.029002634427514717
3221.0,0.028770552723758724
3220.0,0.02863136320857662
3219.0,0.02863136320857662
3218.0,0.028677754757187035
3217.0,0.02872415126189476
3216.0,0.02872415126189476
3215.0,0.02863136320857662
3214.0,0.028538594975413334
3213.0,0.028445846553939003
3212.0,0.02839947976994095
3211.0,0.02826040911222183
3210.0,0.028028723600243666
3209.0,0.0277045713888604
3208.0,0.027426919073445077
3207.0,0.027288159452933503
3206.0,0.027195677663422346
3205.0,0.02724191609646076
3204.0,0.027334407733889066
3203.0,0.02751945012352408
3202.0,0.027565723042634938
3201.0,0.027426919073445077
3200.0,0.027149444152769986
3199.0,0.026872146400301444
3198.0,0.026687379547098322
3197.0,0.026502691267936695
3196.0,0.026318081496016443
3195.0,0.026087429580295085
3194.0,0.025902996205869
3193.0,0.025718641122169483
3192.0,0.02558042614771394
3191.0,0.025488307262671706
3190.0,0.02544225514642018
3189.0,0.02553436426275746
3188.0,0.02558042614771394
3187.0,0.02558042614771394
3186.0,0.02544225514642018
3185.0,0.025304128090317013
3184.0,0.02516604495145991
3183.0,0.025074013910237447
3182.0,0.024936003904763915
3181.0,0.02475205875931885
3180.0,0.024568191490736968
3179.0,0.024476287039668643
3178.0,0.024476287039668643
3177.0,0.024476287039668643
3176.0,0.02438440203310499
3175.0,0.024154774532432866
3174.0,0.023879381700184332
3173.0,0.02365002099672653
3172.0,0.02351246269481
3171.0,0.02342078135989012
3170.0,0.023374947949272418
3169.0,0.023374947949272418
3168.0,0.023283295636617574
3167.0,0.023237476732539397
3166.0,0.023191662661933732
3165.0,0.02314585342378117
3164.0,0.023054249440757957
3163.0,0.02296266477531872
3162.0,0.02282532397981263
3161.0,0.02277955336461468
3160.0,0.022733787572707387
3159.0,0.022688026603074007
3158.0,0.02259651912656535
3157.0,0.02245929405346514
3156.0,0.022322112326006227
3155.0,0.022139270735302752
3154.0,0.021956506090037076
3153.0,0.021773818325474092
3152.0,0.021636852916117055
3151.0,0.021545566634771474
3150.0,0.021499930688540836
3149.0,0.0214542995372613
3148.0,0.021317434843055594
3147.0,0.021135015652343103
3146.0,0.020907099361673565
3145.0,0.020770406977844713
3144.0,0.020724852408976924
3143.0,0.02067930261797568
3142.0,0.02058821736556471
3141.0,0.02045162529590483
3140.0,0.02026956933771462
3139.0,0.020087589665283012
3138.0,0.01990568621470623
3137.0,0.019723858922159776
3136.0,0.01954210772389997
3135.0,0.019451260640229506
3134.0,0.01940584422377989
3133.0,0.019360432556262852
3132.0,0.019315025636685412
3131.0,0.0192242260373785
3130.0,0.019133445417920836
3129.0,0.018951941086827073
3128.0,0.018815862601645694
3127.0,0.018634490921455527
3126.0,0.018543833477873584
3125.0,0.018498511851753108
3124.0,0.018498511851753108
3123.0,0.018498511851753108
3122.0,0.01845319495476394
3121.0,0.01840788278591865
3120.0,0.01831727262871463
3119.0,0.018271974638383703
3118.0,0.018181392829336396
3117.0,0.01809082990920774
3116.0,0.017955020928509757
3115.0,0.017774008325325275
3114.0,0.01759307113620534
3113.0,0.017457417697056554
3112.0,0.017367005605150476
3111.0,0.01727661233145472
3110.0,0.01727661233145472
3109.0,0.017321806616515723
3108.0,0.017367005605150476
3107.0,0.017367005605150476
3106.0,0.017367005605150476
3105.0,0.017321806616515723
3104.0,0.017231422748988034
3103.0,0.017095882207371904
3102.0,0.016960383953898095
3101.0,0.01677978535189717
3100.0,0.016599261819461697
3099.0,0.016418813294209356
3098.0,0.01628352608625061
3097.0,0.016148281008528276
3096.0,0.016013078034810446
3095.0,0.015922966097169144
3094.0,0.015832872853011715
3093.0,0.015832872853011715
3092.0,0.015832872853011715
3091.0,0.015877917138889863
3090.0,0.015877917138889863
3089.0,0.015832872853011715
3088.0,0.015697768020096703
3087.0,0.015562705203923999
3086.0,0.01547268665620738
3085.0,0.01538268676325183
3084.0,0.015337693809893471
3083.0,0.015247721884586563
3082.0,0.015157768594724175
3081.0,0.015022873584506602
3080.0,0.014932966849499074
3079.0,0.014798141635428141
3078.0,0.014663358264387139
3077.0,0.01452861671041239
3076.0,0.014393916947563534
3075.0,0.014259258949925524
3074.0,0.014169510141607944
3073.0,0.014079779876432497
3072.0,0.013990068146738865
3071.0,0.013900374944870508
3070.0,0.013900374944870508
3069.0,0.013990068146738865
3068.0,0.01403492169512921
3067.0,0.013990068146738865
3066.0,0.01381070026317599
3065.0,0.013541787262693505
3064.0,0.013273040668781544
3063.0,0.013138729709955221
3062.0,0.013138729709955221
3061.0,0.01322826573375524
3060.0,0.013362604389846044
3059.0,0.013362604389846044
3058.0,0.01318349541446362
3057.0,0.013004460275618523
3056.0,0.012825498912458322
3055.0,0.012691326268817527
3054.0,0.01264661126420652
3053.0,0.012557195064198723
3052.0,0.012467797270160563
3051.0,0.012378417874516323
3050.0,0.012244383261476699
3049.0,0.012199714248127602
3048.0,0.012199714248127602
3047.0,0.012244383261476699
3046.0,0.012289056869694281
3045.0,0.012289056869694281
3044.0,0.012289056869694281
3043.0,0.012199714248127602
3042.0,0.012110390002254778
3041.0,0.012065734767841452
3040.0,0.0119764380713403
3039.0,0.0119764380713403
3038.0,0.011931796607364653
3037.0,0.011842527443247208
3036.0,0.011797899741219142
3035.0,0.011708658092512314
3034.0,0.011619434777991433
3033.0,0.011619434777991433
3032.0,0.011619434777991433
3031.0,0.011664044143949504
3030.0,0.011664044143949504
3029.0,0.011574829993696856
3028.0,0.011485634166333858
3027.0,0.011307297450183107
3026.0,0.011218156546359825
3025.0,0.011129033935354915
3024.0,0.011129033935354915
3023.0,0.01117359295472431
3022.0,0.011218156546359825
3021.0,0.011218156546359825
3020.0,0.011129033935354915
3019.0,0.011039929609661936
3018.0,0.010950843561779777
3017.0,0.01086177578421088
3016.0,0.01077272626946324
3015.0,0.010728208358306901
3014.0,0.010594681998483901
3013.0,0.010505687227290839
3012.0,0.010416710688994968
3011.0,0.01037222925484893
3010.0,0.010327752376126709
3009.0,0.01037222925484893
3008.0,0.01037222925484893
3007.0,0.010327752376126709
3006.0,0.010283280051895272
3005.0,0.010194349063173958
3004.0,0.010149890396819572
3003.0,0.010149890396819572
3002.0,0.010194349063173958
3001.0,0.010283280051895272
3000.0,0.010327752376126709
2999.0,0.010327752376126709
2998.0,0.010283280051895272
2997.0,0.010149890396819572
2996.0,0.01001654169860089
2995.0,0.009883233932095559
2994.0,0.00974996707218323
2993.0,0.00966114521239847
2992.0,0.00966114521239847
2991.0,0.009705553871561357
2990.0,0.00974996707218323
2989.0,0.009794384815193347
2988.0,0.009794384815193347
2987.0,0.009794384815193347
2986.0,0.00974996707218323
2985.0,0.00966114521239847
2984.0,0.009527946474380489
2983.0,0.009439170005980158
2982.0,0.009483555971770974
2981.0,0.009572341514736404
2980.0,0.00966114521239847
2979.0,0.00966114521239847
2978.0,0.009616741093766423
2977.0,0.009572341514736404
2976.0,0.009527946474380489
2975.0,0.009527946474380489
2974.0,0.009572341514736404
2973.0,0.00966114521239847
2972.0,0.009794384815193347
2971.0,0.009927665307847056
2970.0,0.010149890396819572
2969.0,0.010327752376126709
2968.0,0.010505687227290839
2967.0,0.010683695010048622
2966.0,0.010817248744452446
2965.0,0.010950843561779777
2964.0,0.011039929609661936
2963.0,0.011129033935354915
2962.0,0.011218156546359825
2961.0,0.011351874764248926
2960.0,0.011485634166333858
2959.0,0.011664044143949504
2958.0,0.011887159731648111
2957.0,0.012065734767841452
2956.0,0.012244383261476699
2955.0,0.012333735073725371
2954.0,0.012423105273012602
2953.0,0.012512493866907004
2952.0,0.012691326268817527
2951.0,0.012959713020733288
2950.0,0.013317820220494436
2949.0,0.01372104409400876
2948.0,0.014214382227394795
2947.0,0.014798141635428141
2946.0,0.015562705203923999
2945.0,0.01646391839700767
2944.0,0.01759307113620534
2943.0,0.018861217359339655
2942.0,0.020315076172974234
2941.0,0.021910826943857264
2940.0,0.02365002099672653
2939.0,0.02562649291857677
2938.0,0.027750864037404455
2937.0,0.030071810571884017
2936.0,0.032545631817259224
2935.0,0.03517488211661135
2934.0,0.03800971255993524
2933.0,0.041101805289228244
2932.0,0.04450467081587295
2931.0,0.04817696468408794
2930.0,0.05212534510230182
2929.0,0.056456022846545606
2928.0,0.06118017497378969
2927.0,0.06641148980334699
2926.0,0.07227044022834539
2925.0,0.07867775641617802
2924.0,0.0856568428805593
2923.0,0.09323411045927221
2922.0,0.10116516193172598
2921.0,0.10924374808178183
2920.0,0.11702034596270106
2919.0,0.12412880927263426
2918.0,0.12983027886355947
2917.0,0.13353543402825974
2916.0,0.13483678049391368
2915.0,0.1337717526203528
2914.0,0.1305922506177981
2913.0,0.12598229613781387
2912.0,0.1207320431753871
2911.0,0.11543118508166672
2910.0,0.11036219959333216
2909.0,0.10568393731556158
2908.0,0.1014393550602879
2907.0,0.09761631556752848
2906.0,0.09425807260839858
2905.0,0.09130056764777605
2904.0,0.08873582900163002
2903.0,0.08645104209348209
2902.0,0.08444188458847957
2901.0,0.08265206237222844
2900.0,0.08092190762392604
2899.0,0.07935499859321249
2898.0,0.07779372256098371
2897.0,0.07623803917129979
2896.0,0.07473949048056472
2895.0,0.07329750581735506
2894.0,0.07191154033502922
2893.0,0.07047889936889606
2892.0,0.06905096883247697
2891.0,0.06747550294945781
2890.0,0.06580465065211571
2889.0,0.06414020196211956
2888.0,0.06243196139961715
2887.0,0.06078036414518184
2886.0,0.05908526241971446
2885.0,0.05734718830678798
2884.0,0.05561604235915585
2883.0,0.05394093961487645
2882.0,0.05217431555754937
2881.0,0.050317309204795935
2880.0,0.048468209457651845
2879.0,0.04657860031896477
2878.0,0.04484161307420642
2877.0,0.04315950984076644
2876.0,0.041579471947481794
2875.0,0.0400527842915015
2874.0,0.03862637240519895
2873.0,0.037299268295658994
2872.0,0.03616496929785207
2871.0,0.03517488211661135
2870.0,0.03428102975577918
2869.0,0.033482823553208085
2868.0,0.032920265855503006
2867.0,0.032592443402527316
2866.0,0.03249882527715853
2865.0,0.032686081712916426
2864.0,0.033201453616638954
2863.0,0.03414006319292828
2862.0,0.03559892883726867
2861.0,0.03753595394209874
2860.0,0.04014804520039483
2859.0,0.04359142880416744
2858.0,0.047934409814949674
2857.0,0.053351266093323746
2856.0,0.06003170944866376
2855.0,0.0680846829187538
2854.0,0.07753405470158659
2853.0,0.08830984124613894
2852.0,0.09990609845660159
2851.0,0.11120293254331926
2850.0,0.12056003400478299
2849.0,0.12627261935332057
2848.0,0.1275523522109867
2847.0,0.12459143992293642
2846.0,0.11855827805860697
2845.0,0.11092250734993603
2844.0,0.10275789719463457
2843.0,0.09490603167212863
2842.0,0.08767164203958999
2841.0,0.08118360963962057
2840.0,0.07556563645676939
2839.0,0.07068327324650436
2838.0,0.06661395809694559
2837.0,0.0630843190547461
2836.0,0.06003170944866376
2835.0,0.057396751157843484
2834.0,0.055122694036304765
2833.0,0.05310580489767336
2832.0,0.05134256785867963
2831.0,0.04978123335813667
2830.0,0.04837110616336182
2829.0,0.04711073508906982
2828.0,0.045902279520810385
2827.0,0.044793462458058375
2826.0,0.04368746915880539
2825.0,0.04272802000705722
2824.0,0.0417706858116178
2823.0,0.04091088563260792
2822.0,0.04010041213405646
2821.0,0.039338992729018196
2820.0,0.03857890593355173
2819.0,0.03791491948264003
2818.0,0.037346595106788616
2817.0,0.036731748473764814
2816.0,0.03616496929785207
2815.0,0.035693217696063595
2814.0,0.03531618502395939
2813.0,0.03498654972775217
2812.0,0.03470420418834386
2811.0,0.03432802877989327
2810.0,0.033905220553829274
2809.0,0.03343591590268957
2808.0,0.033060836978886954
2807.0,0.03273290844021437
2806.0,0.03245202378113787
2805.0,0.03217132066984485
2804.0,0.03179733185715028
2803.0,0.03142366482450232
2802.0,0.031096969696171817
2801.0,0.03081714076773867
2800.0,0.03058408764601861
2799.0,0.03030458888152676
2798.0,0.03002526987828502
2797.0,0.029746130405213123
2796.0,0.029467170231675777
2795.0,0.029188389127482228
2794.0,0.02890978686288448
2793.0,0.02863136320857662
2792.0,0.02839947976994095
2791.0,0.02812138297373412
2790.0,0.027889771597169544
2789.0,0.0277045713888604
2788.0,0.02751945012352408
2787.0,0.027288159452933503
2786.0,0.027056991894431892
2785.0,0.02682594731702781
2784.0,0.026595025589939425
2783.0,0.026318081496016443
2782.0,0.026041313893296225
2781.0,0.025810808881832736
2780.0,0.02558042614771394
2779.0,0.02544225514642018
2778.0,0.025304128090317013
2777.0,0.02521206778644225
2776.0,0.02512002699306959
2775.0,0.025028005701930978
2774.0,0.024936003904763915
2773.0,0.024798037742147727
2772.0,0.024568191490736968
2771.0,0.024338466818941473
2770.0,0.024154774532432866
2769.0,0.02406295751688936
2768.0,0.024017056287453542
2767.0,0.023971159908874107
2766.0,0.023879381700184332
2765.0,0.023741750742954926
2764.0,0.02365002099672653
2763.0,0.02355831062115543
2762.0,0.02342078135989012
2761.0,0.023237476732539397
2760.0,0.02300845469384938
2759.0,0.02282532397981263
2758.0,0.022688026603074007
2757.0,0.022642270454698687
2756.0,0.022642270454698687
2755.0,0.02255077261765881
2754.0,0.022367834754000393
2753.0,0.0221849739168134
2752.0,0.022093572362881675
2751.0,0.02200219004126036
2750.0,0.021956506090037076
2749.0,0.021910826943857264
2748.0,0.021819483062586187
2747.0,0.021728158389364705
2746.0,0.021636852916117055
2745.0,0.021545566634771474
2744.0,0.021499930688540836
2743.0,0.021499930688540836
2742.0,0.021545566634771474
2741.0,0.02159120737696063
2740.0,0.021545566634771474
2739.0,0.0214542995372613
2738.0,0.021317434843055594
2737.0,0.0211806132671577
2736.0,0.021089422824428272
2735.0,0.021043834782408455
2734.0,0.0209982515252789
2733.0,0.020907099361673565
2732.0,0.020861530453190058
2731.0,0.020770406977844713
2730.0,0.020770406977844713
2729.0,0.020770406977844713
2728.0,0.020724852408976924
2727.0,0.020633757603838898
2726.0,0.020497151212598652
2725.0,0.020406104151069693
2724.0,0.020315076172974234
2723.0,0.02022406727031445
2722.0,0.02022406727031445
2721.0,0.020178569969774962
2720.0,0.02013307743509718
2719.0,0.02013307743509718
2718.0,0.020087589665283012
2717.0,0.02004210665933459
2716.0,0.019996628416253603
2715.0,0.01990568621470623
2714.0,0.019860222254245663
2713.0,0.019814763052665052
2712.0,0.019723858922159776
2711.0,0.019632973815224997
2710.0,0.01958753839310856
2709.0,0.01954210772389997
2708.0,0.01949668180660491
2707.0,0.01940584422377989
2706.0,0.019360432556262852
2705.0,0.019315025636685412
2704.0,0.019269623464054586
2703.0,0.019269623464054586
2702.0,0.0192242260373785
2701.0,0.019178833355664393
2700.0,0.019133445417920836
2699.0,0.019042683770379876
2698.0,0.01899731005860028
2697.0,0.018906576854070378
2696.0,0.018861217359339655
2695.0,0.018861217359339655
2694.0,0.018815862601645694
2693.0,0.018770512579999288
2692.0,0.018725167293411005
2691.0,0.018634490921455527
2690.0,0.018543833477873584
2689.0,0.01840788278591865
2688.0,0.01831727262871463
2687.0,0.018362575344230914
2686.0,0.01845319495476394
2685.0,0.01858915983411169
2684.0,0.018725167293411005
2683.0,0.018725167293411005
2682.0,0.018679826740892747
2681.0,0.018634490921455527
2680.0,0.018498511851753108
2679.0,0.018362575344230914
2678.0,0.018271974638383703
2677.0,0.018181392829336396
2676.0,0.018226681372252695
2675.0,0.018271974638383703
2674.0,0.018362575344230914
2673.0,0.018498511851753108
2672.0,0.018543833477873584
2671.0,0.018498511851753108
2670.0,0.01840788278591865
2669.0,0.01831727262871463
2668.0,0.018271974638383703
2667.0,0.018226681372252695
2666.0,0.018226681372252695
2665.0,0.018226681372252695
2664.0,0.018181392829336396
2663.0,0.01809082990920774
2662.0,0.017955020928509757
2661.0,0.017909760704207134
2660.0,0.017864505196230507
2659.0,0.017909760704207134
2658.0,0.017955020928509757
2657.0,0.01800028587012159
2656.0,0.018045555530026514
2655.0,0.018045555530026514
2654.0,0.018045555530026514
2653.0,0.018045555530026514
2652.0,0.017955020928509757
2651.0,0.017864505196230507
2650.0,0.017774008325325275
2649.0,0.017728766960431575
2648.0,0.017774008325325275
2647.0,0.01781925440359733
2646.0,0.017909760704207134
2645.0,0.017909760704207134
2644.0,0.017909760704207134
2643.0,0.017864505196230507
2642.0,0.01781925440359733
2641.0,0.017774008325325275
2640.0,0.017728766960431575
2639.0,0.01768353030793479
2638.0,0.01759307113620534
2637.0,0.017502630802287644
2636.0,0.017457417697056554
2635.0,0.017412209298337533
2634.0,0.017412209298337533
2633.0,0.017412209298337533
2632.0,0.017457417697056554
2631.0,0.017502630802287644
2630.0,0.017502630802287644
2629.0,0.017502630802287644
2628.0,0.017502630802287644
2627.0,0.017457417697056554
2626.0,0.017412209298337533
2625.0,0.017412209298337533
2624.0,0.017367005605150476
2623.0,0.01727661233145472
2622.0,0.017141057687924732
2621.0,0.017005545341335804
2620.0,0.016915227262211507
2619.0,0.016870075265299933
2618.0,0.016915227262211507
2617.0,0.016915227262211507
2616.0,0.016960383953898095
2615.0,0.016960383953898095
2614.0,0.016915227262211507
2613.0,0.016870075265299933
2612.0,0.01677978535189717
2611.0,0.016734647433454652
2610.0,0.016689514205884493
2609.0,0.016599261819461697
2608.0,0.016509028184833463
2607.0,0.01646391839700767
2606.0,0.016418813294209356
2605.0,0.016373712875465518
2604.0,0.016373712875465518
2603.0,0.01632861713980338
2602.0,0.01632861713980338
2601.0,0.016373712875465518
2600.0,0.016418813294209356
2599.0,0.01646391839700767
2598.0,0.016509028184833463
2597.0,0.016509028184833463
2596.0,0.01646391839700767
2595.0,0.016418813294209356
2594.0,0.01628352608625061
2593.0,0.016193358021584725
2592.0,0.016103208673694303
2591.0,0.016103208673694303
2590.0,0.016058141016111804
2589.0,0.016013078034810446
2588.0,0.015922966097169144
2587.0,0.015877917138889863
2586.0,0.015832872853011715
2585.0,0.015832872853011715
2584.0,0.015877917138889863
2583.0,0.015832872853011715
2582.0,0.015832872853011715
2581.0,0.01578783323856614
2580.0,0.015832872853011715
2579.0,0.015877917138889863
2578.0,0.015832872853011715
2577.0,0.01578783323856614
2576.0,0.015697768020096703
2575.0,0.015607721475734415
2574.0,0.015562705203923999
2573.0,0.015517693597737248
2572.0,0.01547268665620738
2571.0,0.015427684378367834
2570.0,0.015427684378367834
2569.0,0.01547268665620738
2568.0,0.015517693597737248
2567.0,0.015517693597737248
2566.0,0.01547268665620738
2565.0,0.015427684378367834
2564.0,0.015427684378367834
2563.0,0.01547268665620738
2562.0,0.015517693597737248
2561.0,0.015517693597737248
2560.0,0.015562705203923999
2559.0,0.015517693597737248
2558.0,0.01547268665620738
2557.0,0.015427684378367834
2556.0,0.015337693809893471
2555.0,0.015292705517326866
2554.0,0.015247721884586563
2553.0,0.015247721884586563
2552.0,0.015292705517326866
2551.0,0.015337693809893471
2550.0,0.01538268676325183
2549.0,0.01538268676325183
2548.0,0.015337693809893471
2547.0,0.015292705517326866
2546.0,0.015247721884586563
2545.0,0.015202742910707112
2544.0,0.015157768594724175
2543.0,0.015067833932588037
2542.0,0.014977917890464765
2541.0,0.014932966849499074
2540.0,0.014888020460646079
2539.0,0.014888020460646079
2538.0,0.014888020460646079
2537.0,0.014888020460646079
2536.0,0.014888020460646079
2535.0,0.014888020460646079
2534.0,0.014932966849499074
2533.0,0.014932966849499074
2532.0,0.014932966849499074
2531.0,0.014932966849499074
2530.0,0.014977917890464765
2529.0,0.014977917890464765
2528.0,0.014977917890464765
2527.0,0.014888020460646079
2526.0,0.014843078722943437
2525.0,0.014798141635428141
2524.0,0.014798141635428141
2523.0,0.014843078722943437
2522.0,0.014843078722943437
2521.0,0.014843078722943437
2520.0,0.014798141635428141
2519.0,0.014798141635428141
2518.0,0.014753209197138295
2517.0,0.014753209197138295
2516.0,0.014708281407112
2515.0,0.014663358264387139
2514.0,0.014618439768003144
2513.0,0.014663358264387139
2512.0,0.014663358264387139
2511.0,0.014708281407112
2510.0,0.014753209197138295
2509.0,0.014708281407112
2508.0,0.014663358264387139
2507.0,0.014618439768003144
2506.0,0.014573525916998342
2505.0,0.014573525916998342
2504.0,0.01452861671041239
2503.0,0.014438812226654996
2502.0,0.014393916947563534
2501.0,0.014349026309051105
2500.0,0.014349026309051105
2499.0,0.014438812226654996
2498.0,0.01452861671041239
2497.0,0.014573525916998342
2496.0,0.01452861671041239
2495.0,0.0144837121472845
2494.0,0.014438812226654996
2493.0,0.014393916947563534
2492.0,0.014393916947563534
2491.0,0.014393916947563534
2490.0,0.014393916947563534
2489.0,0.014438812226654996
2488.0,0.01452861671041239
2487.0,0.014573525916998342
2486.0,0.014618439768003144
2485.0,0.014663358264387139
2484.0,0.014663358264387139
2483.0,0.014573525916998342
2482.0,0.0144837121472845
2481.0,0.014393916947563534
2480.0,0.014349026309051105
2479.0,0.014304140310157809
2478.0,0.014304140310157809
2477.0,0.014304140310157809
2476.0,0.014304140310157809
2475.0,0.014304140310157809
2474.0,0.014259258949925524
2473.0,0.014259258949925524
2472.0,0.014304140310157809
2471.0,0.014304140310157809
2470.0,0.014349026309051105
2469.0,0.014349026309051105
2468.0,0.014393916947563534
2467.0,0.014393916947563534
2466.0,0.014393916947563534
2465.0,0.014393916947563534
2464.0,0.014349026309051105
2463.0,0.014304140310157809
2462.0,0.014214382227394795
2461.0,0.014169510141607944
2460.0,0.014124642691606404
2459.0,0.014124642691606404
2458.0,0.014169510141607944
2457.0,0.014169510141607944
2456.0,0.014169510141607944
2455.0,0.014169510141607944
2454.0,0.014169510141607944
2453.0,0.014214382227394795
2452.0,0.014214382227394795
2451.0,0.014259258949925524
2450.0,0.014259258949925524
2449.0,0.014304140310157809
2448.0,0.014349026309051105
2447.0,0.014349026309051105
2446.0,0.014349026309051105
2445.0,0.014349026309051105
2444.0,0.014349026309051105
2443.0,0.014349026309051105
2442.0,0.014304140310157809
2441.0,0.014349026309051105
2440.0,0.014349026309051105
2439.0,0.014393916947563534
2438.0,0.014438812226654996
2437.0,0.014393916947563534
2436.0,0.014349026309051105
2435.0,0.014304140310157809
2434.0,0.014259258949925524
2433.0,0.014259258949925524
2432.0,0.014259258949925524
2431.0,0.014214382227394795
2430.0,0.014214382227394795
2429.0,0.014304140310157809
2428.0,0.014393916947563534
2427.0,0.014438812226654996
2426.0,0.014393916947563534
2425.0,0.014349026309051105
2424.0,0.014304140310157809
2423.0,0.014349026309051105
2422.0,0.014393916947563534
2421.0,0.014438812226654996
2420.0,0.014438812226654996
2419.0,0.014393916947563534
2418.0,0.014304140310157809
2417.0,0.014304140310157809
2416.0,0.014349026309051105
2415.0,0.014393916947563534
2414.0,0.014438812226654996
2413.0,0.014438812226654996
2412.0,0.014438812226654996
2411.0,0.014393916947563534
2410.0,0.014304140310157809
2409.0,0.014214382227394795
2408.0,0.014214382227394795
2407.0,0.014214382227394795
2406.0,0.014214382227394795
2405.0,0.014259258949925524
2404.0,0.014259258949925524
2403.0,0.014214382227394795
2402.0,0.014214382227394795
2401.0,0.014169510141607944
2400.0,0.014169510141607944
2399.0,0.014169510141607944
2398.0,0.014169510141607944
2397.0,0.014169510141607944
2396.0,0.014214382227394795
2395.0,0.014304140310157809
2394.0,0.014393916947563534
2393.0,0.014393916947563534
2392.0,0.014349026309051105
2391.0,0.014304140310157809
2390.0,0.014214382227394795
2389.0,0.014169510141607944
2388.0,0.014169510141607944
2387.0,0.014079779876432497
2386.0,0.013945219230304673
2385.0,0.013765869865004277
2384.0,0.013541787262693505
2383.0,0.013407393177789162
2382.0,0.013407393177789162
2381.0,0.013541787262693505
2380.0,0.013765869865004277
2379.0,0.013945219230304673
2378.0,0.013990068146738865
2377.0,0.013990068146738865
2376.0,0.01403492169512921
2375.0,0.01403492169512921
2374.0,0.013900374944870508
2373.0,0.013586594534531482
2372.0,0.01318349541446362
2371.0,0.012870232340102872
2370.0,0.012825498912458322
2369.0,0.013138729709955221
2368.0,0.013631406429727155
2367.0,0.014214382227394795
2366.0,0.014753209197138295
2365.0,0.015292705517326866
2364.0,0.015562705203923999
2363.0,0.015067833932588037
2362.0,0.013765869865004277
2361.0,0.012333735073725371
2360.0,0.012021084124518078
2359.0,0.013317820220494436
2358.0,0.015247721884586563
2357.0,0.016418813294209356
2356.0,0.016238439713835096
2355.0,0.015427684378367834
2354.0,0.014708281407112
2353.0,0.014349026309051105
2352.0,0.014124642691606404
2351.0,0.01385553528947936
2350.0,0.013765869865004277
2349.0,0.01381070026317599
2348.0,0.013990068146738865
2347.0,0.014169510141607944
2346.0,0.014304140310157809
2345.0,0.014349026309051105
2344.0,0.014214382227394795
2343.0,0.01381070026317599
2342.0,0.013362604389846044
2341.0,0.013138729709955221
2340.0,0.01322826573375524
2339.0,0.013676222949234651
2338.0,0.014438812226654996
2337.0,0.015247721884586563
2336.0,0.015742798294583915
2335.0,0.015652742414136167
2334.0,0.015067833932588037
2333.0,0.0144837121472845
2332.0,0.014259258949925524
2331.0,0.014349026309051105
2330.0,0.01452861671041239
2329.0,0.014708281407112
2328.0,0.014708281407112
2327.0,0.0144837121472845
2326.0,0.014079779876432497
2325.0,0.013765869865004277
2324.0,0.01381070026317599
2323.0,0.014214382227394795
2322.0,0.014753209197138295
2321.0,0.015022873584506602
2320.0,0.015022873584506602
2319.0,0.014932966849499074
2318.0,0.014888020460646079
2317.0,0.014888020460646079
2316.0,0.014843078722943437
2315.0,0.014708281407112
2314.0,0.014573525916998342
2313.0,0.0144837121472845
2312.0,0.014349026309051105
2311.0,0.014304140310157809
2310.0,0.014304140310157809
2309.0,0.014304140310157809
2308.0,0.014304140310157809
2307.0,0.014214382227394795
2306.0,0.014124642691606404
2305.0,0.01403492169512921
2304.0,0.01403492169512921
2303.0,0.01403492169512921
2302.0,0.014079779876432497
2301.0,0.014079779876432497
2300.0,0.01403492169512921
2299.0,0.013990068146738865
2298.0,0.013990068146738865
2297.0,0.013990068146738865
2296.0,0.014079779876432497
2295.0,0.014124642691606404
2294.0,0.014079779876432497
2293.0,0.014079779876432497
2292.0,0.014079779876432497
2291.0,0.014124642691606404
2290.0,0.014169510141607944
2289.0,0.014304140310157809
2288.0,0.014349026309051105
2287.0,0.014393916947563534
2286.0,0.014438812226654996
2285.0,0.014438812226654996
2284.0,0.014438812226654996
2283.0,0.014438812226654996
2282.0,0.014438812226654996
2281.0,0.014393916947563534
2280.0,0.014393916947563534
2279.0,0.014393916947563534
2278.0,0.014393916947563534
2277.0,0.014349026309051105
2276.0,0.014304140310157809
2275.0,0.014259258949925524
2274.0,0.014259258949925524
2273.0,0.014259258949925524
2272.0,0.014349026309051105
2271.0,0.014438812226654996
2270.0,0.01452861671041239
2269.0,0.014618439768003144
2268.0,0.014618439768003144
2267.0,0.01452861671041239
2266.0,0.014393916947563534
2265.0,0.014259258949925524
2264.0,0.014214382227394795
2263.0,0.014214382227394795
2262.0,0.014259258949925524
2261.0,0.014304140310157809
2260.0,0.014349026309051105
2259.0,0.014349026309051105
2258.0,0.014349026309051105
2257.0,0.014393916947563534
2256.0,0.014393916947563534
2255.0,0.014349026309051105
2254.0,0.014259258949925524
2253.0,0.014169510141607944
2252.0,0.014169510141607944
2251.0,0.014259258949925524
2250.0,0.014349026309051105
2249.0,0.014438812226654996
2248.0,0.014393916947563534
2247.0,0.014304140310157809
2246.0,0.014214382227394795
2245.0,0.014124642691606404
2244.0,0.014079779876432497
2243.0,0.014124642691606404
2242.0,0.014214382227394795
2241.0,0.014349026309051105
2240.0,0.014393916947563534
2239.0,0.014393916947563534
2238.0,0.014304140310157809
2237.0,0.014259258949925524
2236.0,0.014169510141607944
2235.0,0.014124642691606404
2234.0,0.014079779876432497
2233.0,0.014124642691606404
2232.0,0.014124642691606404
2231.0,0.014169510141607944
2230.0,0.014169510141607944
2229.0,0.014169510141607944
2228.0,0.014124642691606404
2227.0,0.014079779876432497
2226.0,0.014079779876432497
2225.0,0.014124642691606404
2224.0,0.014169510141607944
2223.0,0.014169510141607944
2222.0,0.014124642691606404
2221.0,0.014079779876432497
2220.0,0.013990068146738865
2219.0,0.013990068146738865
2218.0,0.013990068146738865
2217.0,0.014079779876432497
2216.0,0.014124642691606404
2215.0,0.014169510141607944
2214.0,0.014214382227394795
2213.0,0.014169510141607944
2212.0,0.014124642691606404
2211.0,0.014079779876432497
2210.0,0.01403492169512921
2209.0,0.013990068146738865
2208.0,0.013900374944870508
2207.0,0.01385553528947936
2206.0,0.013900374944870508
2205.0,0.013945219230304673
2204.0,0.013990068146738865
2203.0,0.013945219230304673
2202.0,0.013945219230304673
2201.0,0.013990068146738865
2200.0,0.01403492169512921
2199.0,0.014124642691606404
2198.0,0.014169510141607944
2197.0,0.014214382227394795
2196.0,0.014259258949925524
2195.0,0.014304140310157809
2194.0,0.014259258949925524
2193.0,0.014214382227394795
2192.0,0.014169510141607944
2191.0,0.014079779876432497
2190.0,0.01403492169512921
2189.0,0.013945219230304673
2188.0,0.013945219230304673
2187.0,0.013990068146738865
2186.0,0.01403492169512921
2185.0,0.01403492169512921
2184.0,0.01403492169512921
2183.0,0.013990068146738865
2182.0,0.013945219230304673
2181.0,0.013945219230304673
2180.0,0.013990068146738865
2179.0,0.013990068146738865
2178.0,0.01403492169512921
2177.0,0.01403492169512921
2176.0,0.013990068146738865
2175.0,0.013900374944870508
2174.0,0.01385553528947936
2173.0,0.01381070026317599
2172.0,0.01385553528947936
2171.0,0.013900374944870508
2170.0,0.013900374944870508
2169.0,0.01385553528947936
2168.0,0.01381070026317599
2167.0,0.013765869865004277
2166.0,0.013765869865004277
2165.0,0.01381070026317599
2164.0,0.01385553528947936
2163.0,0.013900374944870508
2162.0,0.013945219230304673
2161.0,0.013990068146738865
2160.0,0.013990068146738865
2159.0,0.013945219230304673
2158.0,0.013945219230304673
2157.0,0.013945219230304673
2156.0,0.013990068146738865
2155.0,0.01403492169512921
2154.0,0.01403492169512921
2153.0,0.01403492169512921
2152.0,0.01403492169512921
2151.0,0.013990068146738865
2150.0,0.013945219230304673
2149.0,0.013945219230304673
2148.0,0.013900374944870508
2147.0,0.013900374944870508
2146.0,0.01385553528947936
2145.0,0.01385553528947936
2144.0,0.01385553528947936
2143.0,0.013900374944870508
2142.0,0.01385553528947936
2141.0,0.013765869865004277
2140.0,0.01372104409400876
2139.0,0.013676222949234651
2138.0,0.01372104409400876
2137.0,0.013765869865004277
2136.0,0.013765869865004277
2135.0,0.013765869865004277
2134.0,0.013765869865004277
2133.0,0.01381070026317599
2132.0,0.01385553528947936
2131.0,0.01381070026317599
2130.0,0.013765869865004277
2129.0,0.013676222949234651
2128.0,0.013631406429727155
2127.0,0.013631406429727155
2126.0,0.013631406429727155
2125.0,0.013586594534531482
2124.0,0.013586594534531482
2123.0,0.013586594534531482
2122.0,0.013586594534531482
2121.0,0.013676222949234651
2120.0,0.013765869865004277
2119.0,0.01381070026317599
2118.0,0.01381070026317599
2117.0,0.01372104409400876
2116.0,0.013676222949234651
2115.0,0.013676222949234651
2114.0,0.013676222949234651
2113.0,0.013765869865004277
2112.0,0.013765869865004277
2111.0,0.013765869865004277
2110.0,0.01372104409400876
2109.0,0.013676222949234651
2108.0,0.013676222949234651
2107.0,0.013676222949234651
2106.0,0.013676222949234651
2105.0,0.013631406429727155
2104.0,0.013586594534531482
2103.0,0.013541787262693505
2102.0,0.013541787262693505
2101.0,0.013496984613259544
2100.0,0.013541787262693505
2099.0,0.013586594534531482
2098.0,0.013676222949234651
2097.0,0.013676222949234651
2096.0,0.01372104409400876
2095.0,0.01372104409400876
2094.0,0.01372104409400876
2093.0,0.013676222949234651
2092.0,0.013631406429727155
2091.0,0.013586594534531482
2090.0,0.013541787262693505
2089.0,0.013541787262693505
2088.0,0.013586594534531482
2087.0,0.013631406429727155
2086.0,0.013676222949234651
2085.0,0.01372104409400876
2084.0,0.01372104409400876
2083.0,0.01372104409400876
2082.0,0.013676222949234651
2081.0,0.013631406429727155
2080.0,0.013586594534531482
2079.0,0.013541787262693505
2078.0,0.013496984613259544
2077.0,0.013541787262693505
2076.0,0.013541787262693505
2075.0,0.013541787262693505
2074.0,0.013496984613259544
2073.0,0.013541787262693505
2072.0,0.013541787262693505
2071.0,0.013586594534531482
2070.0,0.013541787262693505
2069.0,0.013541787262693505
2068.0,0.013541787262693505
2067.0,0.013541787262693505
2066.0,0.013541787262693505
2065.0,0.013496984613259544
2064.0,0.013452186585275916
2063.0,0.013407393177789162
2062.0,0.013407393177789162
2061.0,0.013496984613259544
2060.0,0.013541787262693505
2059.0,0.013541787262693505
2058.0,0.013496984613259544
2057.0,0.013407393177789162
2056.0,0.013317820220494436
2055.0,0.013317820220494436
2054.0,0.013407393177789162
2053.0,0.013541787262693505
2052.0,0.013631406429727155
2051.0,0.013631406429727155
2050.0,0.013631406429727155
2049.0,0.013631406429727155
2048.0,0.013586594534531482
2047.0,0.013586594534531482
2046.0,0.013586594534531482
2045.0,0.013586594534531482
2044.0,0.013676222949234651
2043.0,0.013676222949234651
2042.0,0.013676222949234651
2041.0,0.013676222949234651
2040.0,0.01372104409400876
2039.0,0.01372104409400876
2038.0,0.013676222949234651
2037.0,0.013586594534531482
2036.0,0.013496984613259544
2035.0,0.013452186585275916
2034.0,0.013452186585275916
2033.0,0.013541787262693505
2032.0,0.013586594534531482
2031.0,0.013631406429727155
2030.0,0.013586594534531482
2029.0,0.013586594534531482
2028.0,0.013586594534531482
2027.0,0.013631406429727155
2026.0,0.013631406429727155
2025.0,0.013676222949234651
2024.0,0.01372104409400876
2023.0,0.01372104409400876
2022.0,0.01372104409400876
2021.0,0.01372104409400876
2020.0,0.013631406429727155
2019.0,0.013586594534531482
2018.0,0.013541787262693505
2017.0,0.013496984613259544
2016.0,0.013496984613259544
2015.0,0.013541787262693505
2014.0,0.013541787262693505
2013.0,0.013541787262693505
2012.0,0.013541787262693505
2011.0,0.013452186585275916
2010.0,0.013362604389846044
2009.0,0.013273040668781544
2008.0,0.01322826573375524
2007.0,0.01322826573375524
2006.0,0.01322826573375524
2005.0,0.01318349541446362
2004.0,0.01322826573375524
2003.0,0.013273040668781544
2002.0,0.013407393177789162
2001.0,0.013452186585275916
2000.0,0.013496984613259544
1999.0,0.013452186585275916
1998.0,0.013362604389846044
1997.0,0.013273040668781544
1996.0,0.01318349541446362
1995.0,0.013093968619278806
1994.0,0.013093968619278806
1993.0,0.01318349541446362
1992.0,0.013273040668781544
1991.0,0.013317820220494436
1990.0,0.013362604389846044
1989.0,0.013407393177789162
1988.0,0.013407393177789162
1987.0,0.013362604389846044
1986.0,0.013273040668781544
1985.0,0.01318349541446362
1984.0,0.013138729709955221
1983.0,0.01318349541446362
1982.0,0.01322826573375524
1981.0,0.01322826573375524
1980.0,0.01318349541446362
1979.0,0.013138729709955221
1978.0,0.013138729709955221
1977.0,0.01318349541446362
1976.0,0.01322826573375524
1975.0,0.013317820220494436
1974.0,0.013317820220494436
1973.0,0.013273040668781544
1972.0,0.01322826573375524
1971.0,0.01322826573375524
1970.0,0.01318349541446362
1969.0,0.01322826573375524
1968.0,0.01322826573375524
1967.0,0.01322826573375524
1966.0,0.01322826573375524
1965.0,0.01318349541446362
1964.0,0.013138729709955221
1963.0,0.013093968619278806
1962.0,0.013004460275618523
1961.0,0.013004460275618523
1960.0,0.013049212141483357
1959.0,0.013138729709955221
1958.0,0.01318349541446362
1957.0,0.01322826573375524
1956.0,0.01322826573375524
1955.0,0.01318349541446362
1954.0,0.013138729709955221
1953.0,0.013093968619278806
1952.0,0.013049212141483357
1951.0,0.013004460275618523
1950.0,0.012959713020733288
1949.0,0.013004460275618523
1948.0,0.013004460275618523
1947.0,0.013049212141483357
1946.0,0.013093968619278806
1945.0,0.013093968619278806
1944.0,0.013093968619278806
1943.0,0.013049212141483357
1942.0,0.013093968619278806
1941.0,0.01318349541446362
1940.0,0.013273040668781544
1939.0,0.013317820220494436
1938.0,0.013362604389846044
1937.0,0.013317820220494436
1936.0,0.013273040668781544
1935.0,0.01322826573375524
1934.0,0.01318349541446362
1933.0,0.01318349541446362
1932.0,0.01318349541446362
1931.0,0.01318349541446362
1930.0,0.01318349541446362
1929.0,0.01318349541446362
1928.0,0.013138729709955221
1927.0,0.013093968619278806
1926.0,0.013093968619278806
1925.0,0.013093968619278806
1924.0,0.013093968619278806
1923.0,0.013093968619278806
1922.0,0.013138729709955221
1921.0,0.01318349541446362
1920.0,0.01322826573375524
1919.0,0.013273040668781544
1918.0,0.013273040668781544
1917.0,0.013273040668781544
1916.0,0.013273040668781544
1915.0,0.01322826573375524
1914.0,0.01318349541446362
1913.0,0.01318349541446362
1912.0,0.013138729709955221
1911.0,0.013138729709955221
1910.0,0.013093968619278806
1909.0,0.013093968619278806
1908.0,0.013138729709955221
1907.0,0.01318349541446362
1906.0,0.01318349541446362
1905.0,0.01322826573375524
1904.0,0.013273040668781544
1903.0,0.013317820220494436
1902.0,0.013362604389846044
1901.0,0.013407393177789162
1900.0,0.013407393177789162
1899.0,0.013362604389846044
1898.0,0.013407393177789162
1897.0,0.013452186585275916
1896.0,0.013496984613259544
1895.0,0.013452186585275916
1894.0,0.013452186585275916
1893.0,0.013407393177789162
1892.0,0.013362604389846044
1891.0,0.013317820220494436
1890.0,0.013362604389846044
1889.0,0.013362604389846044
1888.0,0.013362604389846044
1887.0,0.013362604389846044
1886.0,0.013317820220494436
1885.0,0.013273040668781544
1884.0,0.01318349541446362
1883.0,0.013093968619278806
1882.0,0.013049212141483357
1881.0,0.013049212141483357
1880.0,0.013049212141483357
1879.0,0.013004460275618523
1878.0,0.012959713020733288
1877.0,0.012959713020733288
1876.0,0.013004460275618523
1875.0,0.013004460275618523
1874.0,0.012959713020733288
1873.0,0.012870232340102872
1872.0,0.012825498912458322
1871.0,0.012780770091995297
1870.0,0.012736045877764557
1869.0,0.012825498912458322
1868.0,0.012959713020733288
1867.0,0.013049212141483357
1866.0,0.013093968619278806
1865.0,0.013138729709955221
1864.0,0.013138729709955221
1863.0,0.013138729709955221
1862.0,0.013138729709955221
1861.0,0.01318349541446362
1860.0,0.01322826573375524
1859.0,0.013273040668781544
1858.0,0.01322826573375524
1857.0,0.01318349541446362
1856.0,0.013138729709955221
1855.0,0.013049212141483357
1854.0,0.013004460275618523
1853.0,0.013004460275618523
1852.0,0.013004460275618523
1851.0,0.013049212141483357
1850.0,0.013004460275618523
1849.0,0.012959713020733288
1848.0,0.012959713020733288
1847.0,0.012959713020733288
1846.0,0.012914970375878188
1845.0,0.012825498912458322
1844.0,0.012736045877764557
1843.0,0.012736045877764557
1842.0,0.012825498912458322
1841.0,0.012914970375878188
1840.0,0.013004460275618523
1839.0,0.013004460275618523
1838.0,0.013004460275618523
1837.0,0.013004460275618523
1836.0,0.013004460275618523
1835.0,0.012959713020733288
1834.0,0.012914970375878188
1833.0,0.012870232340102872
1832.0,0.012825498912458322
1831.0,0.012780770091995297
1830.0,0.012825498912458322
1829.0,0.012959713020733288
1828.0,0.013049212141483357
1827.0,0.013093968619278806
1826.0,0.013049212141483357
1825.0,0.012959713020733288
1824.0,0.012914970375878188
1823.0,0.012914970375878188
1822.0,0.012959713020733288
1821.0,0.013004460275618523
1820.0,0.013049212141483357
1819.0,0.013049212141483357
1818.0,0.013004460275618523
1817.0,0.012959713020733288
1816.0,0.012959713020733288
1815.0,0.012914970375878188
1814.0,0.012825498912458322
1813.0,0.012825498912458322
1812.0,0.012825498912458322
1811.0,0.012870232340102872
1810.0,0.012959713020733288
1809.0,0.013004460275618523
1808.0,0.013004460275618523
1807.0,0.013004460275618523
1806.0,0.013004460275618523
1805.0,0.013004460275618523
1804.0,0.013049212141483357
1803.0,0.013004460275618523
1802.0,0.012959713020733288
1801.0,0.012914970375878188
1800.0,0.012914970375878188
1799.0,0.012914970375878188
1798.0,0.012959713020733288
1797.0,0.013049212141483357
1796.0,0.013093968619278806
1795.0,0.013049212141483357
1794.0,0.012959713020733288
1793.0,0.012825498912458322
1792.0,0.012691326268817527
1791.0,0.01264661126420652
1790.0,0.01260190086298274
1789.0,0.01264661126420652
1788.0,0.012736045877764557
1787.0,0.012825498912458322
1786.0,0.012870232340102872
1785.0,0.012914970375878188
1784.0,0.012959713020733288
1783.0,0.013004460275618523
1782.0,0.013049212141483357
1781.0,0.013049212141483357
1780.0,0.013049212141483357
1779.0,0.013093968619278806
1778.0,0.013093968619278806
1777.0,0.013093968619278806
1776.0,0.013093968619278806
1775.0,0.013138729709955221
1774.0,0.013138729709955221
1773.0,0.013138729709955221
1772.0,0.01322826573375524
1771.0,0.013273040668781544
1770.0,0.013273040668781544
1769.0,0.01322826573375524
1768.0,0.013138729709955221
1767.0,0.013049212141483357
1766.0,0.013049212141483357
1765.0,0.013138729709955221
1764.0,0.013273040668781544
1763.0,0.013407393177789162
1762.0,0.013452186585275916
1761.0,0.013541787262693505
1760.0,0.013541787262693505
1759.0,0.013541787262693505
1758.0,0.013541787262693505
1757.0,0.013586594534531482
1756.0,0.013631406429727155
1755.0,0.01372104409400876
1754.0,0.013765869865004277
1753.0,0.013765869865004277
1752.0,0.013765869865004277
1751.0,0.013765869865004277
1750.0,0.01372104409400876
1749.0,0.013765869865004277
1748.0,0.01385553528947936
1747.0,0.013945219230304673
1746.0,0.01403492169512921
1745.0,0.014079779876432497
1744.0,0.014169510141607944
1743.0,0.014259258949925524
1742.0,0.014259258949925524
1741.0,0.014259258949925524
1740.0,0.014259258949925524
1739.0,0.014214382227394795
1738.0,0.014214382227394795
1737.0,0.014259258949925524
1736.0,0.014304140310157809
1735.0,0.014214382227394795
1734.0,0.014259258949925524
1733.0,0.014438812226654996
1732.0,0.014618439768003144
1731.0,0.014753209197138295
1730.0,0.014798141635428141
1729.0,0.014798141635428141
1728.0,0.014798141635428141
1727.0,0.014798141635428141
1726.0,0.014753209197138295
1725.0,0.014798141635428141
1724.0,0.014843078722943437
1723.0,0.014932966849499074
1722.0,0.014977917890464765
1721.0,0.015112798935672522
1720.0,0.015202742910707112
1719.0,0.015247721884586563
1718.0,0.015247721884586563
1717.0,0.01538268676325183
1716.0,0.015562705203923999
1715.0,0.015652742414136167
1714.0,0.015742798294583915
1713.0,0.01578783323856614
1712.0,0.01578783323856614
1711.0,0.01578783323856614
1710.0,0.01578783323856614
1709.0,0.015877917138889863
1708.0,0.016058141016111804
1707.0,0.016238439713835096
1706.0,0.016418813294209356
1705.0,0.016599261819461697
1704.0,0.01677978535189717
1703.0,0.016870075265299933
1702.0,0.016915227262211507
1701.0,0.016870075265299933
1700.0,0.016915227262211507
1699.0,0.017005545341335804
1698.0,0.017141057687924732
1697.0,0.017412209298337533
1696.0,0.01781925440359733
1695.0,0.018136109008649592
1694.0,0.018271974638383703
1693.0,0.01840788278591865
1692.0,0.018543833477873584
1691.0,0.018634490921455527
1690.0,0.018770512579999288
1689.0,0.019042683770379876
1688.0,0.019315025636685412
1687.0,0.01958753839310856
1686.0,0.019723858922159776
1685.0,0.02004210665933459
1684.0,0.02067930261797568
1683.0,0.021135015652343103
1682.0,0.02122621566987748
1681.0,0.021363051615525652
1680.0,0.021499930688540836
1679.0,0.021728158389364705
1678.0,0.02200219004126036
1677.0,0.02227639471115217
1676.0,0.022642270454698687
1675.0,0.023054249440757957
1674.0,0.023374947949272418
1673.0,0.023604163388120325
1672.0,0.023787622882622816
1671.0,0.02406295751688936
1670.0,0.024568191490736968
1669.0,0.025074013910237447
1668.0,0.025488307262671706
1667.0,0.025672564576383117
1666.0,0.025810808881832736
1665.0,0.025995203102585407
1664.0,0.026225806029419818
1663.0,0.02664120011360227
1662.0,0.027056991894431892
1661.0,0.027334407733889066
1660.0,0.02751945012352408
1659.0,0.027658283674251827
1658.0,0.0277045713888604
1657.0,0.0277045713888604
1656.0,0.0277045713888604
1655.0,0.027612000892527133
1654.0,0.02798240132598462
1653.0,0.029188389127482228
1652.0,0.029885677714903025
1651.0,0.029932203450862893
1650.0,0.029885677714903025
1649.0,0.029885677714903025
1648.0,0.030118356253500123
1647.0,0.03063068826647264
1646.0,0.03105031901865729
1645.0,0.031190286087141805
1644.0,0.031190286087141805
1643.0,0.031190286087141805
1642.0,0.031236951802751545
1641.0,0.03128362253321426
1640.0,0.031236951802751545
1639.0,0.03105031901865729
1638.0,0.030770520137356927
1637.0,0.030444315779156517
1636.0,0.03025802323714588
1635.0,0.03002526987828502
1634.0,0.02960662792039992
1633.0,0.029095501846216454
1632.0,0.02858497661500481
1631.0,0.02812138297373412
1630.0,0.0277045713888604
1629.0,0.027426919073445077
1628.0,0.027195677663422346
1627.0,0.02696455931306696
1626.0,0.026687379547098322
1625.0,0.02636422658259252
1624.0,0.026041313893296225
1623.0,0.025810808881832736
1622.0,0.02562649291857677
1621.0,0.02539620791296726
1620.0,0.02516604495145991
1619.0,0.024936003904763915
1618.0,0.02475205875931885
1617.0,0.024660115394541604
1616.0,0.024568191490736968
1615.0,0.02438440203310499
1614.0,0.024154774532432866
1613.0,0.023925268380126097
1612.0,0.023741750742954926
1611.0,0.023604163388120325
1610.0,0.02351246269481
1609.0,0.023374947949272418
1608.0,0.023191662661933732
1607.0,0.023100049017062307
1606.0,0.02296266477531872
1605.0,0.02282532397981263
1604.0,0.022642270454698687
1603.0,0.02245929405346514
1602.0,0.02227639471115217
1601.0,0.022139270735302752
1600.0,0.022093572362881675
1599.0,0.02204787879853809
1598.0,0.021956506090037076
1597.0,0.021865152601710403
1596.0,0.021819483062586187
1595.0,0.021728158389364705
1594.0,0.021728158389364705
1593.0,0.02168250325324883
1592.0,0.021636852916117055
1591.0,0.02159120737696063
1590.0,0.021499930688540836
1589.0,0.0214542995372613
1588.0,0.02140867317992523
1587.0,0.021317434843055594
1586.0,0.0211806132671577
1585.0,0.021089422824428272
1584.0,0.0209982515252789
1583.0,0.0209982515252789
1582.0,0.020952673052035298
1581.0,0.02081596632558158
1580.0,0.02058821736556471
1579.0,0.02036058777709271
1578.0,0.02013307743509718
1577.0,0.02004210665933459
1576.0,0.020087589665283012
1575.0,0.02013307743509718
1574.0,0.020087589665283012
1573.0,0.02004210665933459
1572.0,0.019996628416253603
1571.0,0.01990568621470623
1570.0,0.019860222254245663
1569.0,0.019814763052665052
1568.0,0.019678413991243593
1567.0,0.01954210772389997
1566.0,0.019360432556262852
1565.0,0.019133445417920836
1564.0,0.01899731005860028
1563.0,0.018906576854070378
1562.0,0.018951941086827073
1561.0,0.018906576854070378
1560.0,0.018861217359339655
1559.0,0.01899731005860028
1558.0,0.018861217359339655
1557.0,0.01845319495476394
1556.0,0.018271974638383703
1555.0,0.018136109008649592
1554.0,0.018045555530026514
1553.0,0.018045555530026514
1552.0,0.01809082990920774
1551.0,0.01809082990920774
1550.0,0.018045555530026514
1549.0,0.01800028587012159
1548.0,0.017909760704207134
1547.0,0.01781925440359733
1546.0,0.017728766960431575
1545.0,0.01768353030793479
1544.0,0.017774008325325275
1543.0,0.017728766960431575
1542.0,0.01759307113620534
1541.0,0.01759307113620534
1540.0,0.017728766960431575
1539.0,0.017728766960431575
1538.0,0.017547848615010242
1537.0,0.017367005605150476
1536.0,0.017321806616515723
1535.0,0.017186237868137555
1534.0,0.017050711425501408
1533.0,0.016915227262211507
1532.0,0.01677978535189717
1531.0,0.016644385668211692
1530.0,0.016599261819461697
1529.0,0.016599261819461697
1528.0,0.016599261819461697
1527.0,0.01646391839700767
1526.0,0.01632861713980338
1525.0,0.016238439713835096
1524.0,0.016193358021584725
1523.0,0.016103208673694303
1522.0,0.015877917138889863
1521.0,0.01578783323856614
1520.0,0.015742798294583915
1519.0,0.015697768020096703
1518.0,0.015697768020096703
1517.0,0.01578783323856614
1516.0,0.01578783323856614
1515.0,0.015652742414136167
1514.0,0.015517693597737248
1513.0,0.01538268676325183
1512.0,0.015292705517326866
1511.0,0.015247721884586563
1510.0,0.015202742910707112
1509.0,0.015247721884586563
1508.0,0.015247721884586563
1507.0,0.015202742910707112
1506.0,0.015157768594724175
1505.0,0.015112798935672522
1504.0,0.015112798935672522
1503.0,0.015067833932588037
1502.0,0.015022873584506602
1501.0,0.014932966849499074
1500.0,0.014932966849499074
1499.0,0.014888020460646079
1498.0,0.014753209197138295
1497.0,0.014663358264387139
1496.0,0.01452861671041239
1495.0,0.014393916947563534
1494.0,0.014259258949925524
1493.0,0.014304140310157809
1492.0,0.014349026309051105
1491.0,0.014259258949925524
1490.0,0.014214382227394795
1489.0,0.014304140310157809
1488.0,0.014259258949925524
1487.0,0.014079779876432497
1486.0,0.01385553528947936
1485.0,0.013765869865004277
1484.0,0.013765869865004277
1483.0,0.01372104409400876
1482.0,0.013631406429727155
1481.0,0.013765869865004277
1480.0,0.014169510141607944
1479.0,0.014977917890464765
1478.0,0.017005545341335804
1477.0,0.021317434843055594
1476.0,0.028538594975413334
1475.0,0.038199360808321536
1474.0,0.049245818406496555
1473.0,0.05848856736559682
1472.0,0.06153031163235467
1471.0,0.05943371350990989
1470.0,0.05620880107069848
1469.0,0.053842605077627725
1468.0,0.05237025261564554
1467.0,0.05212534510230182
1466.0,0.05433450056786593
1465.0,0.05993198626064755
1464.0,0.06646209802829528
1463.0,0.07012147634321675
1462.0,0.06961138175567827
1461.0,0.06565307326174441
1460.0,0.05963295401433477
1459.0,0.05305672930217464
1458.0,0.04749815213697639
1457.0,0.04387961360698034
1456.0,0.041627267521392675
1455.0,0.03995754427315856
1454.0,0.038531444649213764
1453.0,0.0371100126082089
1452.0,0.03578752703018084
1451.0,0.03461012978487776
1450.0,0.03371743783253667
1449.0,0.032920265855503006
1448.0,0.03226486821611996
1447.0,0.03175060589208267
1446.0,0.03133029827960798
1445.0,0.030910397045078586
1444.0,0.030537492025363155
1443.0,0.030211462585061133
1442.0,0.029885677714903025
1441.0,0.02960662792039992
1440.0,0.029234840219232394
1439.0,0.02890978686288448
1438.0,0.028538594975413334
1437.0,0.02826040911222183
1436.0,0.028075050815808744
1435.0,0.027889771597169544
1434.0,0.027612000892527133
1433.0,0.02724191609646076
1432.0,0.026872146400301444
1431.0,0.026502691267936695
1430.0,0.026225806029419818
1429.0,0.025902996205869
1428.0,0.02558042614771394
1427.0,0.025258095499050004
1426.0,0.025028005701930978
1425.0,0.02475205875931885
1424.0,0.024522236834125355
1423.0,0.024292536462819925
1422.0,0.02406295751688936
1421.0,0.023787622882622816
1420.0,0.02355831062115543
1419.0,0.02351246269481
1418.0,0.02355831062115543
1417.0,0.023466619608062178
1416.0,0.023283295636617574
1415.0,0.023054249440757957
1414.0,0.02282532397981263
1413.0,0.022642270454698687
1412.0,0.02245929405346514
1411.0,0.022367834754000393
1410.0,0.02227639471115217
1409.0,0.0221849739168134
1408.0,0.02204787879853809
1407.0,0.021865152601710403
1406.0,0.02168250325324883
1405.0,0.02140867317992523
1404.0,0.0211806132671577
1403.0,0.0209982515252789
1402.0,0.02081596632558158
1401.0,0.020633757603838898
1400.0,0.02036058777709271
1399.0,0.020178569969774962
1398.0,0.020087589665283012
1397.0,0.02004210665933459
1396.0,0.02004210665933459
1395.0,0.020087589665283012
1394.0,0.02004210665933459
1393.0,0.019814763052665052
1392.0,0.01954210772389997
1391.0,0.01940584422377989
1390.0,0.019315025636685412
1389.0,0.019269623464054586
1388.0,0.019315025636685412
1387.0,0.019360432556262852
1386.0,0.019451260640229506
1385.0,0.019451260640229506
1384.0,0.01949668180660491
1383.0,0.019632973815224997
1382.0,0.019814763052665052
1381.0,0.02004210665933459
1380.0,0.020315076172974234
1379.0,0.020542681902151694
1378.0,0.020724852408976924
1377.0,0.02081596632558158
1376.0,0.02081596632558158
1375.0,0.020861530453190058
1374.0,0.020952673052035298
1373.0,0.020952673052035298
1372.0,0.0209982515252789
1371.0,0.021043834782408455
1370.0,0.021135015652343103
1369.0,0.02122621566987748
1368.0,0.021271822861508305
1367.0,0.021317434843055594
1366.0,0.021271822861508305
1365.0,0.021089422824428272
1364.0,0.020861530453190058
1363.0,0.020633757603838898
1362.0,0.020497151212598652
1361.0,0.020315076172974234
1360.0,0.020178569969774962
1359.0,0.02004210665933459
1358.0,0.01995115493504329
1357.0,0.019814763052665052
1356.0,0.019632973815224997
1355.0,0.01954210772389997
1354.0,0.01949668180660491
1353.0,0.01949668180660491
1352.0,0.019451260640229506
1351.0,0.01940584422377989
1350.0,0.019360432556262852
1349.0,0.019269623464054586
1348.0,0.019133445417920836
1347.0,0.01899731005860028
1346.0,0.018906576854070378
1345.0,0.018725167293411005
1344.0,0.01858915983411169
1343.0,0.01840788278591865
1342.0,0.018271974638383703
1341.0,0.018181392829336396
1340.0,0.01809082990920774
1339.0,0.018045555530026514
1338.0,0.018045555530026514
1337.0,0.01800028587012159
1336.0,0.017909760704207134
1335.0,0.01781925440359733
1334.0,0.017774008325325275
1333.0,0.017728766960431575
1332.0,0.01768353030793479
1331.0,0.017638298366853045
1330.0,0.01759307113620534
1329.0,0.017547848615010242
1328.0,0.017457417697056554
1327.0,0.017412209298337533
1326.0,0.017457417697056554
1325.0,0.017547848615010242
1324.0,0.017638298366853045
1323.0,0.017774008325325275
1322.0,0.017864505196230507
1321.0,0.01800028587012159
1320.0,0.018045555530026514
1319.0,0.018136109008649592
1318.0,0.018226681372252695
1317.0,0.018271974638383703
1316.0,0.01831727262871463
1315.0,0.01840788278591865
1314.0,0.018498511851753108
1313.0,0.018634490921455527
1312.0,0.018679826740892747
1311.0,0.018725167293411005
1310.0,0.018770512579999288
1309.0,0.018770512579999288
1308.0,0.018815862601645694
1307.0,0.018906576854070378
1306.0,0.018951941086827073
1305.0,0.01899731005860028
1304.0,0.01899731005860028
1303.0,0.018951941086827073
1302.0,0.018906576854070378
1301.0,0.018815862601645694
1300.0,0.018770512579999288
1299.0,0.018815862601645694
1298.0,0.018815862601645694
1297.0,0.018815862601645694
1296.0,0.018725167293411005
1295.0,0.018634490921455527
1294.0,0.01858915983411169
1293.0,0.018543833477873584
1292.0,0.018498511851753108
1291.0,0.018498511851753108
1290.0,0.018498511851753108
1289.0,0.018498511851753108
1288.0,0.01845319495476394
1287.0,0.018362575344230914
1286.0,0.01831727262871463
1285.0,0.018271974638383703
1284.0,0.018181392829336396
1283.0,0.018136109008649592
1282.0,0.018136109008649592
1281.0,0.018181392829336396
1280.0,0.018181392829336396
1279.0,0.018181392829336396
1278.0,0.018181392829336396
1277.0,0.018136109008649592
1276.0,0.01809082990920774
1275.0,0.01809082990920774
1274.0,0.018181392829336396
1273.0,0.018271974638383703
1272.0,0.01831727262871463
1271.0,0.01831727262871463
1270.0,0.01831727262871463
1269.0,0.018362575344230914
1268.0,0.01845319495476394
1267.0,0.01858915983411169
1266.0,0.018679826740892747
1265.0,0.018770512579999288
1264.0,0.018815862601645694
1263.0,0.018861217359339655
1262.0,0.018906576854070378
1261.0,0.018951941086827073
1260.0,0.018951941086827073
1259.0,0.01899731005860028
1258.0,0.019042683770379876
1257.0,0.0190880622231564
1256.0,0.0190880622231564
1255.0,0.0190880622231564
1254.0,0.019178833355664393
1253.0,0.019269623464054586
1252.0,0.019360432556262852
1251.0,0.019451260640229506
1250.0,0.01949668180660491
1249.0,0.019451260640229506
1248.0,0.019451260640229506
1247.0,0.01940584422377989
1246.0,0.01940584422377989
1245.0,0.01940584422377989
1244.0,0.019451260640229506
1243.0,0.01949668180660491
1242.0,0.01949668180660491
1241.0,0.019451260640229506
1240.0,0.019360432556262852
1239.0,0.019315025636685412
1238.0,0.019315025636685412
1237.0,0.019315025636685412
1236.0,0.019315025636685412
1235.0,0.019315025636685412
1234.0,0.019315025636685412
1233.0,0.019360432556262852
1232.0,0.01940584422377989
1231.0,0.01940584422377989
1230.0,0.01940584422377989
1229.0,0.01940584422377989
1228.0,0.01940584422377989
1227.0,0.019360432556262852
1226.0,0.019360432556262852
1225.0,0.019360432556262852
1224.0,0.019360432556262852
1223.0,0.01940584422377989
1222.0,0.01940584422377989
1221.0,0.019451260640229506
1220.0,0.01940584422377989
1219.0,0.019360432556262852
1218.0,0.019269623464054586
1217.0,0.0192242260373785
1216.0,0.0192242260373785
1215.0,0.0192242260373785
1214.0,0.0192242260373785
1213.0,0.019315025636685412
1212.0,0.01940584422377989
1211.0,0.01958753839310856
1210.0,0.019723858922159776
1209.0,0.019814763052665052
1208.0,0.019860222254245663
1207.0,0.019996628416253603
1206.0,0.020178569969774962
1205.0,0.020315076172974234
1204.0,0.020406104151069693
1203.0,0.020497151212598652
1202.0,0.020497151212598652
1201.0,0.020542681902151694
1200.0,0.020542681902151694
1199.0,0.02058821736556471
1198.0,0.02067930261797568
1197.0,0.020724852408976924
1196.0,0.020861530453190058
1195.0,0.020952673052035298
1194.0,0.021043834782408455
1193.0,0.021135015652343103
1192.0,0.02122621566987748
1191.0,0.021317434843055594
1190.0,0.02140867317992523
1189.0,0.0214542995372613
1188.0,0.021545566634771474
1187.0,0.02168250325324883
1186.0,0.021865152601710403
1185.0,0.02204787879853809
1184.0,0.022230681908425698
1183.0,0.02245929405346514
1182.0,0.022688026603074007
1181.0,0.02291687968414724
1180.0,0.023100049017062307
1179.0,0.023329119375188556
1178.0,0.02355831062115543
1177.0,0.023741750742954926
1176.0,0.023925268380126097
1175.0,0.024108863598207186
1174.0,0.02438440203310499
1173.0,0.02475205875931885
1172.0,0.025028005701930978
1171.0,0.025258095499050004
1170.0,0.02544225514642018
1169.0,0.02558042614771394
1168.0,0.025718641122169483
1167.0,0.025949097207122573
1166.0,0.02617967564731627
1165.0,0.026410376572743033
1164.0,0.026595025589939425
1163.0,0.026872146400301444
1162.0,0.027195677663422346
1161.0,0.02751945012352408
1160.0,0.027843464140506313
1159.0,0.028075050815808744
1158.0,0.028306761050139073
1157.0,0.02858497661500481
1156.0,0.02890978686288448
1155.0,0.029281296279810798
1154.0,0.029653123769906697
1153.0,0.03002526987828502
1152.0,0.030397735151460825
1151.0,0.030770520137356927
1150.0,0.031190286087141805
1149.0,0.03161045815293173
1148.0,0.032031037121307726
1147.0,0.03245202378113787
1146.0,0.03282657704446046
1145.0,0.033201453616638954
1144.0,0.03352973627071565
1143.0,0.033905220553829274
1142.0,0.03428102975577918
1141.0,0.03475124903287918
1140.0,0.03531618502395939
1139.0,0.03583468937826462
1138.0,0.036401037402758574
1137.0,0.0369681249461018
1136.0,0.03744126420403626
1135.0,0.03791491948264003
1134.0,0.038341651362284734
1133.0,0.038721320914956836
1132.0,0.03910132267333921
1131.0,0.03948165721929198
1130.0,0.03981472339538916
1129.0,0.04014804520039483
1128.0,0.040481623027001756
1127.0,0.04081545726880842
1126.0,0.041149548320321694
1125.0,0.041483896576958834
1124.0,0.04181850243505214
1123.0,0.04210551278710151
1122.0,0.04229695845116854
1121.0,0.04253638427006878
1120.0,0.04272802000705722
1119.0,0.04291974034210022
1118.0,0.04315950984076644
1117.0,0.0433514207947967
1116.0,0.043495409683302455
1115.0,0.04359142880416744
1114.0,0.04368746915880539
1113.0,0.0437835307566099
1112.0,0.04383156952463674
1111.0,0.04387961360698034
1110.0,0.0439276630048171
1109.0,0.04402377775167454
1108.0,0.044167989767578186
1107.0,0.044312249686494276
1106.0,0.04440844959427559
1105.0,0.04450467081587295
1104.0,0.04460091336073302
1103.0,0.04464904263234004
1102.0,0.04464904263234004
1101.0,0.04460091336073302
1100.0,0.04464904263234004
1099.0,0.04464904263234004
1098.0,0.04469717723830824
1097.0,0.04469717723830824
1096.0,0.04469717723830824
1095.0,0.04469717723830824
1094.0,0.04464904263234004
1093.0,0.04460091336073302
1092.0,0.04469717723830824
1091.0,0.044793462458058375
1090.0,0.044937930324967956
1089.0,0.04503426894157925
1088.0,0.04503426894157925
1087.0,0.04503426894157925
1086.0,0.044986096961949995
1085.0,0.04503426894157925
1084.0,0.04503426894157925
1083.0,0.04508244626504121
1082.0,0.04503426894157925
1081.0,0.044986096961949995
1080.0,0.044937930324967956
1079.0,0.04484161307420642
1078.0,0.04469717723830824
1077.0,0.04440844959427559
1076.0,0.044071843103049346
1075.0,0.04363944632667782
1074.0,0.04320747962950522
1073.0,0.04282386959515394
1072.0,0.042392712939904875
1071.0,0.041914151478914974
1070.0,0.041436116778032606
1069.0,0.041006334969674096
1068.0,0.04062466342415694
1067.0,0.040243327009005014
1066.0,0.039767126871487646
1065.0,0.03910132267333921
1064.0,0.03838909190871931
1063.0,0.03772539537668518
1062.0,0.0371573187987575
1061.0,0.03668448861388862
1060.0,0.03630659476198117
1059.0,0.03592902944204468
1058.0,0.03555179208333925
1057.0,0.03517488211661135
1056.0,0.03475124903287918
1055.0,0.03432802877989327
1054.0,0.03385826726096752
1053.0,0.03343591590268957
1052.0,0.03310770413286357
1051.0,0.03273290844021437
1050.0,0.03240522732811035
1049.0,0.032031037121307726
1048.0,0.031657169041054534
1047.0,0.03128362253321426
1046.0,0.030957032694186815
1045.0,0.03067729388779794
1044.0,0.030397735151460825
1043.0,0.030118356253500123
1042.0,0.029792641193145286
1041.0,0.02942069428514915
1040.0,0.029002634427514717
1039.0,0.02872415126189476
1038.0,0.02849221828874393
1037.0,0.028306761050139073
1036.0,0.02812138297373412
1035.0,0.027843464140506313
1034.0,0.027612000892527133
1033.0,0.027426919073445077
1032.0,0.02724191609646076
1031.0,0.02710321556345563
1030.0,0.027010773144651168
1029.0,0.02696455931306696
1028.0,0.02682594731702781
1027.0,0.026595025589939425
1026.0,0.026318081496016443
1025.0,0.025995203102585407
1024.0,0.025672564576383117
1023.0,0.02539620791296726
1022.0,0.02516604495145991
1021.0,0.02498200236711723
1020.0,0.024798037742147727
1019.0,0.024568191490736968
1018.0,0.024292536462819925
1017.0,0.02406295751688936
1016.0,0.023787622882622816
1015.0,0.02351246269481
1014.0,0.023283295636617574
1013.0,0.023054249440757957
1012.0,0.02291687968414724
1011.0,0.02277955336461468
1010.0,0.022642270454698687
1009.0,0.022413561996148967
1008.0,0.022230681908425698
1007.0,0.02200219004126036
1006.0,0.021819483062586187
1005.0,0.02159120737696063
1004.0,0.021363051615525652
1003.0,0.021089422824428272
1002.0,0.020861530453190058
1001.0,0.02067930261797568
1000.0,0.02058821736556471
999.0,0.020542681902151694
998.0,0.02045162529590483
997.0,0.02036058777709271
996.0,0.02026956933771462
995.0,0.02013307743509718
994.0,0.02004210665933459
993.0,0.02004210665933459
992.0,0.020087589665283012
991.0,0.020087589665283012
990.0,0.02004210665933459
989.0,0.02004210665933459
988.0,0.02013307743509718
987.0,0.020406104151069693
986.0,0.020770406977844713
985.0,0.0209982515252789
984.0,0.021089422824428272
983.0,0.020952673052035298
982.0,0.020633757603838898
981.0,0.02036058777709271
980.0,0.02004210665933459
979.0,0.019860222254245663
978.0,0.019769308608968306
977.0,0.019678413991243593
976.0,0.01958753839310856
975.0,0.019451260640229506
974.0,0.019269623464054586
973.0,0.019042683770379876
972.0,0.018861217359339655
971.0,0.018725167293411005
970.0,0.018634490921455527
969.0,0.018679826740892747
968.0,0.018770512579999288
967.0,0.018861217359339655
966.0,0.018906576854070378
965.0,0.018815862601645694
964.0,0.018679826740892747
963.0,0.018498511851753108
962.0,0.018362575344230914
961.0,0.018271974638383703
960.0,0.018136109008649592
959.0,0.018045555530026514
958.0,0.017955020928509757
957.0,0.017864505196230507
956.0,0.017774008325325275
955.0,0.01768353030793479
954.0,0.01759307113620534
953.0,0.017547848615010242
952.0,0.017502630802287644
951.0,0.017412209298337533
950.0,0.017367005605150476
949.0,0.017321806616515723
948.0,0.017367005605150476
947.0,0.017367005605150476
946.0,0.017412209298337533
945.0,0.017367005605150476
944.0,0.017321806616515723
943.0,0.017186237868137555
942.0,0.017095882207371904
941.0,0.017050711425501408
940.0,0.017141057687924732
939.0,0.017231422748988034
938.0,0.017367005605150476
937.0,0.017457417697056554
936.0,0.017502630802287644
935.0,0.017502630802287644
934.0,0.017547848615010242
933.0,0.01759307113620534
932.0,0.017638298366853045
931.0,0.017728766960431575
930.0,0.017728766960431575
929.0,0.017774008325325275
928.0,0.017864505196230507
927.0,0.018045555530026514
926.0,0.018181392829336396
925.0,0.018271974638383703
924.0,0.018271974638383703
923.0,0.018226681372252695
922.0,0.018181392829336396
921.0,0.01809082990920774
920.0,0.018045555530026514
919.0,0.01809082990920774
918.0,0.018136109008649592
917.0,0.018136109008649592
916.0,0.01809082990920774
915.0,0.018136109008649592
914.0,0.018271974638383703
913.0,0.01845319495476394
912.0,0.01858915983411169
911.0,0.018634490921455527
910.0,0.018679826740892747
909.0,0.018679826740892747
908.0,0.018634490921455527
907.0,0.018543833477873584
906.0,0.01845319495476394
905.0,0.01831727262871463
904.0,0.018226681372252695
903.0,0.018181392829336396
902.0,0.018271974638383703
901.0,0.01831727262871463
900.0,0.018362575344230914
899.0,0.01840788278591865
898.0,0.01845319495476394
897.0,0.01845319495476394
896.0,0.018362575344230914
895.0,0.018226681372252695
894.0,0.01809082990920774
893.0,0.017955020928509757
892.0,0.017955020928509757
891.0,0.01809082990920774
890.0,0.01831727262871463
889.0,0.018543833477873584
888.0,0.018679826740892747
887.0,0.018725167293411005
886.0,0.018725167293411005
885.0,0.018770512579999288
884.0,0.018770512579999288
883.0,0.018861217359339655
882.0,0.018951941086827073
881.0,0.01899731005860028
880.0,0.019042683770379876
879.0,0.0190880622231564
878.0,0.019178833355664393
877.0,0.019315025636685412
876.0,0.01940584422377989
875.0,0.01940584422377989
874.0,0.019315025636685412
873.0,0.0192242260373785
872.0,0.019133445417920836
871.0,0.019178833355664393
870.0,0.019315025636685412
869.0,0.019451260640229506
868.0,0.019632973815224997
867.0,0.019723858922159776
866.0,0.019814763052665052
865.0,0.01995115493504329
864.0,0.019996628416253603
863.0,0.02004210665933459
862.0,0.02004210665933459
861.0,0.020087589665283012
860.0,0.020178569969774962
859.0,0.02036058777709271
858.0,0.02045162529590483
857.0,0.020497151212598652
856.0,0.020542681902151694
855.0,0.020633757603838898
854.0,0.02067930261797568
853.0,0.02067930261797568
852.0,0.02067930261797568
851.0,0.020770406977844713
850.0,0.020907099361673565
849.0,0.021135015652343103
848.0,0.02122621566987748
847.0,0.0211806132671577
846.0,0.0211806132671577
845.0,0.02122621566987748
844.0,0.021271822861508305
843.0,0.021317434843055594
842.0,0.021271822861508305
841.0,0.0211806132671577
840.0,0.021135015652343103
839.0,0.021135015652343103
838.0,0.02122621566987748
837.0,0.021317434843055594
836.0,0.02140867317992523
835.0,0.0214542995372613
834.0,0.0214542995372613
833.0,0.021317434843055594
832.0,0.021135015652343103
831.0,0.0209982515252789
830.0,0.020907099361673565
829.0,0.020952673052035298
828.0,0.021043834782408455
827.0,0.021089422824428272
826.0,0.021043834782408455
825.0,0.021043834782408455
824.0,0.021089422824428272
823.0,0.02122621566987748
822.0,0.0214542995372613
821.0,0.02168250325324883
820.0,0.021819483062586187
819.0,0.021819483062586187
818.0,0.021728158389364705
817.0,0.02168250325324883
816.0,0.021728158389364705
815.0,0.021910826943857264
814.0,0.0221849739168134
813.0,0.02245929405346514
812.0,0.022642270454698687
811.0,0.022642270454698687
810.0,0.02255077261765881
809.0,0.022505030926963654
808.0,0.02259651912656535
807.0,0.02282532397981263
806.0,0.02314585342378117
805.0,0.023466619608062178
804.0,0.023741750742954926
803.0,0.023879381700184332
802.0,0.023925268380126097
801.0,0.024017056287453542
800.0,0.024154774532432866
799.0,0.024292536462819925
798.0,0.024476287039668643
797.0,0.024660115394541604
796.0,0.024936003904763915
795.0,0.025258095499050004
794.0,0.02553436426275746
793.0,0.025764722556973707
792.0,0.025949097207122573
791.0,0.026271941311972746
790.0,0.026687379547098322
789.0,0.027149444152769986
788.0,0.02751945012352408
787.0,0.027658283674251827
786.0,0.027658283674251827
785.0,0.027565723042634938
784.0,0.02747318213414429
783.0,0.02747318213414429
782.0,0.02751945012352408
781.0,0.027612000892527133
780.0,0.027843464140506313
779.0,0.028167720075074953
778.0,0.02839947976994095
777.0,0.02849221828874393
776.0,0.028445846553939003
775.0,0.02839947976994095
774.0,0.028538594975413334
773.0,0.028816959143838528
772.0,0.02904906565457588
771.0,0.029141943003497595
770.0,0.02904906565457588
769.0,0.028816959143838528
768.0,0.02858497661500481
767.0,0.02839947976994095
766.0,0.02826040911222183
765.0,0.028214062120885508
764.0,0.028214062120885508
763.0,0.028353117935693284
762.0,0.028677754757187035
761.0,0.029095501846216454
760.0,0.029374223311705583
759.0,0.02942069428514915
758.0,0.02932775731028059
757.0,0.029374223311705583
756.0,0.02942069428514915
755.0,0.029374223311705583
754.0,0.029141943003497595
753.0,0.02890978686288448
752.0,0.028863370523193765
751.0,0.029095501846216454
750.0,0.029513651152349718
749.0,0.029839156962686353
748.0,0.03002526987828502
747.0,0.03002526987828502
746.0,0.030071810571884017
745.0,0.030211462585061133
744.0,0.030444315779156517
743.0,0.03067729388779794
742.0,0.030770520137356927
741.0,0.0307239045110681
740.0,0.030537492025363155
739.0,0.030397735151460825
738.0,0.03063068826647264
737.0,0.03142366482450232
736.0,0.033060836978886954
735.0,0.03630659476198117
734.0,0.04253638427006878
733.0,0.05227227303668425
732.0,0.06378795567975115
731.0,0.07350321072677968
730.0,0.07789763319239285
729.0,0.07649693305789551
728.0,0.0716553647351379
727.0,0.0665127121512945
726.0,0.0630843190547461
725.0,0.06193081377661436
724.0,0.06313454102437754
723.0,0.06722192993944942
722.0,0.07504911108438939
721.0,0.08570974433405087
720.0,0.09560907998763835
719.0,0.09990609845660159
718.0,0.09734452478207412
717.0,0.09044397075882471
716.0,0.08238947425013277
715.0,0.07504911108438939
714.0,0.0690000580438479
713.0,0.06398920428479049
712.0,0.05993198626064755
711.0,0.05655495097496965
710.0,0.05379344615721715
709.0,0.05163594401163074
708.0,0.04997609347667353
707.0,0.04866248120408234
706.0,0.04754660357696672
705.0,0.04672366333269573
704.0,0.04633693625290869
703.0,0.046192002334692894
702.0,0.04585401117045196
701.0,0.04527520902093718
700.0,0.04460091336073302
699.0,0.044167989767578186
698.0,0.04397571771932274
697.0,0.04383156952463674
696.0,0.04368746915880539
695.0,0.0437835307566099
694.0,0.04411991377462465
693.0,0.04440844959427559
692.0,0.044360346976747955
691.0,0.04402377775167454
690.0,0.043735497301724546
689.0,0.0437835307566099
688.0,0.04421607108308856
687.0,0.04469717723830824
686.0,0.04503426894157925
685.0,0.04527520902093718
684.0,0.045516282844447975
683.0,0.04570923829887308
682.0,0.045660991397539874
681.0,0.04537162249272897
680.0,0.044937930324967956
679.0,0.04469717723830824
678.0,0.04474531717982
677.0,0.04484161307420642
676.0,0.04474531717982
675.0,0.04450467081587295
674.0,0.044456557540257124
673.0,0.04464904263234004
672.0,0.044986096961949995
671.0,0.04522701031028298
670.0,0.04527520902093718
669.0,0.04522701031028298
668.0,0.0454680573730859
667.0,0.04527520902093718
666.0,0.04411991377462465
665.0,0.04301563225723992
664.0,0.042344833056508824
663.0,0.04210551278710151
662.0,0.042201225070002124
661.0,0.042344833056508824
660.0,0.04210551278710151
659.0,0.04153168163305643
658.0,0.04086316882962593
657.0,0.040481623027001756
656.0,0.040529297924893015
655.0,0.04081545726880842
654.0,0.041006334969674096
653.0,0.04091088563260792
652.0,0.04076775094900409
651.0,0.04072004986906119
650.0,0.040958607678906356
649.0,0.04138834223512067
648.0,0.041579471947481794
647.0,0.041340572947066834
646.0,0.04076775094900409
645.0,0.040243327009005014
644.0,0.0402909757535701
643.0,0.04081545726880842
642.0,0.041483896576958834
641.0,0.041914151478914974
640.0,0.042201225070002124
639.0,0.042775942156833
638.0,0.044071843103049346
637.0,0.04633693625290869
636.0,0.04919717703534143
635.0,0.05178270644002936
634.0,0.05295859474477971
633.0,0.05227227303668425
632.0,0.05056119896349576
631.0,0.049245818406496555
630.0,0.04900266601119507
629.0,0.04953778109440221
628.0,0.05012229596312534
627.0,0.0506099933550872
626.0,0.05134256785867963
625.0,0.05232126006306337
624.0,0.05295859474477971
623.0,0.052762392129333646
622.0,0.05197846685889629
621.0,0.05114709380028648
620.0,0.0506099933550872
619.0,0.050414848673348
618.0,0.050805225762017736
617.0,0.05188057561946402
616.0,0.053351266093323746
615.0,0.05462990550969615
614.0,0.05566540802921782
613.0,0.05630767289398331
612.0,0.05606053552778367
611.0,0.05453141486818014
610.0,0.05266432405126009
609.0,0.05197846685889629
608.0,0.05266432405126009
607.0,0.053596866100945384
606.0,0.053351266093323746
605.0,0.051684859310652254
604.0,0.049148541111453614
603.0,0.04662694927330402
602.0,0.0451788169482068
601.0,0.04527520902093718
600.0,0.046192002334692894
