cm-1,A
4000.0,0.0088
3999.0,0.0089
3998.0,0.009
3997.0,0.009
3996.0,0.009
3995.0,0.009
3994.0,0.0089
3993.0,0.0089
3992.0,0.0089
3991.0,0.0089
3990.0,0.0089
3989.0,0.0089
3988.0,0.0089
3987.0,0.009
3986.0,0.0089
3985.0,0.009
3984.0,0.009
3983.0,0.0091
3982.0,0.0092
3981.0,0.0092
3980.0,0.0091
3979.0,0.009
3978.0,0.0089
3977.0,0.0088
3976.0,0.0088
3975.0,0.0089
3974.0,0.0089
3973.0,0.0089
3972.0,0.0089
3971.0,0.0088
3970.0,0.0088
3969.0,0.0089
3968.0,0.0089
3967.0,0.009
3966.0,0.0089
3965.0,0.0089
3964.0,0.0088
3963.0,0.0089
3962.0,0.0089
3961.0,0.0089
3960.0,0.0089
3959.0,0.0089
3958.0,0.0088
3957.0,0.0088
3956.0,0.0088
3955.0,0.0089
3954.0,0.0089
3953.0,0.009
3952.0,0.009
3951.0,0.009
3950.0,0.0091
3949.0,0.0091
3948.0,0.0092
3947.0,0.0091
3946.0,0.009
3945.0,0.0089
3944.0,0.0089
3943.0,0.0088
3942.0,0.0088
3941.0,0.0088
3940.0,0.0089
3939.0,0.009
3938.0,0.0091
3937.0,0.009
3936.0,0.009
3935.0,0.0089
3934.0,0.0089
3933.0,0.009
3932.0,0.0092
3931.0,0.0093
3930.0,0.0094
3929.0,0.0094
3928.0,0.0093
3927.0,0.0093
3926.0,0.0094
3925.0,0.0094
3924.0,0.0094
3923.0,0.0093
3922.0,0.0092
3921.0,0.0091
3920.0,0.0091
3919.0,0.0091
3918.0,0.0092
3917.0,0.0091
3916.0,0.009
3915.0,0.0089
3914.0,0.0089
3913.0,0.009
3912.0,0.0091
3911.0,0.0092
3910.0,0.0092
3909.0,0.0091
3908.0,0.0091
3907.0,0.009
3906.0,0.0091
3905.0,0.0091
3904.0,0.009
3903.0,0.0089
3902.0,0.0088
3901.0,0.0089
3900.0,0.0089
3899.0,0.009
3898.0,0.0091
3897.0,0.0092
3896.0,0.0094
3895.0,0.0095
3894.0,0.0095
3893.0,0.0095
3892.0,0.0095
3891.0,0.0093
3890.0,0.0091
3889.0,0.0091
3888.0,0.0092
3887.0,0.0092
3886.0,0.0092
3885.0,0.0092
3884.0,0.0092
3883.0,0.0093
3882.0,0.0094
3881.0,0.0093
3880.0,0.0092
3879.0,0.009
3878.0,0.0091
3877.0,0.0092
3876.0,0.0092
3875.0,0.0092
3874.0,0.009
3873.0,0.0089
3872.0,0.009
3871.0,0.0092
3870.0,0.0092
3869.0,0.0092
3868.0,0.0093
3867.0,0.0095
3866.0,0.0097
3865.0,0.0098
3864.0,0.0097
3863.0,0.0096
3862.0,0.0095
3861.0,0.0094
3860.0,0.0094
3859.0,0.0093
3858.0,0.0092
3857.0,0.0092
3856.0,0.0093
3855.0,0.0095
3854.0,0.0097
3853.0,0.0096
3852.0,0.0096
3851.0,0.0098
3850.0,0.01
3849.0,0.01
3848.0,0.0098
3847.0,0.0096
3846.0,0.0095
3845.0,0.0094
3844.0,0.0094
3843.0,0.0094
3842.0,0.0095
3841.0,0.0097
3840.0,0.0098
3839.0,0.0099
3838.0,0.0099
3837.0,0.0098
3836.0,0.0098
3835.0,0.0098
3834.0,0.0098
3833.0,0.0097
3832.0,0.0096
3831.0,0.0095
3830.0,0.0095
3829.0,0.0096
3828.0,0.0097
3827.0,0.0098
3826.0,0.0097
3825.0,0.0095
3824.0,0.0095
3823.0,0.0095
3822.0,0.0097
3821.0,0.0098
3820.0,0.0098
3819.0,0.0098
3818.0,0.0098
3817.0,0.0098
3816.0,0.0098
3815.0,0.0099
3814.0,0.01
3813.0,0.01
3812.0,0.01
3811.0,0.0098
3810.0,0.0097
3809.0,0.0097
3808.0,0.0098
3807.0,0.0098
3806.0,0.0098
3805.0,0.0098
3804.0,0.0099
3803.0,0.01
3802.0,0.0101
3801.0,0.01
3800.0,0.01
3799.0,0.0101
3798.0,0.0101
3797.0,0.01
3796.0,0.0098
3795.0,0.0097
3794.0,0.0097
3793.0,0.0098
3792.0,0.0098
3791.0,0.0098
3790.0,0.0097
3789.0,0.0097
3788.0,0.0098
3787.0,0.0098
3786.0,0.0098
3785.0,0.0098
3784.0,0.0098
3783.0,0.0097
3782.0,0.0097
3781.0,0.0097
3780.0,0.0097
3779.0,0.0097
3778.0,0.0097
3777.0,0.0097
3776.0,0.0098
3775.0,0.0098
3774.0,0.0098
3773.0,0.0099
3772.0,0.0099
3771.0,0.0099
3770.0,0.0098
3769.0,0.0098
3768.0,0.0098
3767.0,0.0099
3766.0,0.0099
3765.0,0.0099
3764.0,0.0099
3763.0,0.0099
3762.0,0.0099
3761.0,0.0098
3760.0,0.0097
3759.0,0.0097
3758.0,0.0098
3757.0,0.0097
3756.0,0.0097
3755.0,0.0097
3754.0,0.0096
3753.0,0.0097
3752.0,0.01
3751.0,0.0103
3750.0,0.0104
3749.0,0.0104
3748.0,0.0104
3747.0,0.0104
3746.0,0.0105
3745.0,0.0105
3744.0,0.0103
3743.0,0.0102
3742.0,0.0102
3741.0,0.0103
3740.0,0.0101
3739.0,0.0099
3738.0,0.0098
3737.0,0.0098
3736.0,0.01
3735.0,0.0101
3734.0,0.01
3733.0,0.0099
3732.0,0.01
3731.0,0.0101
3730.0,0.0103
3729.0,0.0105
3728.0,0.0105
3727.0,0.0104
3726.0,0.0103
3725.0,0.0102
3724.0,0.0103
3723.0,0.0104
3722.0,0.0105
3721.0,0.0105
3720.0,0.0104
3719.0,0.0103
3718.0,0.0102
3717.0,0.0101
3716.0,0.01
3715.0,0.01
3714.0,0.0099
3713.0,0.0099
3712.0,0.01
3711.0,0.0101
3710.0,0.0102
3709.0,0.0103
3708.0,0.0103
3707.0,0.0103
3706.0,0.0103
3705.0,0.0102
3704.0,0.0101
3703.0,0.0101
3702.0,0.0101
3701.0,0.0101
3700.0,0.0102
3699.0,0.0103
3698.0,0.0103
3697.0,0.0102
3696.0,0.0101
3695.0,0.0099
3694.0,0.0098
3693.0,0.0097
3692.0,0.0098
3691.0,0.01
3690.0,0.0103
3689.0,0.0103
3688.0,0.0102
3687.0,0.0101
3686.0,0.0102
3685.0,0.0102
3684.0,0.0102
3683.0,0.0102
3682.0,0.0101
3681.0,0.01
3680.0,0.0099
3679.0,0.0098
3678.0,0.0097
3677.0,0.0098
3676.0,0.01
3675.0,0.01
3674.0,0.01
3673.0,0.0103
3672.0,0.0105
3671.0,0.0106
3670.0,0.0105
3669.0,0.0103
3668.0,0.0102
3667.0,0.0102
3666.0,0.0101
3665.0,0.0101
3664.0,0.0101
3663.0,0.0102
3662.0,0.0103
3661.0,0.0103
3660.0,0.0103
3659.0,0.0102
3658.0,0.0102
3657.0,0.0102
3656.0,0.0101
3655.0,0.0101
3654.0,0.0101
3653.0,0.0101
3652.0,0.0101
3651.0,0.0103
3650.0,0.0105
3649.0,0.0106
3648.0,0.0104
3647.0,0.0104
3646.0,0.0104
3645.0,0.0105
3644.0,0.0106
3643.0,0.0105
3642.0,0.0105
3641.0,0.0104
3640.0,0.0105
3639.0,0.0105
3638.0,0.0106
3637.0,0.0106
3636.0,0.0106
3635.0,0.0106
3634.0,0.0106
3633.0,0.0106
3632.0,0.0107
3631.0,0.0107
3630.0,0.0109
3629.0,0.0109
3628.0,0.0108
3627.0,0.0108
3626.0,0.0109
3625.0,0.011
3624.0,0.011
3623.0,0.0109
3622.0,0.0109
3621.0,0.0109
3620.0,0.011
3619.0,0.011
3618.0,0.011
3617.0,0.011
3616.0,0.011
3615.0,0.0111
3614.0,0.011
3613.0,0.011
3612.0,0.011
3611.0,0.0112
3610.0,0.0113
3609.0,0.0114
3608.0,0.0115
3607.0,0.0115
3606.0,0.0116
3605.0,0.0116
3604.0,0.0115
3603.0,0.0114
3602.0,0.0114
3601.0,0.0113
3600.0,0.0113
3599.0,0.0112
3598.0,0.0112
3597.0,0.0112
3596.0,0.0112
3595.0,0.0112
3594.0,0.0111
3593.0,0.0111
3592.0,0.0111
3591.0,0.0111
3590.0,0.0111
3589.0,0.0111
3588.0,0.0111
3587.0,0.011
3586.0,0.011
3585.0,0.011
3584.0,0.0111
3583.0,0.0111
3582.0,0.0111
3581.0,0.0111
3580.0,0.011
3579.0,0.011
3578.0,0.011
3577.0,0.011
3576.0,0.0109
3575.0,0.011
3574.0,0.0111
3573.0,0.0111
3572.0,0.0112
3571.0,0.0112
3570.0,0.0112
3569.0,0.0113
3568.0,0.0113
3567.0,0.0113
3566.0,0.0112
3565.0,0.0111
3564.0,0.0111
3563.0,0.0112
3562.0,0.0112
3561.0,0.0112
3560.0,0.0112
3559.0,0.0112
3558.0,0.0112
3557.0,0.0113
3556.0,0.0113
3555.0,0.0113
3554.0,0.0113
3553.0,0.0114
3552.0,0.0114
3551.0,0.0115
3550.0,0.0115
3549.0,0.0115
3548.0,0.0114
3547.0,0.0112
3546.0,0.0112
3545.0,0.0112
3544.0,0.0114
3543.0,0.0115
3542.0,0.0116
3541.0,0.0115
3540.0,0.0115
3539.0,0.0114
3538.0,0.0114
3537.0,0.0114
3536.0,0.0115
3535.0,0.0117
3534.0,0.0118
3533.0,0.0118
3532.0,0.0117
3531.0,0.0116
3530.0,0.0115
3529.0,0.0115
3528.0,0.0114
3527.0,0.0114
3526.0,0.0114
3525.0,0.0115
3524.0,0.0117
3523.0,0.0118
3522.0,0.0119
3521.0,0.012
3520.0,0.012
3519.0,0.012
3518.0,0.012
3517.0,0.0119
3516.0,0.0117
3515.0,0.0116
3514.0,0.0114
3513.0,0.0114
3512.0,0.0114
3511.0,0.0115
3510.0,0.0116
3509.0,0.0116
3508.0,0.0115
3507.0,0.0115
3506.0,0.0115
3505.0,0.0115
3504.0,0.0116
3503.0,0.0116
3502.0,0.0117
3501.0,0.0118
3500.0,0.0118
3499.0,0.0118
3498.0,0.0118
3497.0,0.0118
3496.0,0.0119
3495.0,0.012
3494.0,0.0121
3493.0,0.0121
3492.0,0.0122
3491.0,0.0121
3490.0,0.0121
3489.0,0.0121
3488.0,0.012
3487.0,0.0119
3486.0,0.0118
3485.0,0.0118
3484.0,0.0119
3483.0,0.0121
3482.0,0.0123
3481.0,0.0123
3480.0,0.0122
3479.0,0.0121
3478.0,0.012
3477.0,0.0119
3476.0,0.0119
3475.0,0.0119
3474.0,0.012
3473.0,0.012
3472.0,0.012
3471.0,0.012
3470.0,0.0121
3469.0,0.0121
3468.0,0.0121
3467.0,0.0121
3466.0,0.012
3465.0,0.0119
3464.0,0.0118
3463.0,0.0118
3462.0,0.0119
3461.0,0.0121
3460.0,0.0123
3459.0,0.0124
3458.0,0.0124
3457.0,0.0123
3456.0,0.0122
3455.0,0.012
3454.0,0.0119
3453.0,0.0118
3452.0,0.0119
3451.0,0.012
3450.0,0.012
3449.0,0.012
3448.0,0.012
3447.0,0.0119
3446.0,0.012
3445.0,0.012
3444.0,0.0121
3443.0,0.0122
3442.0,0.0122
3441.0,0.0122
3440.0,0.0121
3439.0,0.0121
3438.0,0.0123
3437.0,0.0124
3436.0,0.0126
3435.0,0.0127
3434.0,0.0128
3433.0,0.0127
3432.0,0.0126
3431.0,0.0124
3430.0,0.0122
3429.0,0.0121
3428.0,0.012
3427.0,0.012
3426.0,0.012
3425.0,0.0121
3424.0,0.0121
3423.0,0.0121
3422.0,0.0121
3421.0,0.0122
3420.0,0.0123
3419.0,0.0123
3418.0,0.0123
3417.0,0.0123
3416.0,0.0122
3415.0,0.0121
3414.0,0.0121
3413.0,0.012
3412.0,0.012
3411.0,0.012
3410.0,0.0121
3409.0,0.0121
3408.0,0.0122
3407.0,0.0123
3406.0,0.0123
3405.0,0.0122
3404.0,0.0122
3403.0,0.0121
3402.0,0.0121
3401.0,0.0121
3400.0,0.0121
3399.0,0.0121
3398.0,0.0121
3397.0,0.0121
3396.0,0.0121
3395.0,0.0121
3394.0,0.0122
3393.0,0.0122
3392.0,0.0123
3391.0,0.0123
3390.0,0.0122
3389.0,0.0121
3388.0,0.012
3387.0,0.0121
3386.0,0.0121
3385.0,0.0122
3384.0,0.0123
3383.0,0.0124
3382.0,0.0124
3381.0,0.0123
3380.0,0.0122
3379.0,0.0122
3378.0,0.0122
3377.0,0.0122
3376.0,0.0123
3375.0,0.0122
3374.0,0.0122
3373.0,0.0122
3372.0,0.0122
3371.0,0.0122
3370.0,0.0121
3369.0,0.012
3368.0,0.0121
3367.0,0.0123
3366.0,0.0125
3365.0,0.0126
3364.0,0.0126
3363.0,0.0125
3362.0,0.0123
3361.0,0.0123
3360.0,0.0121
3359.0,0.012
3358.0,0.0119
3357.0,0.0118
3356.0,0.0118
3355.0,0.0119
3354.0,0.012
3353.0,0.012
3352.0,0.012
3351.0,0.012
3350.0,0.012
3349.0,0.012
3348.0,0.012
3347.0,0.0119
3346.0,0.0119
3345.0,0.012
3344.0,0.012
3343.0,0.0119
3342.0,0.0119
3341.0,0.012
3340.0,0.012
3339.0,0.012
3338.0,0.0119
3337.0,0.0119
3336.0,0.0119
3335.0,0.012
3334.0,0.0122
3333.0,0.0122
3332.0,0.0121
3331.0,0.012
3330.0,0.0119
3329.0,0.0118
3328.0,0.0118
3327.0,0.0118
3326.0,0.0119
3325.0,0.0119
3324.0,0.012
3323.0,0.0119
3322.0,0.0118
3321.0,0.0118
3320.0,0.0117
3319.0,0.0118
3318.0,0.0118
3317.0,0.0118
3316.0,0.0118
3315.0,0.0118
3314.0,0.0118
3313.0,0.0119
3312.0,0.0118
3311.0,0.0118
3310.0,0.0117
3309.0,0.0117
3308.0,0.0117
3307.0,0.0118
3306.0,0.0118
3305.0,0.0118
3304.0,0.0118
3303.0,0.0117
3302.0,0.0116
3301.0,0.0116
3300.0,0.0117
3299.0,0.0117
3298.0,0.0117
3297.0,0.0117
3296.0,0.0117
3295.0,0.0116
3294.0,0.0115
3293.0,0.0115
3292.0,0.0115
3291.0,0.0115
3290.0,0.0115
3289.0,0.0115
3288.0,0.0115
3287.0,0.0115
3286.0,0.0115
3285.0,0.0116
3284.0,0.0117
3283.0,0.0118
3282.0,0.0118
3281.0,0.0117
3280.0,0.0116
3279.0,0.0115
3278.0,0.0114
3277.0,0.0113
3276.0,0.0114
3275.0,0.0114
3274.0,0.0113
3273.0,0.0113
3272.0,0.0112
3271.0,0.0112
3270.0,0.0113
3269.0,0.0113
3268.0,0.0113
3267.0,0.0113
3266.0,0.0112
3265.0,0.0112
3264.0,0.0112
3263.0,0.0112
3262.0,0.0112
3261.0,0.0113
3260.0,0.0113
3259.0,0.0113
3258.0,0.0112
3257.0,0.0112
3256.0,0.0112
3255.0,0.0113
3254.0,0.0114
3253.0,0.0113
3252.0,0.0112
3251.0,0.0111
3250.0,0.0111
3249.0,0.011
3248.0,0.011
3247.0,0.011
3246.0,0.011
3245.0,0.011
3244.0,0.011
3243.0,0.011
3242.0,0.0111
3241.0,0.0111
3240.0,0.0112
3239.0,0.0112
3238.0,0.0113
3237.0,0.0114
3236.0,0.0114
3235.0,0.0113
3234.0,0.0113
3233.0,0.0112
3232.0,0.0111
3231.0,0.0111
3230.0,0.0111
3229.0,0.011
3228.0,0.011
3227.0,0.0109
3226.0,0.011
3225.0,0.011
3224.0,0.011
3223.0,0.0109
3222.0,0.0108
3221.0,0.0109
3220.0,0.011
3219.0,0.011
3218.0,0.0111
3217.0,0.0111
3216.0,0.011
3215.0,0.011
3214.0,0.011
3213.0,0.0109
3212.0,0.0109
3211.0,0.0109
3210.0,0.0109
3209.0,0.011
3208.0,0.011
3207.0,0.0109
3206.0,0.0108
3205.0,0.0106
3204.0,0.0105
3203.0,0.0105
3202.0,0.0104
3201.0,0.0104
3200.0,0.0106
3199.0,0.0108
3198.0,0.011
3197.0,0.011
3196.0,0.011
3195.0,0.0109
3194.0,0.0107
3193.0,0.0107
3192.0,0.0106
3191.0,0.0105
3190.0,0.0104
3189.0,0.0103
3188.0,0.0103
3187.0,0.0102
3186.0,0.0103
3185.0,0.0103
3184.0,0.0104
3183.0,0.0104
3182.0,0.0104
3181.0,0.0104
3180.0,0.0104
3179.0,0.0103
3178.0,0.0103
3177.0,0.0103
3176.0,0.0103
3175.0,0.0103
3174.0,0.0103
3173.0,0.0103
3172.0,0.0102
3171.0,0.0102
3170.0,0.0102
3169.0,0.0103
3168.0,0.0104
3167.0,0.0104
3166.0,0.0103
3165.0,0.0102
3164.0,0.0102
3163.0,0.0102
3162.0,0.0102
3161.0,0.0102
3160.0,0.0101
3159.0,0.0101
3158.0,0.0101
3157.0,0.0101
3156.0,0.0101
3155.0,0.01
3154.0,0.01
3153.0,0.0099
3152.0,0.0097
3151.0,0.0096
3150.0,0.0096
3149.0,0.0096
3148.0,0.0096
3147.0,0.0096
3146.0,0.0096
3145.0,0.0096
3144.0,0.0095
3143.0,0.0096
3142.0,0.0096
3141.0,0.0096
3140.0,0.0096
3139.0,0.0096
3138.0,0.0095
3137.0,0.0095
3136.0,0.0096
3135.0,0.0096
3134.0,0.0096
3133.0,0.0096
3132.0,0.0096
3131.0,0.0096
3130.0,0.0095
3129.0,0.0094
3128.0,0.0093
3127.0,0.0093
3126.0,0.0093
3125.0,0.0092
3124.0,0.0092
3123.0,0.0092
3122.0,0.0092
3121.0,0.0092
3120.0,0.0092
3119.0,0.0093
3118.0,0.0093
3117.0,0.0093
3116.0,0.0093
3115.0,0.0093
3114.0,0.0092
3113.0,0.0092
3112.0,0.0092
3111.0,0.0092
3110.0,0.0091
3109.0,0.0091
3108.0,0.0091
3107.0,0.0091
3106.0,0.0092
3105.0,0.0093
3104.0,0.0093
3103.0,0.0093
3102.0,0.0092
3101.0,0.009
3100.0,0.0088
3099.0,0.0088
3098.0,0.0088
3097.0,0.0089
3096.0,0.009
3095.0,0.0091
3094.0,0.0091
3093.0,0.0091
3092.0,0.0091
3091.0,0.0091
3090.0,0.0092
3089.0,0.0092
3088.0,0.0092
3087.0,0.0092
3086.0,0.0091
3085.0,0.0091
3084.0,0.0091
3083.0,0.0091
3082.0,0.0091
3081.0,0.0092
3080.0,0.0091
3079.0,0.0091
3078.0,0.009
3077.0,0.0089
3076.0,0.0088
3075.0,0.0088
3074.0,0.0089
3073.0,0.0089
3072.0,0.009
3071.0,0.009
3070.0,0.0089
3069.0,0.0088
3068.0,0.0087
3067.0,0.0087
3066.0,0.0087
3065.0,0.0087
3064.0,0.0087
3063.0,0.0086
3062.0,0.0086
3061.0,0.0086
3060.0,0.0086
3059.0,0.0086
3058.0,0.0086
3057.0,0.0086
3056.0,0.0085
3055.0,0.0085
3054.0,0.0085
3053.0,0.0085
3052.0,0.0085
3051.0,0.0085
3050.0,0.0085
3049.0,0.0084
3048.0,0.0084
3047.0,0.0084
3046.0,0.0084
3045.0,0.0084
3044.0,0.0083
3043.0,0.0082
3042.0,0.0082
3041.0,0.0082
3040.0,0.0083
3039.0,0.0084
3038.0,0.0085
3037.0,0.0085
3036.0,0.0084
3035.0,0.0083
3034.0,0.0081
3033.0,0.008
3032.0,0.008
3031.0,0.008
3030.0,0.008
3029.0,0.008
3028.0,0.008
3027.0,0.0079
3026.0,0.0078
3025.0,0.0078
3024.0,0.0077
3023.0,0.0077
3022.0,0.0077
3021.0,0.0077
3020.0,0.0076
3019.0,0.0075
3018.0,0.0074
3017.0,0.0073
3016.0,0.0073
3015.0,0.0073
3014.0,0.0073
3013.0,0.0072
3012.0,0.0072
3011.0,0.0071
3010.0,0.007
3009.0,0.0069
3008.0,0.0069
3007.0,0.0068
3006.0,0.0068
3005.0,0.0067
3004.0,0.0067
3003.0,0.0067
3002.0,0.0066
3001.0,0.0066
3000.0,0.0065
2999.0,0.0065
2998.0,0.0064
2997.0,0.0064
2996.0,0.0063
2995.0,0.0062
2994.0,0.0061
2993.0,0.006
2992.0,0.0059
2991.0,0.0058
2990.0,0.0058
2989.0,0.0058
2988.0,0.0059
2987.0,0.0059
2986.0,0.0058
2985.0,0.0057
2984.0,0.0057
2983.0,0.0057
2982.0,0.0057
2981.0,0.0058
2980.0,0.0059
2979.0,0.0059
2978.0,0.006
2977.0,0.0061
2976.0,0.0062
2975.0,0.0064
2974.0,0.0065
2973.0,0.0066
2972.0,0.0067
2971.0,0.0069
2970.0,0.007
2969.0,0.0072
2968.0,0.0073
2967.0,0.0075
2966.0,0.0078
2965.0,0.0081
2964.0,0.0085
2963.0,0.0088
2962.0,0.0091
2961.0,0.0094
2960.0,0.0097
2959.0,0.01
2958.0,0.0104
2957.0,0.0107
2956.0,0.011
2955.0,0.0113
2954.0,0.0116
2953.0,0.0119
2952.0,0.0123
2951.0,0.0127
2950.0,0.0132
2949.0,0.0138
2948.0,0.0147
2947.0,0.0157
2946.0,0.0169
2945.0,0.0185
2944.0,0.0203
2943.0,0.0224
2942.0,0.0247
2941.0,0.0272
2940.0,0.03
2939.0,0.0331
2938.0,0.0366
2937.0,0.0404
2936.0,0.0446
2935.0,0.0492
2934.0,0.0542
2933.0,0.0597
2932.0,0.0656
2931.0,0.072
2930.0,0.0788
2929.0,0.0862
2928.0,0.0943
2927.0,0.1032
2926.0,0.1131
2925.0,0.1239
2924.0,0.1357
2923.0,0.1483
2922.0,0.1614
2921.0,0.1745
2920.0,0.187
2919.0,0.1981
2918.0,0.2066
2917.0,0.2114
2916.0,0.2118
2915.0,0.208
2914.0,0.2008
2913.0,0.1916
2912.0,0.1816
2911.0,0.1717
2910.0,0.1625
2909.0,0.1542
2908.0,0.147
2907.0,0.1409
2906.0,0.1355
2905.0,0.1308
2904.0,0.1267
2903.0,0.1231
2902.0,0.1199
2901.0,0.1171
2900.0,0.1146
2899.0,0.1122
2898.0,0.1097
2897.0,0.1073
2896.0,0.1049
2895.0,0.1024
2894.0,0.1
2893.0,0.0976
2892.0,0.0951
2891.0,0.0925
2890.0,0.0899
2889.0,0.0873
2888.0,0.0847
2887.0,0.082
2886.0,0.0793
2885.0,0.0765
2884.0,0.0738
2883.0,0.0712
2882.0,0.0685
2881.0,0.0659
2880.0,0.0633
2879.0,0.0607
2878.0,0.0581
2877.0,0.0556
2876.0,0.0533
2875.0,0.0511
2874.0,0.0493
2873.0,0.0478
2872.0,0.0465
2871.0,0.0454
2870.0,0.0446
2869.0,0.0439
2868.0,0.0436
2867.0,0.0436
2866.0,0.044
2865.0,0.0448
2864.0,0.0462
2863.0,0.0481
2862.0,0.0509
2861.0,0.0546
2860.0,0.0594
2859.0,0.0655
2858.0,0.0729
2857.0,0.0821
2856.0,0.0933
2855.0,0.1066
2854.0,0.1222
2853.0,0.1397
2852.0,0.1581
2851.0,0.1755
2850.0,0.1892
2849.0,0.1965
2848.0,0.196
2847.0,0.1882
2846.0,0.1753
2845.0,0.1599
2844.0,0.1441
2843.0,0.1296
2842.0,0.1168
2841.0,0.106
2840.0,0.0971
2839.0,0.0896
2838.0,0.0832
2837.0,0.0779
2836.0,0.0733
2835.0,0.0693
2834.0,0.0659
2833.0,0.0629
2832.0,0.0603
2831.0,0.0581
2830.0,0.0561
2829.0,0.0543
2828.0,0.0528
2827.0,0.0513
2826.0,0.05
2825.0,0.0487
2824.0,0.0475
2823.0,0.0465
2822.0,0.0455
2821.0,0.0446
2820.0,0.0438
2819.0,0.043
2818.0,0.0423
2817.0,0.0416
2816.0,0.041
2815.0,0.0403
2814.0,0.0397
2813.0,0.0392
2812.0,0.0386
2811.0,0.0381
2810.0,0.0376
2809.0,0.0372
2808.0,0.0367
2807.0,0.0363
2806.0,0.0358
2805.0,0.0354
2804.0,0.035
2803.0,0.0347
2802.0,0.0343
2801.0,0.0339
2800.0,0.0336
2799.0,0.0333
2798.0,0.0331
2797.0,0.0329
2796.0,0.0327
2795.0,0.0324
2794.0,0.0321
2793.0,0.0318
2792.0,0.0315
2791.0,0.0312
2790.0,0.0309
2789.0,0.0306
2788.0,0.0303
2787.0,0.03
2786.0,0.0297
2785.0,0.0294
2784.0,0.0291
2783.0,0.0288
2782.0,0.0286
2781.0,0.0284
2780.0,0.0283
2779.0,0.0282
2778.0,0.028
2777.0,0.0279
2776.0,0.0277
2775.0,0.0275
2774.0,0.0274
2773.0,0.0273
2772.0,0.0272
2771.0,0.027
2770.0,0.0268
2769.0,0.0266
2768.0,0.0265
2767.0,0.0263
2766.0,0.0262
2765.0,0.0261
2764.0,0.026
2763.0,0.0259
2762.0,0.0258
2761.0,0.0257
2760.0,0.0256
2759.0,0.0254
2758.0,0.0252
2757.0,0.0251
2756.0,0.025
2755.0,0.025
2754.0,0.0249
2753.0,0.0249
2752.0,0.0248
2751.0,0.0246
2750.0,0.0245
2749.0,0.0244
2748.0,0.0244
2747.0,0.0243
2746.0,0.0243
2745.0,0.0243
2744.0,0.0243
2743.0,0.0243
2742.0,0.0243
2741.0,0.0242
2740.0,0.0241
2739.0,0.024
2738.0,0.024
2737.0,0.024
2736.0,0.0239
2735.0,0.0237
2734.0,0.0236
2733.0,0.0235
2732.0,0.0234
2731.0,0.0234
2730.0,0.0233
2729.0,0.0233
2728.0,0.0234
2727.0,0.0234
2726.0,0.0233
2725.0,0.0232
2724.0,0.0232
2723.0,0.0231
2722.0,0.023
2721.0,0.0228
2720.0,0.0227
2719.0,0.0226
2718.0,0.0225
2717.0,0.0225
2716.0,0.0225
2715.0,0.0224
2714.0,0.0224
2713.0,0.0223
2712.0,0.0223
2711.0,0.0223
2710.0,0.0223
2709.0,0.0223
2708.0,0.0223
2707.0,0.0223
2706.0,0.0222
2705.0,0.022
2704.0,0.0219
2703.0,0.0218
2702.0,0.0217
2701.0,0.0217
2700.0,0.0216
2699.0,0.0216
2698.0,0.0216
2697.0,0.0216
2696.0,0.0216
2695.0,0.0216
2694.0,0.0215
2693.0,0.0214
2692.0,0.0213
2691.0,0.0213
2690.0,0.0212
2689.0,0.0213
2688.0,0.0213
2687.0,0.0214
2686.0,0.0214
2685.0,0.0214
2684.0,0.0214
2683.0,0.0213
2682.0,0.0213
2681.0,0.0213
2680.0,0.0214
2679.0,0.0214
2678.0,0.0214
2677.0,0.0214
2676.0,0.0215
2675.0,0.0216
2674.0,0.0216
2673.0,0.0216
2672.0,0.0216
2671.0,0.0215
2670.0,0.0215
2669.0,0.0215
2668.0,0.0215
2667.0,0.0215
2666.0,0.0215
2665.0,0.0215
2664.0,0.0215
2663.0,0.0214
2662.0,0.0214
2661.0,0.0214
2660.0,0.0214
2659.0,0.0214
2658.0,0.0214
2657.0,0.0213
2656.0,0.0213
2655.0,0.0212
2654.0,0.0212
2653.0,0.0212
2652.0,0.0212
2651.0,0.0212
2650.0,0.0212
2649.0,0.0212
2648.0,0.0212
2647.0,0.0212
2646.0,0.0212
2645.0,0.0211
2644.0,0.0211
2643.0,0.0211
2642.0,0.0212
2641.0,0.0212
2640.0,0.0211
2639.0,0.0211
2638.0,0.0211
2637.0,0.0211
2636.0,0.0211
2635.0,0.0211
2634.0,0.0211
2633.0,0.0211
2632.0,0.0211
2631.0,0.021
2630.0,0.021
2629.0,0.0209
2628.0,0.0208
2627.0,0.0207
2626.0,0.0207
2625.0,0.0206
2624.0,0.0207
2623.0,0.0207
2622.0,0.0206
2621.0,0.0205
2620.0,0.0204
2619.0,0.0203
2618.0,0.0203
2617.0,0.0203
2616.0,0.0203
2615.0,0.0202
2614.0,0.0201
2613.0,0.0201
2612.0,0.02
2611.0,0.0199
2610.0,0.0199
2609.0,0.0199
2608.0,0.0199
2607.0,0.0198
2606.0,0.0198
2605.0,0.0197
2604.0,0.0197
2603.0,0.0198
2602.0,0.0198
2601.0,0.0199
2600.0,0.0199
2599.0,0.0198
2598.0,0.0197
2597.0,0.0195
2596.0,0.0195
2595.0,0.0194
2594.0,0.0194
2593.0,0.0194
2592.0,0.0194
2591.0,0.0194
2590.0,0.0194
2589.0,0.0193
2588.0,0.0193
2587.0,0.0192
2586.0,0.0192
2585.0,0.0193
2584.0,0.0193
2583.0,0.0193
2582.0,0.0192
2581.0,0.019
2580.0,0.0189
2579.0,0.0188
2578.0,0.0188
2577.0,0.0188
2576.0,0.0188
2575.0,0.0188
2574.0,0.0188
2573.0,0.0188
2572.0,0.0188
2571.0,0.0188
2570.0,0.0188
2569.0,0.0187
2568.0,0.0187
2567.0,0.0188
2566.0,0.0188
2565.0,0.0188
2564.0,0.0187
2563.0,0.0186
2562.0,0.0185
2561.0,0.0185
2560.0,0.0185
2559.0,0.0185
2558.0,0.0186
2557.0,0.0185
2556.0,0.0185
2555.0,0.0184
2554.0,0.0183
2553.0,0.0184
2552.0,0.0184
2551.0,0.0184
2550.0,0.0184
2549.0,0.0184
2548.0,0.0184
2547.0,0.0184
2546.0,0.0184
2545.0,0.0183
2544.0,0.0183
2543.0,0.0183
2542.0,0.0183
2541.0,0.0183
2540.0,0.0182
2539.0,0.0182
2538.0,0.0181
2537.0,0.0181
2536.0,0.0181
2535.0,0.0181
2534.0,0.0181
2533.0,0.0181
2532.0,0.0181
2531.0,0.018
2530.0,0.018
2529.0,0.018
2528.0,0.018
2527.0,0.018
2526.0,0.018
2525.0,0.018
2524.0,0.018
2523.0,0.0179
2522.0,0.0179
2521.0,0.0179
2520.0,0.0179
2519.0,0.0179
2518.0,0.0179
2517.0,0.018
2516.0,0.0179
2515.0,0.0179
2514.0,0.0178
2513.0,0.0177
2512.0,0.0177
2511.0,0.0177
2510.0,0.0177
2509.0,0.0178
2508.0,0.0178
2507.0,0.0178
2506.0,0.0177
2505.0,0.0177
2504.0,0.0177
2503.0,0.0177
2502.0,0.0177
2501.0,0.0177
2500.0,0.0177
2499.0,0.0177
2498.0,0.0176
2497.0,0.0176
2496.0,0.0176
2495.0,0.0176
2494.0,0.0176
2493.0,0.0175
2492.0,0.0175
2491.0,0.0174
2490.0,0.0174
2489.0,0.0174
2488.0,0.0174
2487.0,0.0175
2486.0,0.0175
2485.0,0.0175
2484.0,0.0175
2483.0,0.0175
2482.0,0.0176
2481.0,0.0176
2480.0,0.0176
2479.0,0.0175
2478.0,0.0175
2477.0,0.0175
2476.0,0.0175
2475.0,0.0175
2474.0,0.0174
2473.0,0.0174
2472.0,0.0175
2471.0,0.0175
2470.0,0.0176
2469.0,0.0176
2468.0,0.0175
2467.0,0.0175
2466.0,0.0174
2465.0,0.0174
2464.0,0.0174
2463.0,0.0174
2462.0,0.0173
2461.0,0.0172
2460.0,0.0172
2459.0,0.0172
2458.0,0.0172
2457.0,0.0172
2456.0,0.0172
2455.0,0.0172
2454.0,0.0172
2453.0,0.0172
2452.0,0.0171
2451.0,0.0171
2450.0,0.0171
2449.0,0.0172
2448.0,0.0172
2447.0,0.0172
2446.0,0.0172
2445.0,0.0172
2444.0,0.0172
2443.0,0.0172
2442.0,0.0171
2441.0,0.0171
2440.0,0.0171
2439.0,0.0172
2438.0,0.0173
2437.0,0.0174
2436.0,0.0174
2435.0,0.0173
2434.0,0.0173
2433.0,0.0172
2432.0,0.0172
2431.0,0.0172
2430.0,0.0172
2429.0,0.0172
2428.0,0.0172
2427.0,0.0172
2426.0,0.0172
2425.0,0.0172
2424.0,0.0172
2423.0,0.0172
2422.0,0.0172
2421.0,0.0172
2420.0,0.0172
2419.0,0.0172
2418.0,0.0171
2417.0,0.0171
2416.0,0.0172
2415.0,0.0174
2414.0,0.0174
2413.0,0.0174
2412.0,0.0173
2411.0,0.0173
2410.0,0.0172
2409.0,0.0172
2408.0,0.0172
2407.0,0.0173
2406.0,0.0173
2405.0,0.0172
2404.0,0.0172
2403.0,0.0171
2402.0,0.0171
2401.0,0.0172
2400.0,0.0172
2399.0,0.0172
2398.0,0.0172
2397.0,0.0172
2396.0,0.0172
2395.0,0.0172
2394.0,0.0172
2393.0,0.0172
2392.0,0.0172
2391.0,0.0172
2390.0,0.0171
2389.0,0.0172
2388.0,0.0173
2387.0,0.0174
2386.0,0.0175
2385.0,0.0176
2384.0,0.0177
2383.0,0.0178
2382.0,0.0178
2381.0,0.0178
2380.0,0.0177
2379.0,0.0176
2378.0,0.0176
2377.0,0.0175
2376.0,0.0176
2375.0,0.0177
2374.0,0.018
2373.0,0.0184
2372.0,0.0188
2371.0,0.019
2370.0,0.0189
2369.0,0.0185
2368.0,0.018
2367.0,0.0176
2366.0,0.0174
2365.0,0.0175
2364.0,0.018
2363.0,0.0189
2362.0,0.0195
2361.0,0.0196
2360.0,0.0192
2359.0,0.0188
2358.0,0.0184
2357.0,0.0181
2356.0,0.018
2355.0,0.0181
2354.0,0.0183
2353.0,0.0184
2352.0,0.0184
2351.0,0.0183
2350.0,0.0184
2349.0,0.0185
2348.0,0.0184
2347.0,0.0183
2346.0,0.0184
2345.0,0.0188
2344.0,0.019
2343.0,0.019
2342.0,0.0186
2341.0,0.0184
2340.0,0.0184
2339.0,0.0186
2338.0,0.0185
2337.0,0.0182
2336.0,0.0178
2335.0,0.0177
2334.0,0.0176
2333.0,0.0176
2332.0,0.0177
2331.0,0.0181
2330.0,0.0187
2329.0,0.0193
2328.0,0.0195
2327.0,0.0194
2326.0,0.0191
2325.0,0.0187
2324.0,0.0184
2323.0,0.0181
2322.0,0.0179
2321.0,0.0179
2320.0,0.0181
2319.0,0.0182
2318.0,0.0183
2317.0,0.0183
2316.0,0.0183
2315.0,0.0183
2314.0,0.0184
2313.0,0.0185
2312.0,0.0185
2311.0,0.0185
2310.0,0.0185
2309.0,0.0184
2308.0,0.0182
2307.0,0.0181
2306.0,0.0181
2305.0,0.0182
2304.0,0.0182
2303.0,0.0183
2302.0,0.0183
2301.0,0.0183
2300.0,0.0182
2299.0,0.0182
2298.0,0.0181
2297.0,0.0181
2296.0,0.018
2295.0,0.018
2294.0,0.018
2293.0,0.018
2292.0,0.0179
2291.0,0.0179
2290.0,0.0178
2289.0,0.0178
2288.0,0.0177
2287.0,0.0178
2286.0,0.0178
2285.0,0.0179
2284.0,0.0179
2283.0,0.0179
2282.0,0.0178
2281.0,0.0178
2280.0,0.0177
2279.0,0.0177
2278.0,0.0177
2277.0,0.0177
2276.0,0.0177
2275.0,0.0177
2274.0,0.0176
2273.0,0.0176
2272.0,0.0176
2271.0,0.0176
2270.0,0.0176
2269.0,0.0176
2268.0,0.0176
2267.0,0.0176
2266.0,0.0176
2265.0,0.0175
2264.0,0.0175
2263.0,0.0176
2262.0,0.0176
2261.0,0.0176
2260.0,0.0175
2259.0,0.0175
2258.0,0.0175
2257.0,0.0175
2256.0,0.0175
2255.0,0.0175
2254.0,0.0175
2253.0,0.0175
2252.0,0.0175
2251.0,0.0174
2250.0,0.0175
2249.0,0.0175
2248.0,0.0175
2247.0,0.0175
2246.0,0.0175
2245.0,0.0175
2244.0,0.0175
2243.0,0.0175
2242.0,0.0175
2241.0,0.0175
2240.0,0.0175
2239.0,0.0174
2238.0,0.0174
2237.0,0.0174
2236.0,0.0174
2235.0,0.0174
2234.0,0.0174
2233.0,0.0175
2232.0,0.0175
2231.0,0.0174
2230.0,0.0175
2229.0,0.0175
2228.0,0.0175
2227.0,0.0175
2226.0,0.0175
2225.0,0.0175
2224.0,0.0175
2223.0,0.0175
2222.0,0.0174
2221.0,0.0174
2220.0,0.0174
2219.0,0.0174
2218.0,0.0175
2217.0,0.0175
2216.0,0.0175
2215.0,0.0175
2214.0,0.0176
2213.0,0.0176
2212.0,0.0176
2211.0,0.0176
2210.0,0.0175
2209.0,0.0175
2208.0,0.0175
2207.0,0.0175
2206.0,0.0175
2205.0,0.0175
2204.0,0.0175
2203.0,0.0174
2202.0,0.0174
2201.0,0.0174
2200.0,0.0174
2199.0,0.0174
2198.0,0.0174
2197.0,0.0174
2196.0,0.0174
2195.0,0.0174
2194.0,0.0175
2193.0,0.0176
2192.0,0.0177
2191.0,0.0177
2190.0,0.0177
2189.0,0.0177
2188.0,0.0178
2187.0,0.0178
2186.0,0.0177
2185.0,0.0176
2184.0,0.0176
2183.0,0.0175
2182.0,0.0175
2181.0,0.0176
2180.0,0.0176
2179.0,0.0176
2178.0,0.0176
2177.0,0.0177
2176.0,0.0177
2175.0,0.0177
2174.0,0.0177
2173.0,0.0176
2172.0,0.0176
2171.0,0.0175
2170.0,0.0175
2169.0,0.0175
2168.0,0.0175
2167.0,0.0175
2166.0,0.0176
2165.0,0.0176
2164.0,0.0176
2163.0,0.0176
2162.0,0.0175
2161.0,0.0175
2160.0,0.0175
2159.0,0.0175
2158.0,0.0176
2157.0,0.0176
2156.0,0.0176
2155.0,0.0176
2154.0,0.0176
2153.0,0.0176
2152.0,0.0176
2151.0,0.0176
2150.0,0.0176
2149.0,0.0176
2148.0,0.0176
2147.0,0.0176
2146.0,0.0177
2145.0,0.0177
2144.0,0.0177
2143.0,0.0177
2142.0,0.0177
2141.0,0.0177
2140.0,0.0177
2139.0,0.0177
2138.0,0.0178
2137.0,0.0178
2136.0,0.0178
2135.0,0.0178
2134.0,0.0177
2133.0,0.0177
2132.0,0.0177
2131.0,0.0177
2130.0,0.0177
2129.0,0.0177
2128.0,0.0177
2127.0,0.0177
2126.0,0.0177
2125.0,0.0177
2124.0,0.0177
2123.0,0.0177
2122.0,0.0178
2121.0,0.0178
2120.0,0.0177
2119.0,0.0176
2118.0,0.0176
2117.0,0.0176
2116.0,0.0176
2115.0,0.0177
2114.0,0.0177
2113.0,0.0177
2112.0,0.0178
2111.0,0.0178
2110.0,0.0178
2109.0,0.0178
2108.0,0.0178
2107.0,0.0178
2106.0,0.0178
2105.0,0.0178
2104.0,0.0177
2103.0,0.0177
2102.0,0.0177
2101.0,0.0177
2100.0,0.0178
2099.0,0.0178
2098.0,0.0178
2097.0,0.0178
2096.0,0.0178
2095.0,0.0178
2094.0,0.0178
2093.0,0.0178
2092.0,0.0178
2091.0,0.0178
2090.0,0.0179
2089.0,0.0179
2088.0,0.0179
2087.0,0.0179
2086.0,0.0179
2085.0,0.0178
2084.0,0.0178
2083.0,0.0178
2082.0,0.0178
2081.0,0.0178
2080.0,0.0178
2079.0,0.0179
2078.0,0.0179
2077.0,0.0179
2076.0,0.0179
2075.0,0.018
2074.0,0.0181
2073.0,0.0181
2072.0,0.0181
2071.0,0.0181
2070.0,0.018
2069.0,0.018
2068.0,0.0179
2067.0,0.0179
2066.0,0.018
2065.0,0.0181
2064.0,0.0181
2063.0,0.0181
2062.0,0.0181
2061.0,0.0181
2060.0,0.0181
2059.0,0.0181
2058.0,0.0181
2057.0,0.0181
2056.0,0.018
2055.0,0.018
2054.0,0.018
2053.0,0.018
2052.0,0.0181
2051.0,0.0181
2050.0,0.018
2049.0,0.0181
2048.0,0.0181
2047.0,0.0182
2046.0,0.0183
2045.0,0.0183
2044.0,0.0183
2043.0,0.0182
2042.0,0.0182
2041.0,0.0183
2040.0,0.0183
2039.0,0.0182
2038.0,0.0182
2037.0,0.0182
2036.0,0.0182
2035.0,0.0182
2034.0,0.0183
2033.0,0.0183
2032.0,0.0184
2031.0,0.0184
2030.0,0.0184
2029.0,0.0184
2028.0,0.0184
2027.0,0.0185
2026.0,0.0186
2025.0,0.0187
2024.0,0.0188
2023.0,0.0188
2022.0,0.0189
2021.0,0.0189
2020.0,0.0189
2019.0,0.0189
2018.0,0.0189
2017.0,0.0188
2016.0,0.0188
2015.0,0.0187
2014.0,0.0187
2013.0,0.0186
2012.0,0.0186
2011.0,0.0186
2010.0,0.0185
2009.0,0.0185
2008.0,0.0186
2007.0,0.0186
2006.0,0.0186
2005.0,0.0186
2004.0,0.0185
2003.0,0.0185
2002.0,0.0184
2001.0,0.0184
2000.0,0.0184
1999.0,0.0184
1998.0,0.0184
1997.0,0.0183
1996.0,0.0183
1995.0,0.0183
1994.0,0.0184
1993.0,0.0184
1992.0,0.0184
1991.0,0.0184
1990.0,0.0184
1989.0,0.0184
1988.0,0.0184
1987.0,0.0185
1986.0,0.0185
1985.0,0.0185
1984.0,0.0185
1983.0,0.0185
1982.0,0.0184
1981.0,0.0184
1980.0,0.0184
1979.0,0.0185
1978.0,0.0186
1977.0,0.0186
1976.0,0.0186
1975.0,0.0185
1974.0,0.0185
1973.0,0.0185
1972.0,0.0185
1971.0,0.0185
1970.0,0.0185
1969.0,0.0185
1968.0,0.0185
1967.0,0.0186
1966.0,0.0186
1965.0,0.0186
1964.0,0.0186
1963.0,0.0186
1962.0,0.0185
1961.0,0.0185
1960.0,0.0186
1959.0,0.0187
1958.0,0.0187
1957.0,0.0187
1956.0,0.0188
1955.0,0.0188
1954.0,0.0188
1953.0,0.0188
1952.0,0.0188
1951.0,0.0188
1950.0,0.0188
1949.0,0.0189
1948.0,0.0189
1947.0,0.0188
1946.0,0.0188
1945.0,0.0188
1944.0,0.0188
1943.0,0.0188
1942.0,0.0188
1941.0,0.0188
1940.0,0.0188
1939.0,0.0189
1938.0,0.0189
1937.0,0.0188
1936.0,0.0188
1935.0,0.0188
1934.0,0.0189
1933.0,0.0189
1932.0,0.0189
1931.0,0.0189
1930.0,0.019
1929.0,0.019
1928.0,0.019
1927.0,0.019
1926.0,0.019
1925.0,0.019
1924.0,0.0191
1923.0,0.019
1922.0,0.019
1921.0,0.019
1920.0,0.019
1919.0,0.019
1918.0,0.019
1917.0,0.0191
1916.0,0.0192
1915.0,0.0192
1914.0,0.0192
1913.0,0.0191
1912.0,0.019
1911.0,0.0191
1910.0,0.0191
1909.0,0.0192
1908.0,0.0193
1907.0,0.0193
1906.0,0.0193
1905.0,0.0193
1904.0,0.0194
1903.0,0.0195
1902.0,0.0195
1901.0,0.0196
1900.0,0.0196
1899.0,0.0196
1898.0,0.0195
1897.0,0.0195
1896.0,0.0195
1895.0,0.0194
1894.0,0.0195
1893.0,0.0195
1892.0,0.0196
1891.0,0.0195
1890.0,0.0195
1889.0,0.0195
1888.0,0.0195
1887.0,0.0195
1886.0,0.0195
1885.0,0.0195
1884.0,0.0195
1883.0,0.0195
1882.0,0.0194
1881.0,0.0194
1880.0,0.0194
1879.0,0.0194
1878.0,0.0194
1877.0,0.0195
1876.0,0.0195
1875.0,0.0194
1874.0,0.0193
1873.0,0.0192
1872.0,0.0192
1871.0,0.0192
1870.0,0.0192
1869.0,0.0193
1868.0,0.0194
1867.0,0.0194
1866.0,0.0194
1865.0,0.0195
1864.0,0.0195
1863.0,0.0196
1862.0,0.0196
1861.0,0.0196
1860.0,0.0196
1859.0,0.0196
1858.0,0.0196
1857.0,0.0195
1856.0,0.0194
1855.0,0.0194
1854.0,0.0194
1853.0,0.0194
1852.0,0.0194
1851.0,0.0194
1850.0,0.0195
1849.0,0.0195
1848.0,0.0195
1847.0,0.0195
1846.0,0.0195
1845.0,0.0196
1844.0,0.0196
1843.0,0.0196
1842.0,0.0197
1841.0,0.0197
1840.0,0.0196
1839.0,0.0195
1838.0,0.0195
1837.0,0.0195
1836.0,0.0195
1835.0,0.0195
1834.0,0.0196
1833.0,0.0196
1832.0,0.0196
1831.0,0.0195
1830.0,0.0194
1829.0,0.0194
1828.0,0.0195
1827.0,0.0196
1826.0,0.0196
1825.0,0.0196
1824.0,0.0197
1823.0,0.0197
1822.0,0.0198
1821.0,0.0198
1820.0,0.0198
1819.0,0.0198
1818.0,0.0198
1817.0,0.0198
1816.0,0.0199
1815.0,0.0199
1814.0,0.0198
1813.0,0.0198
1812.0,0.0198
1811.0,0.0199
1810.0,0.0199
1809.0,0.02
1808.0,0.02
1807.0,0.0199
1806.0,0.0199
1805.0,0.0199
1804.0,0.0199
1803.0,0.0199
1802.0,0.0199
1801.0,0.0199
1800.0,0.0198
1799.0,0.0198
1798.0,0.0199
1797.0,0.02
1796.0,0.02
1795.0,0.0201
1794.0,0.02
1793.0,0.0201
1792.0,0.0201
1791.0,0.0201
1790.0,0.0201
1789.0,0.0202
1788.0,0.0202
1787.0,0.0202
1786.0,0.0201
1785.0,0.0201
1784.0,0.02
1783.0,0.02
1782.0,0.02
1781.0,0.0201
1780.0,0.0202
1779.0,0.0202
1778.0,0.0202
1777.0,0.0202
1776.0,0.0202
1775.0,0.0201
1774.0,0.02
1773.0,0.0199
1772.0,0.0198
1771.0,0.0199
1770.0,0.0201
1769.0,0.0203
1768.0,0.0204
1767.0,0.0204
1766.0,0.0204
1765.0,0.0205
1764.0,0.0205
1763.0,0.0205
1762.0,0.0204
1761.0,0.0204
1760.0,0.0204
1759.0,0.0205
1758.0,0.0205
1757.0,0.0205
1756.0,0.0205
1755.0,0.0206
1754.0,0.0207
1753.0,0.0208
1752.0,0.021
1751.0,0.0211
1750.0,0.0212
1749.0,0.0212
1748.0,0.0212
1747.0,0.0212
1746.0,0.0212
1745.0,0.0212
1744.0,0.0214
1743.0,0.0216
1742.0,0.0218
1741.0,0.022
1740.0,0.0222
1739.0,0.0222
1738.0,0.0222
1737.0,0.0222
1736.0,0.0221
1735.0,0.0218
1734.0,0.0215
1733.0,0.0212
1732.0,0.0211
1731.0,0.0211
1730.0,0.0212
1729.0,0.0212
1728.0,0.0212
1727.0,0.0212
1726.0,0.0212
1725.0,0.0212
1724.0,0.0212
1723.0,0.0213
1722.0,0.0213
1721.0,0.0213
1720.0,0.0213
1719.0,0.0212
1718.0,0.0213
1717.0,0.0214
1716.0,0.0215
1715.0,0.0215
1714.0,0.0215
1713.0,0.0215
1712.0,0.0215
1711.0,0.0215
1710.0,0.0215
1709.0,0.0215
1708.0,0.0215
1707.0,0.0214
1706.0,0.0214
1705.0,0.0214
1704.0,0.0216
1703.0,0.0218
1702.0,0.022
1701.0,0.022
1700.0,0.0219
1699.0,0.0218
1698.0,0.0219
1697.0,0.022
1696.0,0.022
1695.0,0.0218
1694.0,0.0218
1693.0,0.0219
1692.0,0.0219
1691.0,0.0218
1690.0,0.0216
1689.0,0.0216
1688.0,0.0216
1687.0,0.0217
1686.0,0.0217
1685.0,0.0219
1684.0,0.022
1683.0,0.0219
1682.0,0.0218
1681.0,0.0219
1680.0,0.0219
1679.0,0.0219
1678.0,0.022
1677.0,0.022
1676.0,0.022
1675.0,0.022
1674.0,0.022
1673.0,0.022
1672.0,0.022
1671.0,0.022
1670.0,0.022
1669.0,0.0221
1668.0,0.0221
1667.0,0.0222
1666.0,0.0223
1665.0,0.0223
1664.0,0.0223
1663.0,0.0223
1662.0,0.0224
1661.0,0.0225
1660.0,0.0226
1659.0,0.0226
1658.0,0.0226
1657.0,0.0226
1656.0,0.0226
1655.0,0.0226
1654.0,0.0227
1653.0,0.0229
1652.0,0.0226
1651.0,0.0226
1650.0,0.0226
1649.0,0.0226
1648.0,0.0227
1647.0,0.0229
1646.0,0.023
1645.0,0.0229
1644.0,0.0229
1643.0,0.0229
1642.0,0.0228
1641.0,0.0228
1640.0,0.0227
1639.0,0.0228
1638.0,0.0228
1637.0,0.0229
1636.0,0.0232
1635.0,0.0231
1634.0,0.0228
1633.0,0.0228
1632.0,0.0227
1631.0,0.0227
1630.0,0.0227
1629.0,0.0227
1628.0,0.0228
1627.0,0.0229
1626.0,0.0228
1625.0,0.0228
1624.0,0.0227
1623.0,0.0227
1622.0,0.0227
1621.0,0.0227
1620.0,0.0227
1619.0,0.0226
1618.0,0.0226
1617.0,0.0226
1616.0,0.0226
1615.0,0.0226
1614.0,0.0226
1613.0,0.0227
1612.0,0.0228
1611.0,0.0228
1610.0,0.0228
1609.0,0.0229
1608.0,0.0229
1607.0,0.0229
1606.0,0.0229
1605.0,0.0229
1604.0,0.0228
1603.0,0.0229
1602.0,0.0228
1601.0,0.0228
1600.0,0.0228
1599.0,0.0227
1598.0,0.0227
1597.0,0.0227
1596.0,0.0227
1595.0,0.0227
1594.0,0.0228
1593.0,0.0228
1592.0,0.0228
1591.0,0.0229
1590.0,0.0229
1589.0,0.0229
1588.0,0.023
1587.0,0.023
1586.0,0.0231
1585.0,0.0231
1584.0,0.0232
1583.0,0.0232
1582.0,0.0232
1581.0,0.0231
1580.0,0.023
1579.0,0.023
1578.0,0.023
1577.0,0.023
1576.0,0.0231
1575.0,0.0232
1574.0,0.0232
1573.0,0.0231
1572.0,0.023
1571.0,0.0229
1570.0,0.0229
1569.0,0.023
1568.0,0.023
1567.0,0.0231
1566.0,0.023
1565.0,0.023
1564.0,0.023
1563.0,0.0231
1562.0,0.0232
1561.0,0.0231
1560.0,0.023
1559.0,0.0232
1558.0,0.023
1557.0,0.0229
1556.0,0.0231
1555.0,0.0231
1554.0,0.0231
1553.0,0.0231
1552.0,0.0232
1551.0,0.0231
1550.0,0.023
1549.0,0.023
1548.0,0.023
1547.0,0.0231
1546.0,0.0231
1545.0,0.0233
1544.0,0.0235
1543.0,0.0236
1542.0,0.0235
1541.0,0.0236
1540.0,0.0236
1539.0,0.0233
1538.0,0.0231
1537.0,0.0231
1536.0,0.0232
1535.0,0.0232
1534.0,0.0231
1533.0,0.0231
1532.0,0.023
1531.0,0.0229
1530.0,0.0229
1529.0,0.0229
1528.0,0.023
1527.0,0.0231
1526.0,0.023
1525.0,0.0229
1524.0,0.0229
1523.0,0.023
1522.0,0.023
1521.0,0.0231
1520.0,0.023
1519.0,0.0228
1518.0,0.0226
1517.0,0.0227
1516.0,0.0228
1515.0,0.0227
1514.0,0.0227
1513.0,0.0227
1512.0,0.0228
1511.0,0.0228
1510.0,0.0228
1509.0,0.0227
1508.0,0.0229
1507.0,0.0231
1506.0,0.0229
1505.0,0.0228
1504.0,0.0229
1503.0,0.0228
1502.0,0.0228
1501.0,0.0227
1500.0,0.0227
1499.0,0.0227
1498.0,0.0226
1497.0,0.0226
1496.0,0.0226
1495.0,0.0224
1494.0,0.0222
1493.0,0.0222
1492.0,0.0222
1491.0,0.0222
1490.0,0.0221
1489.0,0.0221
1488.0,0.0221
1487.0,0.0219
1486.0,0.0217
1485.0,0.0217
1484.0,0.0219
1483.0,0.022
1482.0,0.0222
1481.0,0.0227
1480.0,0.0236
1479.0,0.025
1478.0,0.028
1477.0,0.0342
1476.0,0.0441
1475.0,0.0569
1474.0,0.0712
1473.0,0.0829
1472.0,0.086
1471.0,0.0825
1470.0,0.0783
1469.0,0.0751
1468.0,0.0731
1467.0,0.0726
1466.0,0.0758
1465.0,0.0835
1464.0,0.0917
1463.0,0.0953
1462.0,0.0931
1461.0,0.0866
1460.0,0.0774
1459.0,0.0675
1458.0,0.0586
1457.0,0.0526
1456.0,0.0494
1455.0,0.0474
1454.0,0.0458
1453.0,0.0442
1452.0,0.0426
1451.0,0.0413
1450.0,0.0403
1449.0,0.0393
1448.0,0.0386
1447.0,0.0381
1446.0,0.0378
1445.0,0.0374
1444.0,0.0371
1443.0,0.0368
1442.0,0.0366
1441.0,0.0363
1440.0,0.0359
1439.0,0.0357
1438.0,0.0354
1437.0,0.0351
1436.0,0.0348
1435.0,0.0345
1434.0,0.0342
1433.0,0.0338
1432.0,0.0333
1431.0,0.0328
1430.0,0.0324
1429.0,0.0319
1428.0,0.0315
1427.0,0.0312
1426.0,0.0309
1425.0,0.0305
1424.0,0.0301
1423.0,0.0298
1422.0,0.0297
1421.0,0.0295
1420.0,0.0293
1419.0,0.0293
1418.0,0.0292
1417.0,0.0291
1416.0,0.0289
1415.0,0.0288
1414.0,0.0286
1413.0,0.0285
1412.0,0.0283
1411.0,0.0282
1410.0,0.0282
1409.0,0.0282
1408.0,0.0281
1407.0,0.028
1406.0,0.0278
1405.0,0.0277
1404.0,0.0276
1403.0,0.0276
1402.0,0.0276
1401.0,0.0275
1400.0,0.0273
1399.0,0.0273
1398.0,0.0273
1397.0,0.0273
1396.0,0.0273
1395.0,0.0273
1394.0,0.0274
1393.0,0.0274
1392.0,0.0274
1391.0,0.0274
1390.0,0.0273
1389.0,0.0273
1388.0,0.0273
1387.0,0.0274
1386.0,0.0275
1385.0,0.0276
1384.0,0.0276
1383.0,0.0277
1382.0,0.0279
1381.0,0.0282
1380.0,0.0285
1379.0,0.0288
1378.0,0.0289
1377.0,0.029
1376.0,0.0289
1375.0,0.029
1374.0,0.0292
1373.0,0.0294
1372.0,0.0296
1371.0,0.0298
1370.0,0.03
1369.0,0.0301
1368.0,0.0302
1367.0,0.0301
1366.0,0.03
1365.0,0.0298
1364.0,0.0297
1363.0,0.0296
1362.0,0.0296
1361.0,0.0295
1360.0,0.0294
1359.0,0.0293
1358.0,0.0292
1357.0,0.0292
1356.0,0.0291
1355.0,0.0291
1354.0,0.0292
1353.0,0.0293
1352.0,0.0294
1351.0,0.0294
1350.0,0.0294
1349.0,0.0293
1348.0,0.0292
1347.0,0.0291
1346.0,0.029
1345.0,0.0289
1344.0,0.0288
1343.0,0.0287
1342.0,0.0286
1341.0,0.0285
1340.0,0.0284
1339.0,0.0284
1338.0,0.0284
1337.0,0.0284
1336.0,0.0283
1335.0,0.0282
1334.0,0.0281
1333.0,0.028
1332.0,0.0279
1331.0,0.0279
1330.0,0.0279
1329.0,0.028
1328.0,0.028
1327.0,0.0281
1326.0,0.0281
1325.0,0.0281
1324.0,0.0281
1323.0,0.0281
1322.0,0.0282
1321.0,0.0283
1320.0,0.0283
1319.0,0.0284
1318.0,0.0285
1317.0,0.0285
1316.0,0.0286
1315.0,0.0287
1314.0,0.0287
1313.0,0.0288
1312.0,0.0289
1311.0,0.029
1310.0,0.0291
1309.0,0.0292
1308.0,0.0293
1307.0,0.0294
1306.0,0.0294
1305.0,0.0294
1304.0,0.0294
1303.0,0.0293
1302.0,0.0293
1301.0,0.0293
1300.0,0.0293
1299.0,0.0293
1298.0,0.0293
1297.0,0.0293
1296.0,0.0293
1295.0,0.0292
1294.0,0.0292
1293.0,0.0292
1292.0,0.0291
1291.0,0.0291
1290.0,0.0291
1289.0,0.029
1288.0,0.029
1287.0,0.0289
1286.0,0.0288
1285.0,0.0288
1284.0,0.0288
1283.0,0.0288
1282.0,0.0289
1281.0,0.0288
1280.0,0.0288
1279.0,0.0288
1278.0,0.0288
1277.0,0.0287
1276.0,0.0287
1275.0,0.0287
1274.0,0.0288
1273.0,0.0288
1272.0,0.0287
1271.0,0.0287
1270.0,0.0287
1269.0,0.0287
1268.0,0.0287
1267.0,0.0287
1266.0,0.0287
1265.0,0.0287
1264.0,0.0287
1263.0,0.0287
1262.0,0.0287
1261.0,0.0287
1260.0,0.0287
1259.0,0.0287
1258.0,0.0288
1257.0,0.0288
1256.0,0.0287
1255.0,0.0286
1254.0,0.0286
1253.0,0.0286
1252.0,0.0285
1251.0,0.0285
1250.0,0.0284
1249.0,0.0284
1248.0,0.0284
1247.0,0.0285
1246.0,0.0286
1245.0,0.0286
1244.0,0.0287
1243.0,0.0287
1242.0,0.0288
1241.0,0.0288
1240.0,0.0288
1239.0,0.0288
1238.0,0.0287
1237.0,0.0287
1236.0,0.0286
1235.0,0.0286
1234.0,0.0285
1233.0,0.0285
1232.0,0.0285
1231.0,0.0285
1230.0,0.0285
1229.0,0.0286
1228.0,0.0286
1227.0,0.0286
1226.0,0.0287
1225.0,0.0287
1224.0,0.0286
1223.0,0.0286
1222.0,0.0285
1221.0,0.0285
1220.0,0.0285
1219.0,0.0285
1218.0,0.0285
1217.0,0.0285
1216.0,0.0285
1215.0,0.0285
1214.0,0.0285
1213.0,0.0285
1212.0,0.0286
1211.0,0.0286
1210.0,0.0287
1209.0,0.0287
1208.0,0.0287
1207.0,0.0288
1206.0,0.0289
1205.0,0.029
1204.0,0.029
1203.0,0.029
1202.0,0.0289
1201.0,0.0288
1200.0,0.0287
1199.0,0.0286
1198.0,0.0286
1197.0,0.0286
1196.0,0.0286
1195.0,0.0286
1194.0,0.0287
1193.0,0.0287
1192.0,0.0288
1191.0,0.0288
1190.0,0.0289
1189.0,0.0289
1188.0,0.029
1187.0,0.0291
1186.0,0.0291
1185.0,0.029
1184.0,0.0289
1183.0,0.0288
1182.0,0.0288
1181.0,0.0288
1180.0,0.0289
1179.0,0.029
1178.0,0.0292
1177.0,0.0293
1176.0,0.0293
1175.0,0.0293
1174.0,0.0293
1173.0,0.0294
1172.0,0.0295
1171.0,0.0296
1170.0,0.0297
1169.0,0.0297
1168.0,0.0296
1167.0,0.0295
1166.0,0.0294
1165.0,0.0293
1164.0,0.0292
1163.0,0.0292
1162.0,0.0292
1161.0,0.0292
1160.0,0.0292
1159.0,0.0291
1158.0,0.0291
1157.0,0.0291
1156.0,0.0292
1155.0,0.0292
1154.0,0.0293
1153.0,0.0292
1152.0,0.0292
1151.0,0.0291
1150.0,0.0291
1149.0,0.0291
1148.0,0.0291
1147.0,0.0291
1146.0,0.029
1145.0,0.029
1144.0,0.0288
1143.0,0.0288
1142.0,0.0288
1141.0,0.0289
1140.0,0.029
1139.0,0.029
1138.0,0.0291
1137.0,0.0291
1136.0,0.029
1135.0,0.029
1134.0,0.029
1133.0,0.0291
1132.0,0.0291
1131.0,0.0291
1130.0,0.0291
1129.0,0.0291
1128.0,0.0292
1127.0,0.0292
1126.0,0.0293
1125.0,0.0293
1124.0,0.0293
1123.0,0.0293
1122.0,0.0292
1121.0,0.0292
1120.0,0.0291
1119.0,0.0292
1118.0,0.0292
1117.0,0.0292
1116.0,0.0292
1115.0,0.0292
1114.0,0.0292
1113.0,0.0292
1112.0,0.029
1111.0,0.029
1110.0,0.029
1109.0,0.029
1108.0,0.0291
1107.0,0.0292
1106.0,0.0292
1105.0,0.0293
1104.0,0.0293
1103.0,0.0293
1102.0,0.0292
1101.0,0.0291
1100.0,0.0291
1099.0,0.0291
1098.0,0.0291
1097.0,0.029
1096.0,0.029
1095.0,0.029
1094.0,0.029
1093.0,0.029
1092.0,0.0291
1091.0,0.0292
1090.0,0.0294
1089.0,0.0296
1088.0,0.0297
1087.0,0.0296
1086.0,0.0296
1085.0,0.0295
1084.0,0.0294
1083.0,0.0294
1082.0,0.0293
1081.0,0.0293
1080.0,0.0293
1079.0,0.0293
1078.0,0.0293
1077.0,0.0293
1076.0,0.0293
1075.0,0.0293
1074.0,0.0293
1073.0,0.0293
1072.0,0.0293
1071.0,0.0294
1070.0,0.0294
1069.0,0.0294
1068.0,0.0293
1067.0,0.0292
1066.0,0.0292
1065.0,0.0293
1064.0,0.0293
1063.0,0.0292
1062.0,0.0292
1061.0,0.0291
1060.0,0.029
1059.0,0.029
1058.0,0.029
1057.0,0.0291
1056.0,0.0293
1055.0,0.0294
1054.0,0.0295
1053.0,0.0295
1052.0,0.0296
1051.0,0.0297
1050.0,0.0297
1049.0,0.0298
1048.0,0.0298
1047.0,0.0298
1046.0,0.0298
1045.0,0.0297
1044.0,0.0296
1043.0,0.0296
1042.0,0.0295
1041.0,0.0295
1040.0,0.0295
1039.0,0.0295
1038.0,0.0296
1037.0,0.0297
1036.0,0.0296
1035.0,0.0296
1034.0,0.0296
1033.0,0.0296
1032.0,0.0296
1031.0,0.0297
1030.0,0.0298
1029.0,0.0298
1028.0,0.0297
1027.0,0.0297
1026.0,0.0296
1025.0,0.0297
1024.0,0.0298
1023.0,0.0299
1022.0,0.03
1021.0,0.0301
1020.0,0.0301
1019.0,0.0302
1018.0,0.0302
1017.0,0.0301
1016.0,0.0301
1015.0,0.0301
1014.0,0.0301
1013.0,0.0302
1012.0,0.0302
1011.0,0.0303
1010.0,0.0304
1009.0,0.0304
1008.0,0.0305
1007.0,0.0305
1006.0,0.0305
1005.0,0.0304
1004.0,0.0303
1003.0,0.0304
1002.0,0.0305
1001.0,0.0306
1000.0,0.0306
999.0,0.0307
998.0,0.0307
997.0,0.0307
996.0,0.0307
995.0,0.0307
994.0,0.0308
993.0,0.0309
992.0,0.0311
991.0,0.0312
990.0,0.0313
989.0,0.0312
988.0,0.031
987.0,0.0309
986.0,0.0308
985.0,0.0309
984.0,0.031
983.0,0.0312
982.0,0.0313
981.0,0.0314
980.0,0.0314
979.0,0.0313
978.0,0.0313
977.0,0.0313
976.0,0.0313
975.0,0.0314
974.0,0.0316
973.0,0.0318
972.0,0.0319
971.0,0.0321
970.0,0.0321
969.0,0.0321
968.0,0.0321
967.0,0.032
966.0,0.032
965.0,0.0321
964.0,0.0321
963.0,0.0321
962.0,0.0321
961.0,0.032
960.0,0.032
959.0,0.0321
958.0,0.0323
957.0,0.0324
956.0,0.0324
955.0,0.0324
954.0,0.0324
953.0,0.0323
952.0,0.0323
951.0,0.0323
950.0,0.0324
949.0,0.0326
948.0,0.0328
947.0,0.0329
946.0,0.0329
945.0,0.0328
944.0,0.0327
943.0,0.0326
942.0,0.0327
941.0,0.0328
940.0,0.033
939.0,0.033
938.0,0.033
937.0,0.0329
936.0,0.0329
935.0,0.033
934.0,0.0331
933.0,0.0332
932.0,0.0333
931.0,0.0334
930.0,0.0335
929.0,0.0335
928.0,0.0335
927.0,0.0335
926.0,0.0335
925.0,0.0335
924.0,0.0335
923.0,0.0336
922.0,0.0337
921.0,0.0337
920.0,0.0336
919.0,0.0335
918.0,0.0335
917.0,0.0335
916.0,0.0337
915.0,0.034
914.0,0.0343
913.0,0.0344
912.0,0.0344
911.0,0.0343
910.0,0.0342
909.0,0.0343
908.0,0.0345
907.0,0.0347
906.0,0.0348
905.0,0.0349
904.0,0.0349
903.0,0.0349
902.0,0.0349
901.0,0.035
900.0,0.035
899.0,0.0351
898.0,0.0352
897.0,0.0353
896.0,0.0355
895.0,0.0356
894.0,0.0356
893.0,0.0357
892.0,0.0358
891.0,0.0359
890.0,0.036
889.0,0.0361
888.0,0.0361
887.0,0.036
886.0,0.0358
885.0,0.0357
884.0,0.0356
883.0,0.0357
882.0,0.0359
881.0,0.0361
880.0,0.0362
879.0,0.0361
878.0,0.0361
877.0,0.0362
876.0,0.0363
875.0,0.0364
874.0,0.0364
873.0,0.0364
872.0,0.0364
871.0,0.0365
870.0,0.0365
869.0,0.0366
868.0,0.0367
867.0,0.0367
866.0,0.0367
865.0,0.0366
864.0,0.0365
863.0,0.0366
862.0,0.0366
861.0,0.0367
860.0,0.0367
859.0,0.0367
858.0,0.0366
857.0,0.0365
856.0,0.0364
855.0,0.0364
854.0,0.0364
853.0,0.0364
852.0,0.0365
851.0,0.0367
850.0,0.0368
849.0,0.0369
848.0,0.037
847.0,0.0371
846.0,0.0372
845.0,0.0372
844.0,0.0372
843.0,0.0371
842.0,0.037
841.0,0.0371
840.0,0.0371
839.0,0.0372
838.0,0.0373
837.0,0.0372
836.0,0.0372
835.0,0.0373
834.0,0.0374
833.0,0.0376
832.0,0.0378
831.0,0.0379
830.0,0.038
829.0,0.038
828.0,0.038
827.0,0.0379
826.0,0.0379
825.0,0.0378
824.0,0.0377
823.0,0.0378
822.0,0.0378
821.0,0.038
820.0,0.0382
819.0,0.0384
818.0,0.0385
817.0,0.0385
816.0,0.0384
815.0,0.0383
814.0,0.0382
813.0,0.0381
812.0,0.038
811.0,0.0379
810.0,0.0379
809.0,0.038
808.0,0.0382
807.0,0.0383
806.0,0.0383
805.0,0.0383
804.0,0.0384
803.0,0.0384
802.0,0.0383
801.0,0.0382
800.0,0.0382
799.0,0.0383
798.0,0.0385
797.0,0.0386
796.0,0.0386
795.0,0.0384
794.0,0.0383
793.0,0.0384
792.0,0.0385
791.0,0.0387
790.0,0.0388
789.0,0.0387
788.0,0.0386
787.0,0.0386
786.0,0.0387
785.0,0.0388
784.0,0.0389
783.0,0.0389
782.0,0.0388
781.0,0.0387
780.0,0.0388
779.0,0.039
778.0,0.0393
777.0,0.0395
776.0,0.0394
775.0,0.0392
774.0,0.0389
773.0,0.0389
772.0,0.0391
771.0,0.0393
770.0,0.0395
769.0,0.0396
768.0,0.0395
767.0,0.0393
766.0,0.039
765.0,0.0388
764.0,0.0388
763.0,0.0389
762.0,0.0389
761.0,0.0389
760.0,0.0389
759.0,0.0389
758.0,0.0389
757.0,0.039
756.0,0.0391
755.0,0.0391
754.0,0.0391
753.0,0.0391
752.0,0.0389
751.0,0.0387
750.0,0.0385
749.0,0.0385
748.0,0.0386
747.0,0.0387
746.0,0.0386
745.0,0.0383
744.0,0.0381
743.0,0.038
742.0,0.038
741.0,0.038
740.0,0.038
739.0,0.0382
738.0,0.0385
737.0,0.039
736.0,0.0404
735.0,0.0438
734.0,0.0507
733.0,0.0618
732.0,0.075
731.0,0.086
730.0,0.0909
729.0,0.0889
728.0,0.0831
727.0,0.0772
726.0,0.0734
725.0,0.0727
724.0,0.075
723.0,0.0809
722.0,0.0912
721.0,0.1044
720.0,0.1164
719.0,0.1221
718.0,0.1196
717.0,0.1115
716.0,0.1015
715.0,0.0918
714.0,0.0837
713.0,0.0772
712.0,0.0722
711.0,0.0685
710.0,0.0656
709.0,0.0632
708.0,0.0613
707.0,0.0597
706.0,0.0583
705.0,0.057
704.0,0.056
703.0,0.0553
702.0,0.0546
701.0,0.0535
700.0,0.0523
699.0,0.0517
698.0,0.0519
697.0,0.0525
696.0,0.0531
695.0,0.0531
694.0,0.0526
693.0,0.0521
692.0,0.0515
691.0,0.0506
690.0,0.0496
689.0,0.0489
688.0,0.0489
687.0,0.0492
686.0,0.0493
685.0,0.0492
684.0,0.049
683.0,0.0491
682.0,0.0493
681.0,0.0493
680.0,0.049
679.0,0.0485
678.0,0.0479
677.0,0.0476
676.0,0.0475
675.0,0.0474
674.0,0.0473
673.0,0.047
672.0,0.0465
671.0,0.0454
670.0,0.0439
669.0,0.0424
668.0,0.0423
667.0,0.044
666.0,0.0458
665.0,0.0469
664.0,0.0474
663.0,0.0475
662.0,0.0472
661.0,0.0465
660.0,0.0459
659.0,0.0455
658.0,0.0454
657.0,0.0454
656.0,0.0453
655.0,0.0453
654.0,0.0453
653.0,0.0454
652.0,0.0455
651.0,0.0454
650.0,0.0454
649.0,0.0453
648.0,0.0453
647.0,0.0451
646.0,0.0448
645.0,0.0449
644.0,0.0457
643.0,0.047
642.0,0.0481
641.0,0.0486
640.0,0.0483
639.0,0.0475
638.0,0.0468
637.0,0.0468
636.0,0.0478
635.0,0.0491
634.0,0.05
633.0,0.0499
632.0,0.0491
631.0,0.0481
630.0,0.0473
629.0,0.047
628.0,0.0471
627.0,0.0474
626.0,0.0473
625.0,0.0469
624.0,0.0465
623.0,0.0463
622.0,0.0465
621.0,0.047
620.0,0.0476
619.0,0.0479
618.0,0.0479
617.0,0.0483
616.0,0.0493
615.0,0.0507
614.0,0.0514
613.0,0.0512
612.0,0.0507
611.0,0.0504
610.0,0.0504
609.0,0.0505
608.0,0.0506
607.0,0.0507
606.0,0.0507
605.0,0.051
604.0,0.0514
603.0,0.0517
602.0,0.0516
601.0,0.0509
600.0,0.0498
