cm-1,A
4000.0,-0.009663316679379363
3999.0,-0.009748255948553552
3998.0,-0.00979071935429765
3997.0,-0.009918084665901272
3996.0,-0.009960531470597278
3995.0,-0.009960531470597278
3994.0,-0.009918084665901272
3993.0,-0.00979071935429765
3992.0,-0.009663316679379363
3991.0,-0.009620840814324794
3990.0,-0.009663316679379363
3989.0,-0.009705788390518055
3988.0,-0.009705788390518055
3987.0,-0.009705788390518055
3986.0,-0.009620840814324794
3985.0,-0.009535876619218175
3984.0,-0.009493388287539872
3983.0,-0.009535876619218175
3982.0,-0.009620840814324794
3981.0,-0.009748255948553552
3980.0,-0.009833178608563031
3979.0,-0.009918084665901272
3978.0,-0.009960531470597278
3977.0,-0.010002974127059527
3976.0,-0.010045412636098483
3975.0,-0.010045412636098483
3974.0,-0.009960531470597278
3973.0,-0.009875633712160159
3972.0,-0.00979071935429765
3971.0,-0.009748255948553552
3970.0,-0.009705788390518055
3969.0,-0.009748255948553552
3968.0,-0.00979071935429765
3967.0,-0.009833178608563031
3966.0,-0.009918084665901272
3965.0,-0.010002974127059527
3964.0,-0.010045412636098483
3963.0,-0.010087846998524608
3962.0,-0.010087846998524608
3961.0,-0.010087846998524608
3960.0,-0.010087846998524608
3959.0,-0.010045412636098483
3958.0,-0.010002974127059527
3957.0,-0.009918084665901272
3956.0,-0.009833178608563031
3955.0,-0.00979071935429765
3954.0,-0.00979071935429765
3953.0,-0.00979071935429765
3952.0,-0.00979071935429765
3951.0,-0.009833178608563031
3950.0,-0.009833178608563031
3949.0,-0.009748255948553552
3948.0,-0.009705788390518055
3947.0,-0.009748255948553552
3946.0,-0.009875633712160159
3945.0,-0.010045412636098483
3944.0,-0.010215125214226628
3943.0,-0.010257542998301172
3942.0,-0.010172703286778884
3941.0,-0.009960531470597278
3940.0,-0.009748255948553552
3939.0,-0.009620840814324794
3938.0,-0.009578360794542107
3937.0,-0.009663316679379363
3936.0,-0.009748255948553552
3935.0,-0.009875633712160159
3934.0,-0.010002974127059527
3933.0,-0.01013027721514792
3932.0,-0.010172703286778884
3931.0,-0.010215125214226628
3930.0,-0.01013027721514792
3929.0,-0.010002974127059527
3928.0,-0.009918084665901272
3927.0,-0.009833178608563031
3926.0,-0.009833178608563031
3925.0,-0.009875633712160159
3924.0,-0.009875633712160159
3923.0,-0.00979071935429765
3922.0,-0.009705788390518055
3921.0,-0.009620840814324794
3920.0,-0.009620840814324794
3919.0,-0.009705788390518055
3918.0,-0.009875633712160159
3917.0,-0.010045412636098483
3916.0,-0.01013027721514792
3915.0,-0.01013027721514792
3914.0,-0.010002974127059527
3913.0,-0.009918084665901272
3912.0,-0.009918084665901272
3911.0,-0.009960531470597278
3910.0,-0.010002974127059527
3909.0,-0.010045412636098483
3908.0,-0.010045412636098483
3907.0,-0.010002974127059527
3906.0,-0.010002974127059527
3905.0,-0.010087846998524608
3904.0,-0.010215125214226628
3903.0,-0.010215125214226628
3902.0,-0.01013027721514792
3901.0,-0.009918084665901272
3900.0,-0.00979071935429765
3899.0,-0.009748255948553552
3898.0,-0.00979071935429765
3897.0,-0.009875633712160159
3896.0,-0.010002974127059527
3895.0,-0.01013027721514792
3894.0,-0.010215125214226628
3893.0,-0.010215125214226628
3892.0,-0.010172703286778884
3891.0,-0.010087846998524608
3890.0,-0.010002974127059527
3889.0,-0.009960531470597278
3888.0,-0.009960531470597278
3887.0,-0.010087846998524608
3886.0,-0.010172703286778884
3885.0,-0.010215125214226628
3884.0,-0.010172703286778884
3883.0,-0.01013027721514792
3882.0,-0.010172703286778884
3881.0,-0.010257542998301172
3880.0,-0.010257542998301172
3879.0,-0.010215125214226628
3878.0,-0.010087846998524608
3877.0,-0.010045412636098483
3876.0,-0.010002974127059527
3875.0,-0.010002974127059527
3874.0,-0.010002974127059527
3873.0,-0.010002974127059527
3872.0,-0.010002974127059527
3871.0,-0.010045412636098483
3870.0,-0.010087846998524608
3869.0,-0.010087846998524608
3868.0,-0.010002974127059527
3867.0,-0.009875633712160159
3866.0,-0.00979071935429765
3865.0,-0.009748255948553552
3864.0,-0.00979071935429765
3863.0,-0.009833178608563031
3862.0,-0.009918084665901272
3861.0,-0.009960531470597278
3860.0,-0.009918084665901272
3859.0,-0.009833178608563031
3858.0,-0.00979071935429765
3857.0,-0.009748255948553552
3856.0,-0.009748255948553552
3855.0,-0.009705788390518055
3854.0,-0.009620840814324794
3853.0,-0.009578360794542107
3852.0,-0.009578360794542107
3851.0,-0.009663316679379363
3850.0,-0.009748255948553552
3849.0,-0.009833178608563031
3848.0,-0.009833178608563031
3847.0,-0.009833178608563031
3846.0,-0.009833178608563031
3845.0,-0.009875633712160159
3844.0,-0.009918084665901272
3843.0,-0.009833178608563031
3842.0,-0.009620840814324794
3841.0,-0.009365898346244794
3840.0,-0.009195853519521346
3839.0,-0.009153331907708395
3838.0,-0.009365898346244794
3837.0,-0.009620840814324794
3836.0,-0.009833178608563031
3835.0,-0.009960531470597278
3834.0,-0.009960531470597278
3833.0,-0.009875633712160159
3832.0,-0.009833178608563031
3831.0,-0.009833178608563031
3830.0,-0.009875633712160159
3829.0,-0.010002974127059527
3828.0,-0.01013027721514792
3827.0,-0.010215125214226628
3826.0,-0.010215125214226628
3825.0,-0.010087846998524608
3824.0,-0.009918084665901272
3823.0,-0.009620840814324794
3822.0,-0.00945089579869407
3821.0,-0.009365898346244794
3820.0,-0.009408399151866753
3819.0,-0.009365898346244794
3818.0,-0.00932339338101329
3817.0,-0.009365898346244794
3816.0,-0.009535876619218175
3815.0,-0.009663316679379363
3814.0,-0.00979071935429765
3813.0,-0.009875633712160159
3812.0,-0.010002974127059527
3811.0,-0.010045412636098483
3810.0,-0.010045412636098483
3809.0,-0.009960531470597278
3808.0,-0.009875633712160159
3807.0,-0.009833178608563031
3806.0,-0.009748255948553552
3805.0,-0.009663316679379363
3804.0,-0.009620840814324794
3803.0,-0.009620840814324794
3802.0,-0.009705788390518055
3801.0,-0.009748255948553552
3800.0,-0.009748255948553552
3799.0,-0.009705788390518055
3798.0,-0.009748255948553552
3797.0,-0.009833178608563031
3796.0,-0.009875633712160159
3795.0,-0.009833178608563031
3794.0,-0.009748255948553552
3793.0,-0.009705788390518055
3792.0,-0.00979071935429765
3791.0,-0.009875633712160159
3790.0,-0.009960531470597278
3789.0,-0.010002974127059527
3788.0,-0.010002974127059527
3787.0,-0.009960531470597278
3786.0,-0.009918084665901272
3785.0,-0.009875633712160159
3784.0,-0.009833178608563031
3783.0,-0.009833178608563031
3782.0,-0.009833178608563031
3781.0,-0.009875633712160159
3780.0,-0.009918084665901272
3779.0,-0.009960531470597278
3778.0,-0.009960531470597278
3777.0,-0.009918084665901272
3776.0,-0.009833178608563031
3775.0,-0.009748255948553552
3774.0,-0.009620840814324794
3773.0,-0.009535876619218175
3772.0,-0.009535876619218175
3771.0,-0.009620840814324794
3770.0,-0.009705788390518055
3769.0,-0.009705788390518055
3768.0,-0.009705788390518055
3767.0,-0.009663316679379363
3766.0,-0.009705788390518055
3765.0,-0.009748255948553552
3764.0,-0.00979071935429765
3763.0,-0.009875633712160159
3762.0,-0.009918084665901272
3761.0,-0.009960531470597278
3760.0,-0.009918084665901272
3759.0,-0.00979071935429765
3758.0,-0.009620840814324794
3757.0,-0.009493388287539872
3756.0,-0.009365898346244794
3755.0,-0.009280884255358668
3754.0,-0.009195853519521346
3753.0,-0.009110806132212712
3752.0,-0.008940661377087267
3751.0,-0.008855563996212457
3750.0,-0.008855563996212457
3749.0,-0.00881300905208926
3748.0,-0.00881300905208926
3747.0,-0.008770449937752556
3746.0,-0.008727886652384775
3745.0,-0.008770449937752556
3744.0,-0.00881300905208926
3743.0,-0.008855563996212457
3742.0,-0.008898114770939713
3741.0,-0.009025742086910427
3740.0,-0.009068276192218505
3739.0,-0.008983203815471796
3738.0,-0.008727886652384775
3737.0,-0.008472419302722134
3736.0,-0.008429826797229811
3735.0,-0.00864274756528527
3734.0,-0.008983203815471796
3733.0,-0.009110806132212712
3732.0,-0.008983203815471796
3731.0,-0.008770449937752556
3730.0,-0.008557591784247087
3729.0,-0.00851500763145463
3728.0,-0.00864274756528527
3727.0,-0.008770449937752556
3726.0,-0.008898114770939713
3725.0,-0.008940661377087267
3724.0,-0.008898114770939713
3723.0,-0.008940661377087267
3722.0,-0.008983203815471796
3721.0,-0.009025742086910427
3720.0,-0.008983203815471796
3719.0,-0.008983203815471796
3718.0,-0.008940661377087267
3717.0,-0.008855563996212457
3716.0,-0.00881300905208926
3715.0,-0.008727886652384775
3714.0,-0.00864274756528527
3713.0,-0.008600171761917519
3712.0,-0.008557591784247087
3711.0,-0.00851500763145463
3710.0,-0.008429826797229811
3709.0,-0.008302024212001324
3708.0,-0.008216801589690181
3707.0,-0.008216801589690181
3706.0,-0.008344629252689195
3705.0,-0.008472419302722134
3704.0,-0.008600171761917519
3703.0,-0.00864274756528527
3702.0,-0.008557591784247087
3701.0,-0.008429826797229811
3700.0,-0.008344629252689195
3699.0,-0.008302024212001324
3698.0,-0.008302024212001324
3697.0,-0.008344629252689195
3696.0,-0.008344629252689195
3695.0,-0.00825941499127536
3694.0,-0.008174184006426444
3693.0,-0.008003671840159488
3692.0,-0.007875743767585153
3691.0,-0.007747778000740002
3690.0,-0.00766244653727588
3689.0,-0.00766244653727588
3688.0,-0.007619774517403144
3687.0,-0.007577098304338836
3686.0,-0.007577098304338836
3685.0,-0.007577098304338836
3684.0,-0.007577098304338836
3683.0,-0.007491733295335923
3682.0,-0.0074063515036710825
3681.0,-0.007278247334244092
3680.0,-0.007235537545951853
3679.0,-0.007235537545951853
3678.0,-0.007150105366684922
3677.0,-0.007064656378331868
3676.0,-0.006936451364292662
3675.0,-0.0068937079479005625
3674.0,-0.006850960324272126
3673.0,-0.006850960324272126
3672.0,-0.006850960324272126
3671.0,-0.006808208492578682
3670.0,-0.006637159068586307
3669.0,-0.0064660422492317515
3668.0,-0.0063376603745508575
3667.0,-0.006252051369364686
3666.0,-0.006209240537657479
3665.0,-0.006209240537657479
3664.0,-0.006166425485431226
3663.0,-0.006080782716094024
3662.0,-0.005995123054691298
3661.0,-0.005909446494558601
3660.0,-0.0058666018753847915
3659.0,-0.00582375302902749
3658.0,-0.005738042651424635
3657.0,-0.005609445360280407
3656.0,-0.005480809979401258
3655.0,-0.005352136486216796
3654.0,-0.005266332972768684
3653.0,-0.005137595908863979
3652.0,-0.004922949296525481
3651.0,-0.00445035298922436
3650.0,-0.0039772418455368275
3649.0,-0.0037189638231147626
3648.0,-0.003675902548784027
3647.0,-0.003675902548784027
3646.0,-0.003546693102131737
3645.0,-0.0034174452021935586
3644.0,-0.0032881588260753603
3643.0,-0.003115717099805959
3642.0,-0.002900068611387585
3641.0,-0.0027274726898296464
3640.0,-0.0025548081484823015
3639.0,-0.0024252646779014952
3638.0,-0.0022956825549340643
3637.0,-0.0021660617565077978
3636.0,-0.0019499410842680476
3635.0,-0.0016904542321527494
3634.0,-0.0014308122463981832
3633.0,-0.001257631312230778
3632.0,-0.0011710149414008164
3631.0,-0.0011277002770349043
3630.0,-0.0008677215312267172
3629.0,-0.00043407747931878404
3628.0,0.0
3627.0,0.00030411258916074324
3626.0,0.0004779868710962365
3625.0,0.000521466320689834
3624.0,0.0005649501236701937
3623.0,0.0006519307932786322
3622.0,0.0007389288868995258
3621.0,0.0010000277816797354
3620.0,0.0013919706849057079
3619.0,0.001915112063444413
3618.0,0.002351545103793873
3617.0,0.002613615602686581
3616.0,0.0027884171674950053
3615.0,0.0029195645282691363
3614.0,0.0032694845648473247
3613.0,0.003619686766589858
3612.0,0.003926345514724705
3611.0,0.0040578370074493275
3610.0,0.004233220950025984
3609.0,0.00458420145758498
3608.0,0.005111204635089406
3607.0,0.005682847330363394
3606.0,0.00612308505878878
3605.0,0.006387442061109638
3604.0,0.006651960076740071
3603.0,0.00696076819309055
3602.0,0.007358130121602358
3601.0,0.007711646202907652
3600.0,0.007932739972333236
3599.0,0.008021209005416363
3598.0,0.008153946355103248
3597.0,0.008419542825660153
3596.0,0.008951223547323472
3595.0,0.009572341514736404
3594.0,0.010060986715464404
3593.0,0.010327752376126709
3592.0,0.01037222925484893
3591.0,0.010327752376126709
3590.0,0.010416710688994968
3589.0,0.01077272626946324
3588.0,0.011396456654336085
3587.0,0.012110390002254778
3586.0,0.012691326268817527
3585.0,0.013138729709955221
3584.0,0.013407393177789162
3583.0,0.013631406429727155
3582.0,0.01381070026317599
3581.0,0.013990068146738865
3580.0,0.014304140310157809
3579.0,0.014663358264387139
3578.0,0.015112798935672522
3577.0,0.01547268665620738
3576.0,0.01578783323856614
3575.0,0.016103208673694303
3574.0,0.01646391839700767
3573.0,0.016734647433454652
3572.0,0.017005545341335804
3571.0,0.017186237868137555
3570.0,0.017321806616515723
3569.0,0.01768353030793479
3568.0,0.018362575344230914
3567.0,0.019178833355664393
3566.0,0.01990568621470623
3565.0,0.020406104151069693
3564.0,0.02067930261797568
3563.0,0.020861530453190058
3562.0,0.021043834782408455
3561.0,0.021317434843055594
3560.0,0.021636852916117055
3559.0,0.02200219004126036
3558.0,0.022367834754000393
3557.0,0.022688026603074007
3556.0,0.02296266477531872
3555.0,0.023329119375188556
3554.0,0.023833499868024743
3553.0,0.02438440203310499
3552.0,0.024890010313838973
3551.0,0.025258095499050004
3550.0,0.025488307262671706
3549.0,0.025718641122169483
3548.0,0.026041313893296225
3547.0,0.026502691267936695
3546.0,0.02710321556345563
3545.0,0.027658283674251827
3544.0,0.02812138297373412
3543.0,0.028538594975413334
3542.0,0.028816959143838528
3541.0,0.029141943003497595
3540.0,0.029374223311705583
3539.0,0.02960662792039992
3538.0,0.029839156962686353
3537.0,0.030164906924202484
3536.0,0.03063068826647264
3535.0,0.031096969696171817
3534.0,0.031563752288295444
3533.0,0.03193753992355086
3532.0,0.032311649546687526
3531.0,0.032686081712916426
3530.0,0.033154576345083564
3529.0,0.03371743783253667
3528.0,0.03428102975577918
3527.0,0.03475124903287918
3526.0,0.03517488211661135
3525.0,0.03555179208333925
3524.0,0.03597620715996652
3523.0,0.036401037402758574
3522.0,0.03682628362474838
3521.0,0.03720463014276687
3520.0,0.037583306554248797
3519.0,0.03796231343498735
3518.0,0.038341651362284734
3517.0,0.038673844065289176
3516.0,0.03910132267333921
3515.0,0.03948165721929198
3514.0,0.039909932095080425
3513.0,0.040243327009005014
3512.0,0.04062466342415694
3511.0,0.04105406750606355
3510.0,0.041627267521392675
3509.0,0.042201225070002124
3508.0,0.04253638427006878
3507.0,0.04268010314465909
3506.0,0.042775942156833
3505.0,0.04301563225723992
3504.0,0.04344740808260106
3503.0,0.04402377775167454
3502.0,0.04455278942230456
3501.0,0.04488976902944808
3500.0,0.04508244626504121
3499.0,0.0451788169482068
3498.0,0.04522701031028298
3497.0,0.04527520902093718
3496.0,0.04537162249272897
3495.0,0.045516282844447975
3494.0,0.045612749855485024
3493.0,0.04570923829887308
3492.0,0.04570923829887308
3491.0,0.04575749056067524
3490.0,0.04580574818413763
3489.0,0.04599883231842972
3488.0,0.04628861957244457
3487.0,0.04657860031896477
3486.0,0.04677202844014605
3485.0,0.04682039893436585
3484.0,0.04682039893436585
3483.0,0.04682039893436585
3482.0,0.04696554274964315
3481.0,0.04720755695590784
3480.0,0.04744970610179822
3479.0,0.047595060422975566
3478.0,0.047691990337874746
3477.0,0.0478374257855374
3476.0,0.04803141550708934
3475.0,0.04832256265669943
3474.0,0.048565334467987054
3473.0,0.04875964967565971
3472.0,0.04900266601119507
3471.0,0.049245818406496555
3470.0,0.04948910701400333
3469.0,0.04968383607539972
3468.0,0.04973253198641148
3467.0,0.04973253198641148
3466.0,0.04978123335813667
3465.0,0.04987865248862655
3464.0,0.050073556332087765
3463.0,0.050317309204795935
3462.0,0.05065879322950262
3461.0,0.05100054597304693
3460.0,0.05129369109514803
3459.0,0.05153812993871654
3458.0,0.05178270644002936
3457.0,0.05207638016827354
3456.0,0.05237025261564554
3455.0,0.05271335532220167
3454.0,0.05310580489767336
3453.0,0.0534986094304124
3452.0,0.05379344615721715
3451.0,0.05399011523423525
3450.0,0.05413767551038262
3449.0,0.05448217792216048
3448.0,0.05502409158795207
3447.0,0.05561604235915585
3446.0,0.05610995175152733
3445.0,0.056456022846545606
3444.0,0.05670338543334519
3443.0,0.057000406633959555
3442.0,0.05734718830678798
3441.0,0.05779345772290467
3440.0,0.05814087347462649
3439.0,0.058538260652670315
3438.0,0.05898575629443026
3437.0,0.05943371350990989
3436.0,0.05998184499233683
3435.0,0.060530669156469985
3434.0,0.06118017497378969
3433.0,0.061780582187257016
3432.0,0.062381820606176586
3431.0,0.06293368798257193
3430.0,0.06358680028852026
3429.0,0.06439198148213077
3428.0,0.06524912533642091
3427.0,0.06600683616875758
3426.0,0.06661395809694559
3425.0,0.0671712330991534
3424.0,0.0678307540792078
3423.0,0.06869471857832687
3422.0,0.06976434723371505
3421.0,0.07078549626260622
3420.0,0.07170658776779781
3419.0,0.07242434530888953
3418.0,0.07304051161972436
3417.0,0.07365755337434488
3416.0,0.07427547306393745
3415.0,0.07504911108438939
3414.0,0.07592757008963713
3413.0,0.07685964397479927
3412.0,0.07779372256098371
3411.0,0.07867775641617802
3410.0,0.07951143534170213
3409.0,0.08039897621588898
3408.0,0.0812883346176787
3407.0,0.08212704480115218
3406.0,0.08291480935943274
3405.0,0.08375666953466032
3404.0,0.08465293767580806
3403.0,0.0856568428805593
3402.0,0.0867160982395816
3401.0,0.0877779434675845
3400.0,0.08884239126002336
3399.0,0.08990945440593179
3398.0,0.09092559859909577
3397.0,0.09189045960744768
3396.0,0.09280368972839836
3395.0,0.09371884422784693
3394.0,0.09479797133768142
3393.0,0.09604229147682952
3392.0,0.0972358560759139
3391.0,0.09826930827078129
3390.0,0.0990869322623309
3389.0,0.09979678698310646
3388.0,0.1005078038618683
3387.0,0.10132965703447017
3386.0,0.10226297465457268
3385.0,0.10325338439259446
3384.0,0.10419084983086901
3383.0,0.10496440254767725
3382.0,0.10562854614376227
3381.0,0.1063491830140364
3380.0,0.1071265931112344
3379.0,0.10796107965870849
3378.0,0.10874138309586101
3377.0,0.10941133229451272
3376.0,0.10997041383658313
3375.0,0.11041819785037621
3374.0,0.11086644403327606
3373.0,0.11142740314240007
3372.0,0.1120452961911984
3371.0,0.1128329791052256
3370.0,0.1136220932414278
3369.0,0.11441264381034388
3368.0,0.11514801725400226
3367.0,0.1157145376603248
3366.0,0.11628179803604044
3365.0,0.11679296664760996
3364.0,0.11730473761840288
3363.0,0.11787408022996826
3362.0,0.11844417020668851
3361.0,0.11907213473291511
3360.0,0.11970100857424737
3359.0,0.12033079436794658
3358.0,0.12090412049992727
3357.0,0.12142076193778073
3356.0,0.12193801870998744
3355.0,0.12245589228405596
3354.0,0.12297438413275108
3353.0,0.12337808396572703
3352.0,0.1236666709136196
3351.0,0.12395544975390482
3350.0,0.12412880927263426
3349.0,0.12441789567211425
3348.0,0.12470717462899183
3347.0,0.12517042212027807
3346.0,0.12569216687196105
3345.0,0.12621453918179926
3344.0,0.126621263590859
3343.0,0.12679569072295926
3342.0,0.12685384867174432
3341.0,0.12685384867174432
3340.0,0.12697018793895576
3339.0,0.12714475529518965
3338.0,0.12737762097471172
3337.0,0.12761061158217912
3336.0,0.1277271537757949
3335.0,0.1277271537757949
3334.0,0.1277271537757949
3333.0,0.1276688787697493
3332.0,0.1276688787697493
3331.0,0.1277271537757949
3330.0,0.1276688787697493
3329.0,0.12749410065407507
3328.0,0.12737762097471172
3327.0,0.12720296001040166
3326.0,0.12714475529518965
3325.0,0.1270865583796048
3324.0,0.1270865583796048
3323.0,0.1270865583796048
3322.0,0.12697018793895576
3321.0,0.12679569072295926
3320.0,0.126621263590859
3319.0,0.12644690648638135
3318.0,0.12621453918179926
3317.0,0.12586622117202761
3316.0,0.12546020292898974
3315.0,0.1249387366082999
3314.0,0.1244757360506914
3313.0,0.12395544975390482
3312.0,0.12355121312165873
3311.0,0.12320502379929943
3310.0,0.12303203256741524
3309.0,0.12303203256741524
3308.0,0.12308968865537295
3307.0,0.12291674334934943
3306.0,0.12257105921178035
3305.0,0.12216810850710624
3304.0,0.12188051530283239
3303.0,0.12165057778222454
3302.0,0.12136332697348307
3301.0,0.12107626603243293
3300.0,0.12067469921519258
3299.0,0.12027350336042275
3298.0,0.11987267778337518
3297.0,0.11947222180119477
3296.0,0.11912926746757657
3295.0,0.11878658374498086
3294.0,0.11850122038501709
3293.0,0.11821604440661537
3292.0,0.11787408022996826
3291.0,0.1175323851046286
3290.0,0.11713408027837091
3289.0,0.11667932161702477
3288.0,0.11628179803604044
3287.0,0.11577123036739612
3286.0,0.11526126223036814
3285.0,0.1148084593931522
3284.0,0.11435612816423602
3283.0,0.11401718864502697
3282.0,0.1137349409702435
3281.0,0.11339648571328764
3280.0,0.1130019543289007
3279.0,0.11260778102815316
3278.0,0.11221396516162851
3277.0,0.11187669270209155
3276.0,0.11153968196461372
3275.0,0.11125903931710734
3274.0,0.11097857790477517
3273.0,0.11075433910702048
3272.0,0.11047420332880886
3271.0,0.11008231656379408
3270.0,0.10969078310005154
3269.0,0.10935546370475246
3268.0,0.10913206118855912
3267.0,0.10896458468468917
3266.0,0.10868560061785693
3265.0,0.10846254232743546
3264.0,0.10835105612944096
3263.0,0.10835105612944096
3262.0,0.10835105612944096
3261.0,0.10823959854332843
3260.0,0.10807246577932506
3259.0,0.10790539730951965
3258.0,0.10784972209863586
3257.0,0.10801676914803293
3256.0,0.10840679565103484
3255.0,0.10890877353227624
3254.0,0.10929960230112479
3253.0,0.10963487855187593
3252.0,0.10980261378997125
3251.0,0.11002636159600376
3250.0,0.11025022473596224
3249.0,0.11041819785037621
3248.0,0.1106422631110684
3247.0,0.11086644403327606
3246.0,0.11120293254331926
3245.0,0.11159583226295333
3244.0,0.11193288659256306
3243.0,0.11215773489264302
3242.0,0.11221396516162851
3241.0,0.11221396516162851
3240.0,0.11221396516162851
3239.0,0.11227020271196975
3238.0,0.11238269966426384
3237.0,0.11243895906999102
3236.0,0.11238269966426384
3235.0,0.11221396516162851
3234.0,0.1120452961911984
3233.0,0.11182050608167504
3232.0,0.1117081546434846
3231.0,0.11153968196461372
3230.0,0.11142740314240007
3229.0,0.11131515334030118
3228.0,0.11109074073646874
3227.0,0.11081038795292675
3226.0,0.11036219959333216
3225.0,0.10980261378997125
3224.0,0.10924374808178183
3223.0,0.10874138309586101
3222.0,0.10835105612944096
3221.0,0.10807246577932506
3220.0,0.10779405402422748
3219.0,0.10740457717110186
3218.0,0.10679324694015202
3217.0,0.1061827760325369
3216.0,0.10568393731556158
3215.0,0.10535169620648288
3214.0,0.10501970907203151
3213.0,0.10452220372428545
3212.0,0.10397008760377302
3211.0,0.10341867249426717
3210.0,0.10297804393963661
3209.0,0.10270287794050348
3208.0,0.10237290870955862
3207.0,0.10198826120249849
3206.0,0.10154908080162528
3205.0,0.10111034407341357
3204.0,0.10067205012234592
3203.0,0.10023419805561384
3202.0,0.09979678698310646
3201.0,0.09935981601739963
3200.0,0.0990869322623309
3199.0,0.09892328427374508
3198.0,0.09875969792669093
3197.0,0.09859617317474823
3196.0,0.09832376867362447
3195.0,0.09794268919153337
3194.0,0.09745322068600859
3193.0,0.09701860020249709
3192.0,0.09658441423091357
3191.0,0.096150661903319
3190.0,0.0957714836599215
3189.0,0.09539263618455207
3188.0,0.09512223303659528
3187.0,0.09485199814398393
3186.0,0.09458193129745807
3185.0,0.09441997176475758
3184.0,0.09425807260839858
3183.0,0.09409623378338305
3182.0,0.09388054245443844
3181.0,0.09366495819490939
3180.0,0.09339562827501968
3179.0,0.09312646527792956
3178.0,0.09280368972839836
3177.0,0.09237369515673355
3176.0,0.0919441259012328
3175.0,0.0916222275676053
3174.0,0.09130056764777605
3173.0,0.09113982698272349
3172.0,0.09092559859909577
3171.0,0.09065796163869155
3170.0,0.09028354676565531
3169.0,0.08980263003399913
3168.0,0.08937559511079884
3167.0,0.08905559425002108
3166.0,0.08878910686244668
3165.0,0.08841629901892434
3164.0,0.08804381092731295
3163.0,0.08756536662442538
3162.0,0.08719360733870762
3161.0,0.08687520961044104
3160.0,0.08650404038287651
3159.0,0.08618614761628329
3158.0,0.08576265223225898
3157.0,0.08533956941077814
3156.0,0.08486409337798806
3155.0,0.08433639649422697
3154.0,0.0839147001562972
3153.0,0.08349341288484435
3152.0,0.08312512146131668
3151.0,0.08275714209253371
3150.0,0.0823369756726251
3149.0,0.08186477383364066
3148.0,0.08134070657817682
3147.0,0.08071265949561734
3146.0,0.08013774644446192
3145.0,0.07961575782164254
3144.0,0.07914650387874067
3143.0,0.07878187880504961
3142.0,0.07841755960658348
3141.0,0.07810552907089763
3140.0,0.0777417765670334
3139.0,0.07732643214144574
3138.0,0.07691148455760066
3137.0,0.07634157820669385
3136.0,0.07572071393811841
3135.0,0.07510073598571654
3134.0,0.07453319930846214
3133.0,0.07412091069849924
3132.0,0.07386342893255127
3131.0,0.07355465218161061
3130.0,0.07314329105030759
3129.0,0.0725783049495814
3128.0,0.07196279359311708
3127.0,0.07139934015547578
3126.0,0.07088774334533943
3125.0,0.07047889936889606
3124.0,0.07017251876930874
3123.0,0.06986635415888243
3122.0,0.06945847013556561
3121.0,0.0690000580438479
3120.0,0.0684912781333824
3119.0,0.0680846829187538
3118.0,0.06767846801070698
3117.0,0.06727263269847072
3116.0,0.06676587128519196
3115.0,0.06620911585658007
3114.0,0.06565307326174441
3113.0,0.06514819703433927
3112.0,0.06474471821595262
3111.0,0.06434161389936577
3110.0,0.06398920428479049
3109.0,0.06358680028852026
3108.0,0.06323500239005853
3107.0,0.06288348923294618
3106.0,0.06253226035662252
3105.0,0.06208109735221967
3104.0,0.061580354206806964
3103.0,0.0611301784870133
3102.0,0.06068046892176193
3101.0,0.060231224546650086
3100.0,0.05968277842578207
3099.0,0.05908526241971446
3098.0,0.058538260652670315
3097.0,0.05809122563440061
3096.0,0.057743849580535134
3095.0,0.05744631966579017
3094.0,0.0571489934456626
3093.0,0.0567528748621382
3092.0,0.05635711724787096
3091.0,0.055961719945581745
3090.0,0.05561604235915585
3089.0,0.055270639696704205
3088.0,0.0549747987575373
3087.0,0.05462990550969615
3086.0,0.05428528594013993
3085.0,0.053842605077627725
3084.0,0.053449489430144714
3083.0,0.05305672930217464
3082.0,0.052762392129333646
3081.0,0.052468254304406825
3080.0,0.05217431555754937
3079.0,0.05188057561946402
3078.0,0.05153812993871654
3077.0,0.05119595406718891
3076.0,0.05075640943173498
3075.0,0.050317309204795935
3074.0,0.049927370249842395
3073.0,0.04958646063061889
3072.0,0.049245818406496555
3071.0,0.048905443158337114
3070.0,0.04851676924770687
3069.0,0.04807992647970649
3068.0,0.047691990337874746
3067.0,0.04740126547022694
3066.0,0.04711073508906982
3065.0,0.04682039893436585
3064.0,0.046481918555007384
3063.0,0.04599883231842972
3062.0,0.045612749855485024
3061.0,0.045323413081356456
3060.0,0.0451788169482068
3059.0,0.04508244626504121
3058.0,0.044937930324967956
3057.0,0.04460091336073302
3056.0,0.04421607108308856
3055.0,0.0437835307566099
3054.0,0.04339941178682327
3053.0,0.043063586155803746
3052.0,0.04272802000705722
3051.0,0.042392712939904875
3050.0,0.042057664554595586
3049.0,0.0417706858116178
3048.0,0.041483896576958834
3047.0,0.04129280891271536
3046.0,0.04105406750606355
3045.0,0.04081545726880842
3044.0,0.040529297924893015
3043.0,0.040243327009005014
3042.0,0.040005161671583744
3041.0,0.039719535563357944
3040.0,0.03948165721929198
3039.0,0.03924390909822728
3038.0,0.038958783046687984
3037.0,0.03862637240519895
3036.0,0.03829421599749461
3035.0,0.03796231343498735
3034.0,0.03767802727041558
3033.0,0.03744126420403626
3032.0,0.03720463014276687
3031.0,0.0369681249461018
3030.0,0.03668448861388862
3029.0,0.03635381351515665
3028.0,0.03597620715996652
3027.0,0.03550466044490741
3026.0,0.03512779136222477
3025.0,0.03484535401307465
3024.0,0.03461012978487776
3023.0,0.034469056377139484
3022.0,0.03432802877989327
3021.0,0.03409308450480819
3020.0,0.03385826726096752
3019.0,0.03357665405630694
3018.0,0.03334211579824231
3017.0,0.03301397488206215
3016.0,0.032686081712916426
3015.0,0.03235843591698884
3014.0,0.032031037121307726
3013.0,0.03175060589208267
3012.0,0.031563752288295444
3011.0,0.03142366482450232
3010.0,0.031236951802751545
3009.0,0.031003673351687855
3008.0,0.030770520137356927
3007.0,0.030490901403433135
3006.0,0.03030458888152676
3005.0,0.030164906924202484
3004.0,0.030071810571884017
3003.0,0.029932203450862893
3002.0,0.029792641193145286
3001.0,0.02960662792039992
3000.0,0.029374223311705583
2999.0,0.02904906565457588
2998.0,0.028677754757187035
2997.0,0.02839947976994095
2996.0,0.028167720075074953
2995.0,0.028028723600243666
2994.0,0.027843464140506313
2993.0,0.027612000892527133
2992.0,0.027334407733889066
2991.0,0.02710321556345563
2990.0,0.02682594731702781
2989.0,0.02654885597506529
2988.0,0.026318081496016443
2987.0,0.026087429580295085
2986.0,0.025949097207122573
2985.0,0.025810808881832736
2984.0,0.025672564576383117
2983.0,0.025488307262671706
2982.0,0.025258095499050004
2981.0,0.02512002699306959
2980.0,0.02498200236711723
2979.0,0.024798037742147727
2978.0,0.02461415101053266
2977.0,0.02438440203310499
2976.0,0.024200690320592466
2975.0,0.02406295751688936
2974.0,0.023971159908874107
2973.0,0.023833499868024743
2972.0,0.02351246269481
2971.0,0.023191662661933732
2970.0,0.02296266477531872
2969.0,0.02277955336461468
2968.0,0.022733787572707387
2967.0,0.02277955336461468
2966.0,0.022871099419317753
2965.0,0.022871099419317753
2964.0,0.02277955336461468
2963.0,0.022688026603074007
2962.0,0.02259651912656535
2961.0,0.022505030926963654
2960.0,0.022413561996148967
2959.0,0.022230681908425698
2958.0,0.02204787879853809
2957.0,0.021910826943857264
2956.0,0.021728158389364705
2955.0,0.02159120737696063
2954.0,0.02140867317992523
2953.0,0.02122621566987748
2952.0,0.021043834782408455
2951.0,0.020907099361673565
2950.0,0.020770406977844713
2949.0,0.020633757603838898
2948.0,0.020542681902151694
2947.0,0.02045162529590483
2946.0,0.020315076172974234
2945.0,0.02013307743509718
2944.0,0.01990568621470623
2943.0,0.019723858922159776
2942.0,0.019632973815224997
2941.0,0.01958753839310856
2940.0,0.01954210772389997
2939.0,0.01940584422377989
2938.0,0.019315025636685412
2937.0,0.0192242260373785
2936.0,0.0190880622231564
2935.0,0.018951941086827073
2934.0,0.018770512579999288
2933.0,0.018634490921455527
2932.0,0.01858915983411169
2931.0,0.018634490921455527
2930.0,0.018634490921455527
2929.0,0.018543833477873584
2928.0,0.018362575344230914
2927.0,0.018181392829336396
2926.0,0.018045555530026514
2925.0,0.01800028587012159
2924.0,0.017955020928509757
2923.0,0.017909760704207134
2922.0,0.017774008325325275
2921.0,0.01759307113620534
2920.0,0.017412209298337533
2919.0,0.017231422748988034
2918.0,0.017050711425501408
2917.0,0.016824927962187042
2916.0,0.016644385668211692
2915.0,0.01646391839700767
2914.0,0.016373712875465518
2913.0,0.01632861713980338
2912.0,0.016238439713835096
2911.0,0.016103208673694303
2910.0,0.015877917138889863
2909.0,0.015562705203923999
2908.0,0.015292705517326866
2907.0,0.015022873584506602
2906.0,0.014843078722943437
2905.0,0.014753209197138295
2904.0,0.014708281407112
2903.0,0.014708281407112
2902.0,0.014663358264387139
2901.0,0.01452861671041239
2900.0,0.014393916947563534
2899.0,0.014214382227394795
2898.0,0.01403492169512921
2897.0,0.01385553528947936
2896.0,0.013765869865004277
2895.0,0.013631406429727155
2894.0,0.013586594534531482
2893.0,0.013541787262693505
2892.0,0.013496984613259544
2891.0,0.013452186585275916
2890.0,0.013407393177789162
2889.0,0.013317820220494436
2888.0,0.01318349541446362
2887.0,0.013049212141483357
2886.0,0.012914970375878188
2885.0,0.012780770091995297
2884.0,0.012691326268817527
2883.0,0.01264661126420652
2882.0,0.012557195064198723
2881.0,0.012467797270160563
2880.0,0.012378417874516323
2879.0,0.012244383261476699
2878.0,0.01215504982870197
2877.0,0.012021084124518078
2876.0,0.011887159731648111
2875.0,0.011708658092512314
2874.0,0.011619434777991433
2873.0,0.011530229790124524
2872.0,0.011530229790124524
2871.0,0.011485634166333858
2870.0,0.011441043121384498
2869.0,0.011396456654336085
2868.0,0.011351874764248926
2867.0,0.011262724711199823
2866.0,0.01117359295472431
2865.0,0.011084479487313281
2864.0,0.011084479487313281
2863.0,0.011039929609661936
2862.0,0.011039929609661936
2861.0,0.011039929609661936
2860.0,0.010995384301463185
2859.0,0.01086177578421088
2858.0,0.01077272626946324
2857.0,0.010728208358306901
2856.0,0.010728208358306901
2855.0,0.01077272626946324
2854.0,0.01077272626946324
2853.0,0.010683695010048622
2852.0,0.010594681998483901
2851.0,0.010505687227290839
2850.0,0.01037222925484893
2849.0,0.01023881228122181
2848.0,0.010105436281226954
2847.0,0.01001654169860089
2846.0,0.009927665307847056
2845.0,0.009794384815193347
2844.0,0.00966114521239847
2843.0,0.009483555971770974
2842.0,0.009306039320248427
2841.0,0.009128595198514056
2840.0,0.008995559669244813
2839.0,0.008818242332126802
2838.0,0.008685301823389224
2837.0,0.008552401996197112
2836.0,0.00850811108984062
2835.0,0.008552401996197112
2834.0,0.008596697419959609
2833.0,0.008596697419959609
2832.0,0.00850811108984062
2831.0,0.008419542825660153
2830.0,0.008242460465651913
2829.0,0.008109696063975047
2828.0,0.008021209005416363
2827.0,0.007932739972333236
2826.0,0.007888512213050314
2825.0,0.007800070204414977
2824.0,0.007711646202907652
2823.0,0.00762324020119709
2822.0,0.007534852191956709
2821.0,0.0074464821678643656
2820.0,0.007358130121602358
2819.0,0.007269796045857202
2818.0,0.007225635744644521
2817.0,0.007225635744644521
2816.0,0.007137328610972382
2815.0,0.007049039429553483
2814.0,0.00696076819309055
2813.0,0.006916639301937977
2812.0,0.006916639301937977
2811.0,0.00696076819309055
2810.0,0.006916639301937977
2809.0,0.006828394969235152
2808.0,0.006696062080525422
2807.0,0.006519680930003435
2806.0,0.006431517210272464
2805.0,0.006343371384537999
2804.0,0.006299305179649828
2803.0,0.00625524344553785
2802.0,0.006167133386013823
2801.0,0.006167133386013823
2800.0,0.00612308505878878
2799.0,0.006079041198713275
2798.0,0.006035001804881146
2797.0,0.005946936412324799
2796.0,0.005946936412324799
2795.0,0.005946936412324799
2794.0,0.005990966876386672
2793.0,0.006035001804881146
2792.0,0.005990966876386672
2791.0,0.00590291041179003
2790.0,0.00577085918230158
2789.0,0.005682847330363394
2788.0,0.005682847330363394
2787.0,0.005638848091999105
2786.0,0.005638848091999105
2785.0,0.005594853310833647
2784.0,0.005506877116487674
2783.0,0.00537494623139545
2782.0,0.005330978174470591
2781.0,0.0052870145684298375
2780.0,0.005243055412371911
2779.0,0.005199100705396198
2778.0,0.005155150446602086
2777.0,0.005111204635089406
2776.0,0.005111204635089406
2775.0,0.005067263269958211
2774.0,0.005023326350308999
2773.0,0.004979393875242044
2772.0,0.004935465843858511
2771.0,0.004935465843858511
2770.0,0.00484762310854614
2769.0,0.004759798137184523
2768.0,0.004628093971837721
2767.0,0.0044964297349936455
2766.0,0.004452550524862486
2765.0,0.004452550524862486
2764.0,0.004452550524862486
2763.0,0.004452550524862486
2762.0,0.004452550524862486
2761.0,0.004452550524862486
2760.0,0.0044964297349936455
2759.0,0.004452550524862486
2758.0,0.004408675747646695
2757.0,0.0043648054024501
2756.0,0.004320939488377862
2755.0,0.004277078004534696
2754.0,0.004277078004534696
2753.0,0.004233220950025984
2752.0,0.004145520125434121
2751.0,0.004101676353562844
2750.0,0.00401400208620073
2749.0,0.00401400208620073
2748.0,0.00401400208620073
2747.0,0.0040578370074493275
2746.0,0.0040578370074493275
2745.0,0.0040578370074493275
2744.0,0.003926345514724705
2743.0,0.003794893821675638
2742.0,0.003619686766589858
2741.0,0.0035321097382827737
2740.0,0.0035321097382827737
2739.0,0.0035758960449088217
2738.0,0.003619686766589858
2737.0,0.003619686766589858
2736.0,0.0035758960449088217
2735.0,0.0035321097382827737
2734.0,0.0034007772998332353
2733.0,0.0033570086445275926
2732.0,0.0033570086445275926
2731.0,0.0033570086445275926
2730.0,0.0033570086445275926
2729.0,0.0033132443998284966
2728.0,0.0032257291386954545
2727.0,0.0030944893043338695
2726.0,0.0030070181092942683
2725.0,0.0029632891174733444
2724.0,0.0029195645282691363
2723.0,0.0029632891174733444
2722.0,0.0030070181092942683
2721.0,0.0030070181092942683
2720.0,0.0029632891174733444
2719.0,0.0029195645282691363
2718.0,0.0029195645282691363
2717.0,0.0029195645282691363
2716.0,0.0029195645282691363
2715.0,0.0028321285541661467
2714.0,0.002701007590486082
2713.0,0.002569926202528716
2712.0,0.002569926202528716
2711.0,0.002569926202528716
2710.0,0.002569926202528716
2709.0,0.0025262411970197185
2708.0,0.002482560585275184
2707.0,0.0025262411970197185
2706.0,0.0025262411970197185
2705.0,0.0025262411970197185
2704.0,0.0025262411970197185
2703.0,0.0025262411970197185
2702.0,0.0024388843664115978
2701.0,0.002395212539545666
2700.0,0.0023078820582733695
2699.0,0.0022642234021015284
2698.0,0.0022642234021015284
2697.0,0.0022642234021015284
2696.0,0.0022642234021015284
2695.0,0.0022205691343961664
2694.0,0.0022205691343961664
2693.0,0.0023078820582733695
2692.0,0.002351545103793873
2691.0,0.0023078820582733695
2690.0,0.0022642234021015284
2689.0,0.0021769192542746563
2688.0,0.002089632653256679
2687.0,0.0020023635919956817
2686.0,0.0019587356365717845
2685.0,0.001915112063444413
2684.0,0.001915112063444413
2683.0,0.001915112063444413
2682.0,0.0019587356365717845
2681.0,0.0019587356365717845
2680.0,0.0019587356365717845
2679.0,0.0018714928717336043
2678.0,0.0018278780605593958
2677.0,0.0017406615763013722
2676.0,0.0016970599014589638
2675.0,0.0016970599014589638
2674.0,0.0016970599014589638
2673.0,0.0016970599014589638
2672.0,0.0016534626036355249
2671.0,0.001609869681952425
2670.0,0.0015226969634936083
2669.0,0.0015226969634936083
2668.0,0.0015662811355310335
2667.0,0.0016534626036355249
2666.0,0.0016970599014589638
2665.0,0.0017406615763013722
2664.0,0.0017406615763013722
2663.0,0.0016534626036355249
2662.0,0.001609869681952425
2661.0,0.0015226969634936083
2660.0,0.0014355417390583547
2659.0,0.0013919706849057079
2658.0,0.0013919706849057079
2657.0,0.001348404001626502
2656.0,0.001304841688344327
2655.0,0.0012177301682640973
2654.0,0.0011306361176557367
2653.0,0.0011306361176557367
2652.0,0.0010870956412141197
2651.0,0.0010000277816797354
2650.0,0.0009565003968372565
2649.0,0.0009565003968372565
2648.0,0.0010000277816797354
2647.0,0.0010000277816797354
2646.0,0.0010000277816797354
2645.0,0.0010000277816797354
2644.0,0.0009565003968372565
2643.0,0.0009129773741116676
2642.0,0.000869458712629001
2641.0,0.000869458712629001
2640.0,0.000869458712629001
2639.0,0.000869458712629001
2638.0,0.000869458712629001
2637.0,0.000869458712629001
2636.0,0.0009129773741116676
2635.0,0.0009565003968372565
2634.0,0.0009565003968372565
2633.0,0.0009129773741116676
2632.0,0.0009129773741116676
2631.0,0.000869458712629001
2630.0,0.0008259444115150671
2629.0,0.0007824344698965646
2628.0,0.0007824344698965646
2627.0,0.0007824344698965646
2626.0,0.0007389288868995258
2625.0,0.0007824344698965646
2624.0,0.0007824344698965646
2623.0,0.0007824344698965646
2622.0,0.0007389288868995258
2621.0,0.0007389288868995258
2620.0,0.0007824344698965646
2619.0,0.0007824344698965646
2618.0,0.0007824344698965646
2617.0,0.0006954276616513155
2616.0,0.0005649501236701937
2615.0,0.00043451177401765406
2614.0,0.0003475746339209884
2613.0,0.00030411258916074324
2612.0,0.00030411258916074324
2611.0,0.0003475746339209884
2610.0,0.0003475746339209884
2609.0,0.00043451177401765406
2608.0,0.0004779868710962365
2607.0,0.000521466320689834
2606.0,0.000521466320689834
2605.0,0.000521466320689834
2604.0,0.000521466320689834
2603.0,0.0005649501236701937
2602.0,0.000521466320689834
2601.0,0.000521466320689834
2600.0,0.00043451177401765406
2599.0,0.0003475746339209884
2598.0,0.00026065489343207737
2597.0,0.00021720154586435392
2596.0,0.00021720154586435392
2595.0,0.00030411258916074324
2594.0,0.00043451177401765406
2593.0,0.0004779868710962365
2592.0,0.0004779868710962365
2591.0,0.0003475746339209884
2590.0,0.00026065489343207737
2589.0,0.00021720154586435392
2588.0,0.00021720154586435392
2587.0,0.00021720154586435392
2586.0,0.00021720154586435392
2585.0,0.00021720154586435392
2584.0,0.00021720154586435392
2583.0,0.00026065489343207737
2582.0,0.00026065489343207737
2581.0,0.00026065489343207737
2580.0,0.00026065489343207737
2579.0,0.00021720154586435392
2578.0,0.00017375254558760211
2577.0,0.00017375254558760211
2576.0,0.0001303078917322953
2575.0,4.343161980746579e-05
2574.0,0.0
2573.0,-4.3427276862573194e-05
2572.0,-8.685021164911433e-05
2571.0,-8.685021164911433e-05
2570.0,-8.685021164911433e-05
2569.0,-8.685021164911433e-05
2568.0,-4.3427276862573194e-05
2567.0,0.0
2566.0,0.0
2565.0,-4.3427276862573194e-05
2564.0,-8.685021164911433e-05
2563.0,-4.3427276862573194e-05
2562.0,8.686758342868472e-05
2561.0,0.00021720154586435392
2560.0,0.00030411258916074324
2559.0,0.0003475746339209884
2558.0,0.00030411258916074324
2557.0,0.00026065489343207737
2556.0,0.00021720154586435392
2555.0,0.00017375254558760211
2554.0,8.686758342868472e-05
2553.0,0.0
2552.0,-4.3427276862573194e-05
2551.0,-8.685021164911433e-05
2550.0,-8.685021164911433e-05
2549.0,-4.3427276862573194e-05
2548.0,-4.3427276862573194e-05
2547.0,-8.685021164911433e-05
2546.0,-0.00017368305846510168
2545.0,-0.00030389978481260016
2544.0,-0.0003472966853634851
2543.0,-0.0003472966853634851
2542.0,-0.00030389978481260016
2541.0,-0.00021709297223004853
2540.0,-0.00017368305846510168
2539.0,-0.00017368305846510168
2538.0,-0.00017368305846510168
2537.0,-0.00021709297223004853
2536.0,-0.00021709297223004853
2535.0,-0.00017368305846510168
2534.0,-4.3427276862573194e-05
2533.0,4.343161980746579e-05
2532.0,4.343161980746579e-05
2531.0,0.0
2530.0,-4.3427276862573194e-05
2529.0,-0.00013026880522692963
2528.0,-0.00017368305846510168
2527.0,-0.00017368305846510168
2526.0,-0.00013026880522692963
2525.0,-4.3427276862573194e-05
2524.0,0.0
2523.0,4.343161980746579e-05
2522.0,0.0
2521.0,-8.685021164911433e-05
2520.0,-0.00021709297223004853
2519.0,-0.00030389978481260016
2518.0,-0.00030389978481260016
2517.0,-0.0002604985473904087
2516.0,-0.00021709297223004853
2515.0,-0.00013026880522692963
2514.0,-4.3427276862573194e-05
2513.0,-4.3427276862573194e-05
2512.0,-4.3427276862573194e-05
2511.0,-8.685021164911433e-05
2510.0,-0.00013026880522692963
2509.0,-0.00013026880522692963
2508.0,-8.685021164911433e-05
2507.0,-8.685021164911433e-05
2506.0,-8.685021164911433e-05
2505.0,-4.3427276862573194e-05
2504.0,-8.685021164911433e-05
2503.0,-8.685021164911433e-05
2502.0,-0.00017368305846510168
2501.0,-0.00017368305846510168
2500.0,-0.00017368305846510168
2499.0,-0.00021709297223004853
2498.0,-0.00030389978481260016
2497.0,-0.00030389978481260016
2496.0,-0.00030389978481260016
2495.0,-0.00021709297223004853
2494.0,-0.00017368305846510168
2493.0,-0.00017368305846510168
2492.0,-0.00017368305846510168
2491.0,-0.0002604985473904087
2490.0,-0.00030389978481260016
2489.0,-0.00030389978481260016
2488.0,-0.0002604985473904087
2487.0,-0.00021709297223004853
2486.0,-0.00021709297223004853
2485.0,-0.0002604985473904087
2484.0,-0.00030389978481260016
2483.0,-0.0003472966853634851
2482.0,-0.0003906892499099257
2481.0,-0.00043407747931878404
2480.0,-0.0004774613744551459
2479.0,-0.0004774613744551459
2478.0,-0.0004774613744551459
2477.0,-0.00043407747931878404
2476.0,-0.00043407747931878404
2475.0,-0.0004774613744551459
2474.0,-0.0004774613744551459
2473.0,-0.0004774613744551459
2472.0,-0.00043407747931878404
2471.0,-0.0003472966853634851
2470.0,-0.00030389978481260016
2469.0,-0.0002604985473904087
2468.0,-0.0002604985473904087
2467.0,-0.00030389978481260016
2466.0,-0.0003906892499099257
2465.0,-0.00043407747931878404
2464.0,-0.00043407747931878404
2463.0,-0.0003906892499099257
2462.0,-0.0003472966853634851
2461.0,-0.00030389978481260016
2460.0,-0.0002604985473904087
2459.0,-0.0002604985473904087
2458.0,-0.0002604985473904087
2457.0,-0.0002604985473904087
2456.0,-0.00030389978481260016
2455.0,-0.00030389978481260016
2454.0,-0.0003472966853634851
2453.0,-0.00030389978481260016
2452.0,-0.00030389978481260016
2451.0,-0.0002604985473904087
2450.0,-0.00021709297223004853
2449.0,-0.00021709297223004853
2448.0,-0.00021709297223004853
2447.0,-0.0002604985473904087
2446.0,-0.00030389978481260016
2445.0,-0.0003472966853634851
2444.0,-0.00030389978481260016
2443.0,-0.0002604985473904087
2442.0,-0.00021709297223004853
2441.0,-0.00021709297223004853
2440.0,-0.0002604985473904087
2439.0,-0.0003472966853634851
2438.0,-0.0003906892499099257
2437.0,-0.00043407747931878404
2436.0,-0.00043407747931878404
2435.0,-0.0003906892499099257
2434.0,-0.0003472966853634851
2433.0,-0.00030389978481260016
2432.0,-0.00030389978481260016
2431.0,-0.0003472966853634851
2430.0,-0.0003906892499099257
2429.0,-0.0003906892499099257
2428.0,-0.0003906892499099257
2427.0,-0.0003906892499099257
2426.0,-0.0003472966853634851
2425.0,-0.00030389978481260016
2424.0,-0.00021709297223004853
2423.0,-0.00021709297223004853
2422.0,-0.00021709297223004853
2421.0,-0.00021709297223004853
2420.0,-0.00017368305846510168
2419.0,-0.00021709297223004853
2418.0,-0.00030389978481260016
2417.0,-0.0003906892499099257
2416.0,-0.00043407747931878404
2415.0,-0.00043407747931878404
2414.0,-0.0003472966853634851
2413.0,-0.00030389978481260016
2412.0,-0.00021709297223004853
2411.0,-0.00013026880522692963
2410.0,-0.00013026880522692963
2409.0,-0.00017368305846510168
2408.0,-0.0002604985473904087
2407.0,-0.0002604985473904087
2406.0,-0.00021709297223004853
2405.0,-8.685021164911433e-05
2404.0,0.0
2403.0,4.343161980746579e-05
2402.0,0.0
2401.0,0.0
2400.0,0.0
2399.0,0.0
2398.0,0.0
2397.0,4.343161980746579e-05
2396.0,8.686758342868472e-05
2395.0,0.0001303078917322953
2394.0,0.00017375254558760211
2393.0,0.00021720154586435392
2392.0,0.00026065489343207737
2391.0,0.00030411258916074324
2390.0,0.00043451177401765406
2389.0,0.0006084382809090627
2388.0,0.0007824344698965646
2387.0,0.0009565003968372565
2386.0,0.0011741809597138886
2385.0,0.001348404001626502
2384.0,0.0015662811355310335
2383.0,0.0017842676290416026
2382.0,0.001915112063444413
2381.0,0.0019587356365717845
2380.0,0.0018714928717336043
2379.0,0.0017406615763013722
2378.0,0.0016534626036355249
2377.0,0.0016970599014589638
2376.0,0.0018714928717336043
2375.0,0.0020459959305969555
2374.0,0.0021332737608552588
2373.0,0.0022642234021015284
2372.0,0.0025262411970197185
2371.0,0.0029632891174733444
2370.0,0.0033570086445275926
2369.0,0.0034007772998332353
2368.0,0.0029195645282691363
2367.0,0.002089632653256679
2366.0,0.0012612837441823288
2365.0,0.0009565003968372565
2364.0,0.0016534626036355249
2363.0,0.0030944893043338695
2362.0,0.004671990922590297
2361.0,0.005638848091999105
2360.0,0.005858888873877532
2359.0,0.005462895701502157
2358.0,0.004803708402820517
2357.0,0.004101676353562844
2356.0,0.003619686766589858
2355.0,0.0032694845648473247
2354.0,0.0028758443407954637
2353.0,0.0024388843664115978
2352.0,0.0023078820582733695
2351.0,0.0028321285541661467
2350.0,0.003707281458678491
2349.0,0.004277078004534696
2348.0,0.004233220950025984
2347.0,0.0038387066319929275
2346.0,0.003707281458678491
2345.0,0.0040578370074493275
2344.0,0.004628093971837721
2343.0,0.004935465843858511
2342.0,0.004759798137184523
2341.0,0.0044964297349936455
2340.0,0.0043648054024501
2339.0,0.0044964297349936455
2338.0,0.004452550524862486
2337.0,0.004145520125434121
2336.0,0.0036634819042162814
2335.0,0.0033570086445275926
2334.0,0.0034007772998332353
2333.0,0.003707281458678491
2332.0,0.00401400208620073
2331.0,0.004277078004534696
2330.0,0.004540313378935901
2329.0,0.00489154225525934
2328.0,0.005199100705396198
2327.0,0.005330978174470591
2326.0,0.005243055412371911
2325.0,0.004979393875242044
2324.0,0.004759798137184523
2323.0,0.004715892310740433
2322.0,0.004935465843858511
2321.0,0.005199100705396198
2320.0,0.00537494623139545
2319.0,0.005462895701502157
2318.0,0.005462895701502157
2317.0,0.005506877116487674
2316.0,0.005638848091999105
2315.0,0.00577085918230158
2314.0,0.005946936412324799
2313.0,0.006167133386013823
2312.0,0.006343371384537999
2311.0,0.006387442061109638
2310.0,0.006343371384537999
2309.0,0.00625524344553785
2308.0,0.00625524344553785
2307.0,0.006343371384537999
2306.0,0.006431517210272464
2305.0,0.006475596832934416
2304.0,0.00656376950238835
2303.0,0.006696062080525422
2302.0,0.006784279525863024
2301.0,0.006872514894289861
2300.0,0.006916639301937977
2299.0,0.00696076819309055
2298.0,0.00696076819309055
2297.0,0.007004901568658406
2296.0,0.007049039429553483
2295.0,0.007093181776687496
2294.0,0.007137328610972382
2293.0,0.007137328610972382
2292.0,0.007137328610972382
2291.0,0.007137328610972382
2290.0,0.007049039429553483
2289.0,0.00696076819309055
2288.0,0.006872514894289861
2287.0,0.006872514894289861
2286.0,0.00696076819309055
2285.0,0.007093181776687496
2284.0,0.007181479933320523
2283.0,0.007269796045857202
2282.0,0.007358130121602358
2281.0,0.0074464821678643656
2280.0,0.007490664932224611
2279.0,0.007534852191956709
2278.0,0.0075790439479759275
2277.0,0.00762324020119709
2276.0,0.007667440952535687
2275.0,0.007755855953228474
2274.0,0.007844288957383316
2273.0,0.007932739972333236
2272.0,0.008065450281052211
2271.0,0.008153946355103248
2270.0,0.008198201155356077
2269.0,0.008153946355103248
2268.0,0.008065450281052211
2267.0,0.008065450281052211
2266.0,0.008109696063975047
2265.0,0.008153946355103248
2264.0,0.008198201155356077
2263.0,0.008153946355103248
2262.0,0.008109696063975047
2261.0,0.008109696063975047
2260.0,0.008153946355103248
2259.0,0.008153946355103248
2258.0,0.008153946355103248
2257.0,0.008153946355103248
2256.0,0.008153946355103248
2255.0,0.008153946355103248
2254.0,0.008153946355103248
2253.0,0.008153946355103248
2252.0,0.008153946355103248
2251.0,0.008198201155356077
2250.0,0.008198201155356077
2249.0,0.008198201155356077
2248.0,0.008109696063975047
2247.0,0.008021209005416363
2246.0,0.007932739972333236
2245.0,0.007888512213050314
2244.0,0.007888512213050314
2243.0,0.007932739972333236
2242.0,0.007976972236149349
2241.0,0.008021209005416363
2240.0,0.007976972236149349
2239.0,0.007888512213050314
2238.0,0.007755855953228474
2237.0,0.00762324020119709
2236.0,0.007534852191956709
2235.0,0.007490664932224611
2234.0,0.007534852191956709
2233.0,0.00762324020119709
2232.0,0.007711646202907652
2231.0,0.007755855953228474
2230.0,0.007711646202907652
2229.0,0.00762324020119709
2228.0,0.007534852191956709
2227.0,0.007490664932224611
2226.0,0.0074464821678643656
2225.0,0.0074464821678643656
2224.0,0.007358130121602358
2223.0,0.007181479933320523
2222.0,0.007093181776687496
2221.0,0.007049039429553483
2220.0,0.007049039429553483
2219.0,0.007093181776687496
2218.0,0.007049039429553483
2217.0,0.007004901568658406
2216.0,0.007004901568658406
2215.0,0.007004901568658406
2214.0,0.007004901568658406
2213.0,0.006916639301937977
2212.0,0.006784279525863024
2211.0,0.006651960076740071
2210.0,0.006607862550997545
2209.0,0.006651960076740071
2208.0,0.006696062080525422
2207.0,0.006740168563263094
2206.0,0.006696062080525422
2205.0,0.006607862550997545
2204.0,0.006519680930003435
2203.0,0.006431517210272464
2202.0,0.006431517210272464
2201.0,0.006475596832934416
2200.0,0.006475596832934416
2199.0,0.006519680930003435
2198.0,0.006475596832934416
2197.0,0.006431517210272464
2196.0,0.006343371384537999
2195.0,0.00625524344553785
2194.0,0.00621118618129457
2193.0,0.006167133386013823
2192.0,0.006079041198713275
2191.0,0.006079041198713275
2190.0,0.00612308505878878
2189.0,0.00621118618129457
2188.0,0.00625524344553785
2187.0,0.00625524344553785
2186.0,0.006167133386013823
2185.0,0.00612308505878878
2184.0,0.00612308505878878
2183.0,0.00612308505878878
2182.0,0.006167133386013823
2181.0,0.006167133386013823
2180.0,0.00612308505878878
2179.0,0.006079041198713275
2178.0,0.006035001804881146
2177.0,0.005990966876386672
2176.0,0.005946936412324799
2175.0,0.00590291041179003
2174.0,0.00590291041179003
2173.0,0.005858888873877532
2172.0,0.005858888873877532
2171.0,0.005858888873877532
2170.0,0.005814871797682919
2169.0,0.005814871797682919
2168.0,0.00577085918230158
2167.0,0.005814871797682919
2166.0,0.005814871797682919
2165.0,0.00577085918230158
2164.0,0.005682847330363394
2163.0,0.005594853310833647
2162.0,0.005506877116487674
2161.0,0.00541891874010525
2160.0,0.005330978174470591
2159.0,0.0052870145684298375
2158.0,0.005330978174470591
2157.0,0.00541891874010525
2156.0,0.005506877116487674
2155.0,0.005550862985963967
2154.0,0.005550862985963967
2153.0,0.005506877116487674
2152.0,0.005506877116487674
2151.0,0.005462895701502157
2150.0,0.005462895701502157
2149.0,0.005462895701502157
2148.0,0.00541891874010525
2147.0,0.00537494623139545
2146.0,0.005330978174470591
2145.0,0.005243055412371911
2144.0,0.005111204635089406
2143.0,0.005067263269958211
2142.0,0.005067263269958211
2141.0,0.005155150446602086
2140.0,0.005199100705396198
2139.0,0.005155150446602086
2138.0,0.005111204635089406
2137.0,0.005067263269958211
2136.0,0.005067263269958211
2135.0,0.005067263269958211
2134.0,0.005023326350308999
2133.0,0.004979393875242044
2132.0,0.004935465843858511
2131.0,0.00489154225525934
2130.0,0.00489154225525934
2129.0,0.00484762310854614
2128.0,0.00484762310854614
2127.0,0.00484762310854614
2126.0,0.00484762310854614
2125.0,0.004803708402820517
2124.0,0.004759798137184523
2123.0,0.004671990922590297
2122.0,0.004628093971837721
2121.0,0.004540313378935901
2120.0,0.0044964297349936455
2119.0,0.004452550524862486
2118.0,0.004408675747646695
2117.0,0.004452550524862486
2116.0,0.004540313378935901
2115.0,0.004540313378935901
2114.0,0.004540313378935901
2113.0,0.0044964297349936455
2112.0,0.004452550524862486
2111.0,0.004452550524862486
2110.0,0.004408675747646695
2109.0,0.004408675747646695
2108.0,0.004408675747646695
2107.0,0.0043648054024501
2106.0,0.0043648054024501
2105.0,0.004320939488377862
2104.0,0.004277078004534696
2103.0,0.004233220950025984
2102.0,0.004145520125434121
2101.0,0.004101676353562844
2100.0,0.0040578370074493275
2099.0,0.0040578370074493275
2098.0,0.00401400208620073
2097.0,0.00401400208620073
2096.0,0.0040578370074493275
2095.0,0.0040578370074493275
2094.0,0.0040578370074493275
2093.0,0.0040578370074493275
2092.0,0.00401400208620073
2091.0,0.003970171588923321
2090.0,0.003926345514724705
2089.0,0.0038825238627120395
2088.0,0.0038387066319929275
2087.0,0.0037510854308679953
2086.0,0.0036634819042162814
2085.0,0.0035758960449088217
2084.0,0.0035321097382827737
2083.0,0.0034445503666347133
2082.0,0.0033570086445275926
2081.0,0.0032694845648473247
2080.0,0.0032257291386954545
2079.0,0.0032257291386954545
2078.0,0.0031819781204844855
2077.0,0.0031382315093266833
2076.0,0.0030944893043338695
2075.0,0.003050751504618754
2074.0,0.0030070181092942683
2073.0,0.0029195645282691363
2072.0,0.0028321285541661467
2071.0,0.0027884171674950053
2070.0,0.0027447101798967477
2069.0,0.0027447101798967477
2068.0,0.002701007590486082
2067.0,0.002613615602686581
2066.0,0.0025262411970197185
2065.0,0.002482560585275184
2064.0,0.0025262411970197185
2063.0,0.0025262411970197185
2062.0,0.002569926202528716
2061.0,0.0025262411970197185
2060.0,0.002482560585275184
2059.0,0.002395212539545666
2058.0,0.0022642234021015284
2057.0,0.0021769192542746563
2056.0,0.0021332737608552588
2055.0,0.0021332737608552588
2054.0,0.0021769192542746563
2053.0,0.0021769192542746563
2052.0,0.0022205691343961664
2051.0,0.0022205691343961664
2050.0,0.0022205691343961664
2049.0,0.0021769192542746563
2048.0,0.002089632653256679
2047.0,0.0020023635919956817
2046.0,0.001915112063444413
2045.0,0.001915112063444413
2044.0,0.0018714928717336043
2043.0,0.0018714928717336043
2042.0,0.0018278780605593958
2041.0,0.0016970599014589638
2040.0,0.0015662811355310335
2039.0,0.0014355417390583547
2038.0,0.001348404001626502
2037.0,0.001304841688344327
2036.0,0.001304841688344327
2035.0,0.0012612837441823288
2034.0,0.0011741809597138886
2033.0,0.0010870956412141197
2032.0,0.0010000277816797354
2031.0,0.0009129773741116676
2030.0,0.000869458712629001
2029.0,0.000869458712629001
2028.0,0.0008259444115150671
2027.0,0.0008259444115150671
2026.0,0.0007389288868995258
2025.0,0.0006954276616513155
2024.0,0.0006519307932786322
2023.0,0.0006519307932786322
2022.0,0.0006084382809090627
2021.0,0.000521466320689834
2020.0,0.0004779868710962365
2019.0,0.0003475746339209884
2018.0,0.00030411258916074324
2017.0,0.00021720154586435392
2016.0,0.0001303078917322953
2015.0,0.0
2014.0,-0.00013026880522692963
2013.0,-0.00021709297223004853
2012.0,-0.00030389978481260016
2011.0,-0.00030389978481260016
2010.0,-0.00030389978481260016
2009.0,-0.00030389978481260016
2008.0,-0.0003472966853634851
2007.0,-0.00043407747931878404
2006.0,-0.0005208409361854294
2005.0,-0.0005642161653756084
2004.0,-0.0006075870628903246
2003.0,-0.0006943158663546001
2002.0,-0.0007376737740329986
2001.0,-0.0007376737740329986
2000.0,-0.0007376737740329986
1999.0,-0.0007376737740329986
1998.0,-0.0008243766056055257
1997.0,-0.0009110621312231615
1996.0,-0.0009543984064577238
1995.0,-0.0009977303577937136
1994.0,-0.0009977303577937136
1993.0,-0.0009977303577937136
1992.0,-0.001041057986093552
1991.0,-0.0010843812922201046
1990.0,-0.0011277002770349043
1989.0,-0.00121432528617893
1988.0,-0.0013009330204178937
1987.0,-0.001344230411601366
1986.0,-0.0013875234866409514
1985.0,-0.0014308122463981832
1984.0,-0.001474096691732818
1983.0,-0.001474096691732818
1982.0,-0.001474096691732818
1981.0,-0.001474096691732818
1980.0,-0.001474096691732818
1979.0,-0.001474096691732818
1978.0,-0.001474096691732818
1977.0,-0.001474096691732818
1976.0,-0.001474096691732818
1975.0,-0.0015173768235041685
1974.0,-0.0016039241497978196
1973.0,-0.0016471913460383014
1972.0,-0.0016471913460383014
1971.0,-0.0016904542321527494
1970.0,-0.0016904542321527494
1969.0,-0.0016904542321527494
1968.0,-0.001776967077439462
1967.0,-0.0018634626925240205
1966.0,-0.0019499410842680476
1965.0,-0.0019931738235303698
1964.0,-0.0019931738235303698
1963.0,-0.0019499410842680476
1962.0,-0.0019499410842680476
1961.0,-0.0019499410842680476
1960.0,-0.0019499410842680476
1959.0,-0.0019931738235303698
1958.0,-0.0020796263931210923
1957.0,-0.0021228462251614566
1956.0,-0.0021228462251614566
1955.0,-0.0021228462251614566
1954.0,-0.0021228462251614566
1953.0,-0.0021660617565077978
1952.0,-0.0022092729880145434
1951.0,-0.0022524799205383417
1950.0,-0.0023820749327607693
1949.0,-0.0024684501283323
1948.0,-0.0024684501283323
1947.0,-0.0024684501283323
1946.0,-0.0024252646779014952
1945.0,-0.0023820749327607693
1944.0,-0.002338880892056583
1943.0,-0.002338880892056583
1942.0,-0.0023820749327607693
1941.0,-0.0024252646779014952
1940.0,-0.0024684501283323
1939.0,-0.0025548081484823015
1938.0,-0.0026411490000399773
1937.0,-0.0027274726898296464
1936.0,-0.0027274726898296464
1935.0,-0.0027274726898296464
1934.0,-0.0027274726898296464
1933.0,-0.002684312989729598
1932.0,-0.002684312989729598
1931.0,-0.0027274726898296464
1930.0,-0.002856926061120646
1929.0,-0.0029863408567849525
1928.0,-0.003029470553618019
1927.0,-0.003029470553618019
1926.0,-0.0029432068763250996
1925.0,-0.002856926061120646
1924.0,-0.002900068611387585
1923.0,-0.0029863408567849525
1922.0,-0.003115717099805959
1921.0,-0.003158833950862139
1920.0,-0.003201946521692367
1919.0,-0.0032450548131470747
1918.0,-0.0033743540197499478
1917.0,-0.0034174452021935586
1916.0,-0.0034174452021935586
1915.0,-0.0033743540197499478
1914.0,-0.0033743540197499478
1913.0,-0.0034174452021935586
1912.0,-0.0034605321095062536
1911.0,-0.003546693102131737
1910.0,-0.003632837004408529
1909.0,-0.003675902548784027
1908.0,-0.003675902548784027
1907.0,-0.003675902548784027
1906.0,-0.0037189638231147626
1905.0,-0.0037189638231147626
1904.0,-0.003762020828246282
1903.0,-0.003762020828246282
1902.0,-0.0037189638231147626
1901.0,-0.003675902548784027
1900.0,-0.0035897671891400584
1899.0,-0.003546693102131737
1898.0,-0.003503614742536687
1897.0,-0.0034605321095062536
1896.0,-0.0034605321095062536
1895.0,-0.003503614742536687
1894.0,-0.003546693102131737
1893.0,-0.003632837004408529
1892.0,-0.003675902548784027
1891.0,-0.003675902548784027
1890.0,-0.003675902548784027
1889.0,-0.003675902548784027
1888.0,-0.003675902548784027
1887.0,-0.003675902548784027
1886.0,-0.003675902548784027
1885.0,-0.0037189638231147626
1884.0,-0.0037189638231147626
1883.0,-0.003762020828246282
1882.0,-0.003805073565025019
1881.0,-0.003762020828246282
1880.0,-0.0037189638231147626
1879.0,-0.003675902548784027
1878.0,-0.003675902548784027
1877.0,-0.003632837004408529
1876.0,-0.003632837004408529
1875.0,-0.003546693102131737
1874.0,-0.0034605321095062536
1873.0,-0.0032881588260753603
1872.0,-0.003115717099805959
1871.0,-0.003029470553618019
1870.0,-0.003115717099805959
1869.0,-0.0032450548131470747
1868.0,-0.0033743540197499478
1867.0,-0.0033743540197499478
1866.0,-0.0032881588260753603
1865.0,-0.003158833950862139
1864.0,-0.0030725959676747294
1863.0,-0.0030725959676747294
1862.0,-0.003115717099805959
1861.0,-0.003158833950862139
1860.0,-0.003201946521692367
1859.0,-0.0032881588260753603
1858.0,-0.0033312585613267665
1857.0,-0.0033743540197499478
1856.0,-0.0034174452021935586
1855.0,-0.0034605321095062536
1854.0,-0.0034174452021935586
1853.0,-0.0033312585613267665
1852.0,-0.0032450548131470747
1851.0,-0.0032881588260753603
1850.0,-0.0033743540197499478
1849.0,-0.0034605321095062536
1848.0,-0.003503614742536687
1847.0,-0.003503614742536687
1846.0,-0.003503614742536687
1845.0,-0.0035897671891400584
1844.0,-0.003762020828246282
1843.0,-0.003934206173708432
1842.0,-0.0039772418455368275
1841.0,-0.0039772418455368275
1840.0,-0.003891166236910326
1839.0,-0.0038481220342978517
1838.0,-0.0038481220342978517
1837.0,-0.0038481220342978517
1836.0,-0.003934206173708432
1835.0,-0.004020273253241502
1834.0,-0.004063300397667113
1833.0,-0.004106323279658319
1832.0,-0.004149341900058889
1831.0,-0.0042783722001624724
1830.0,-0.004407364176330919
1829.0,-0.00445035298922436
1828.0,-0.004407364176330919
1827.0,-0.004321373782642635
1826.0,-0.004364371107751008
1825.0,-0.004493337547274212
1824.0,-0.004622265700782613
1823.0,-0.004708196544336296
1822.0,-0.004751155591001144
1821.0,-0.004794110388711914
1820.0,-0.004794110388711914
1819.0,-0.004837060938309712
1818.0,-0.00488000724063431
1817.0,-0.00488000724063431
1816.0,-0.00488000724063431
1815.0,-0.004922949296525481
1814.0,-0.005008820672367076
1813.0,-0.005094675072548682
1812.0,-0.005137595908863979
1811.0,-0.005223424858135761
1810.0,-0.005309236848516363
1809.0,-0.005309236848516363
1808.0,-0.005352136486216796
1807.0,-0.0054379230508221355
1806.0,-0.005480809979401258
1805.0,-0.005395031886706203
1804.0,-0.005266332972768684
1803.0,-0.005137595908863979
1802.0,-0.005094675072548682
1801.0,-0.005180512503780488
1800.0,-0.005352136486216796
1799.0,-0.005480809979401258
1798.0,-0.005566571133294396
1797.0,-0.005480809979401258
1796.0,-0.005395031886706203
1795.0,-0.005309236848516363
1794.0,-0.005352136486216796
1793.0,-0.005480809979401258
1792.0,-0.005695181118510195
1791.0,-0.005909446494558601
1790.0,-0.006123606211854593
1789.0,-0.006209240537657479
1788.0,-0.006252051369364686
1787.0,-0.006252051369364686
1786.0,-0.006252051369364686
1785.0,-0.0063376603745508575
1784.0,-0.006423252507643085
1783.0,-0.006508827775289827
1782.0,-0.006637159068586307
1781.0,-0.0067226922016847546
1780.0,-0.006765452451992449
1779.0,-0.006765452451992449
1778.0,-0.0067226922016847546
1777.0,-0.00659438618413688
1776.0,-0.0064660422492317515
1775.0,-0.006423252507643085
1774.0,-0.0066799277408255975
1773.0,-0.007021925578680754
1772.0,-0.007235537545951853
1771.0,-0.007235537545951853
1770.0,-0.00710738297405733
1769.0,-0.007021925578680754
1768.0,-0.00710738297405733
1767.0,-0.007235537545951853
1766.0,-0.007278247334244092
1765.0,-0.007192823557040651
1764.0,-0.007021925578680754
1763.0,-0.00697919057427665
1762.0,-0.007064656378331868
1761.0,-0.007150105366684922
1760.0,-0.007064656378331868
1759.0,-0.006850960324272126
1758.0,-0.0066799277408255975
1757.0,-0.0066799277408255975
1756.0,-0.006637159068586307
1755.0,-0.006551609086648202
1754.0,-0.006380458549692936
1753.0,-0.006123606211854593
1752.0,-0.005909446494558601
1751.0,-0.005738042651424635
1750.0,-0.005566571133294396
1749.0,-0.005309236848516363
1748.0,-0.004922949296525481
1747.0,-0.004536317851322913
1746.0,-0.004149341900058889
1745.0,-0.003632837004408529
1744.0,-0.0029863408567849525
1743.0,-0.0022956825549340643
1742.0,-0.0016904542321527494
1741.0,-0.0009543984064577238
1740.0,0.0
1739.0,0.0010870956412141197
1738.0,0.0020459959305969555
1737.0,0.0028758443407954637
1736.0,0.003707281458678491
1735.0,0.004671990922590297
1734.0,0.005946936412324799
1733.0,0.007093181776687496
1732.0,0.008021209005416363
1731.0,0.008906891951112605
1730.0,0.009794384815193347
1729.0,0.010728208358306901
1728.0,0.011574829993696856
1727.0,0.012378417874516323
1726.0,0.013093968619278806
1725.0,0.01385553528947936
1724.0,0.014663358264387139
1723.0,0.01547268665620738
1722.0,0.016058141016111804
1721.0,0.016509028184833463
1720.0,0.016824927962187042
1719.0,0.017186237868137555
1718.0,0.017864505196230507
1717.0,0.018815862601645694
1716.0,0.019632973815224997
1715.0,0.020178569969774962
1714.0,0.020497151212598652
1713.0,0.02067930261797568
1712.0,0.020770406977844713
1711.0,0.020770406977844713
1710.0,0.02081596632558158
1709.0,0.020907099361673565
1708.0,0.020907099361673565
1707.0,0.020724852408976924
1706.0,0.020542681902151694
1705.0,0.02058821736556471
1704.0,0.020633757603838898
1703.0,0.020542681902151694
1702.0,0.02013307743509718
1701.0,0.019723858922159776
1700.0,0.019678413991243593
1699.0,0.019723858922159776
1698.0,0.019678413991243593
1697.0,0.019678413991243593
1696.0,0.019723858922159776
1695.0,0.019723858922159776
1694.0,0.019723858922159776
1693.0,0.019814763052665052
1692.0,0.01990568621470623
1691.0,0.01995115493504329
1690.0,0.020178569969774962
1689.0,0.020542681902151694
1688.0,0.02081596632558158
1687.0,0.02081596632558158
1686.0,0.02058821736556471
1685.0,0.020861530453190058
1684.0,0.02204787879853809
1683.0,0.022871099419317753
1682.0,0.023237476732539397
1681.0,0.02351246269481
1680.0,0.023833499868024743
1679.0,0.024017056287453542
1678.0,0.024108863598207186
1677.0,0.024200690320592466
1676.0,0.024660115394541604
1675.0,0.02521206778644225
1674.0,0.025488307262671706
1673.0,0.02553436426275746
1672.0,0.02562649291857677
1671.0,0.025949097207122573
1670.0,0.02664120011360227
1669.0,0.02751945012352408
1668.0,0.028167720075074953
1667.0,0.02849221828874393
1666.0,0.02858497661500481
1665.0,0.02872415126189476
1664.0,0.029234840219232394
1663.0,0.03025802323714588
1662.0,0.03128362253321426
1661.0,0.03207779326948268
1660.0,0.03282657704446046
1659.0,0.03352973627071565
1658.0,0.034187046963396917
1657.0,0.03475124903287918
1656.0,0.03517488211661135
1655.0,0.035646070707806565
1654.0,0.038151940981675736
1653.0,0.04339941178682327
1652.0,0.04686877481655505
1651.0,0.04827402457540786
1650.0,0.049148541111453614
1649.0,0.05051241005349638
1648.0,0.05379344615721715
1647.0,0.05918479134919874
1646.0,0.06403953101083348
1645.0,0.06706985716921054
1644.0,0.06950943469373039
1643.0,0.07206531825882068
1642.0,0.07499749231902242
1641.0,0.07826151631540124
1640.0,0.08134070657817682
1639.0,0.08375666953466032
1638.0,0.08586848736910624
1637.0,0.08964244272712252
1636.0,0.09674718310604158
1635.0,0.10319830233507843
1634.0,0.10579474085791629
1633.0,0.1061827760325369
1632.0,0.1060718734573931
1631.0,0.10596099919539115
1630.0,0.10596099919539115
1629.0,0.1061827760325369
1628.0,0.10662666975397506
1627.0,0.10640466618011679
1626.0,0.10518567091669917
1625.0,0.10363915453068362
1624.0,0.10292299679057959
1623.0,0.10325338439259446
1622.0,0.10341867249426717
1621.0,0.10281292341984649
1620.0,0.10187842445889239
1619.0,0.1012199867101744
1618.0,0.10204318999304807
1617.0,0.1052410056281079
1616.0,0.10924374808178183
1615.0,0.1117081546434846
1614.0,0.1125514997500463
1613.0,0.11288929687511629
1612.0,0.11350927482751816
1611.0,0.11441264381034388
1610.0,0.11520463605101905
1609.0,0.11565785235294102
1608.0,0.11577123036739612
1607.0,0.11543118508166672
1606.0,0.11424311893073247
1605.0,0.11249522576462212
1604.0,0.1106422631110684
1603.0,0.10862982530385179
1602.0,0.10623823794205656
1601.0,0.10352889952072264
1600.0,0.10067205012234592
1599.0,0.09777947172068524
1598.0,0.09463593123310776
1597.0,0.09140776115243066
1596.0,0.08830984124613894
1595.0,0.08533956941077814
1594.0,0.08238947425013277
1593.0,0.0794592834975203
1592.0,0.07670415934449615
1591.0,0.07406940213152868
1590.0,0.07145053299833615
1589.0,0.06884736147670667
1588.0,0.06636088747507496
1587.0,0.06408986356949264
1586.0,0.06198090252378963
1585.0,0.05998184499233683
1584.0,0.05814087347462649
1583.0,0.05650548409389744
1582.0,0.0549747987575373
1581.0,0.05354773498692689
1580.0,0.05212534510230182
1579.0,0.05065879322950262
1578.0,0.04909991063361274
1577.0,0.047691990337874746
1576.0,0.04682039893436585
1575.0,0.04624030826677128
1574.0,0.04541983725624266
1573.0,0.044312249686494276
1572.0,0.042967683653061695
1571.0,0.04167506835594681
1570.0,0.040672354027829094
1569.0,0.03986232513620536
1568.0,0.039006291057664066
1567.0,0.038057116858612794
1566.0,0.037062711569998186
1565.0,0.0360705779734416
1564.0,0.03526907894637077
1563.0,0.034469056377139484
1562.0,0.033482823553208085
1561.0,0.032031037121307726
1560.0,0.03063068826647264
1559.0,0.0307239045110681
1558.0,0.031003673351687855
1557.0,0.03067729388779794
1556.0,0.03025802323714588
1555.0,0.029792641193145286
1554.0,0.029234840219232394
1553.0,0.02863136320857662
1552.0,0.028075050815808744
1551.0,0.0277045713888604
1550.0,0.02738066094037661
1549.0,0.027010773144651168
1548.0,0.026595025589939425
1547.0,0.026225806029419818
1546.0,0.025902996205869
1545.0,0.02553436426275746
1544.0,0.025074013910237447
1543.0,0.024430342106337877
1542.0,0.023604163388120325
1541.0,0.02300845469384938
1540.0,0.02291687968414724
1539.0,0.02296266477531872
1538.0,0.02291687968414724
1537.0,0.022871099419317753
1536.0,0.022733787572707387
1535.0,0.02255077261765881
1534.0,0.022505030926963654
1533.0,0.022642270454698687
1532.0,0.022505030926963654
1531.0,0.02227639471115217
1530.0,0.02200219004126036
1529.0,0.021773818325474092
1528.0,0.02159120737696063
1527.0,0.021363051615525652
1526.0,0.021043834782408455
1525.0,0.02058821736556471
1524.0,0.020087589665283012
1523.0,0.019632973815224997
1522.0,0.019315025636685412
1521.0,0.01899731005860028
1520.0,0.01858915983411169
1519.0,0.018181392829336396
1518.0,0.017909760704207134
1517.0,0.01768353030793479
1516.0,0.017502630802287644
1515.0,0.017231422748988034
1514.0,0.016915227262211507
1513.0,0.016644385668211692
1512.0,0.01646391839700767
1511.0,0.016373712875465518
1510.0,0.01628352608625061
1509.0,0.016103208673694303
1508.0,0.016238439713835096
1507.0,0.017186237868137555
1506.0,0.01800028587012159
1505.0,0.018181392829336396
1504.0,0.018226681372252695
1503.0,0.018226681372252695
1502.0,0.018045555530026514
1501.0,0.017638298366853045
1500.0,0.017141057687924732
1499.0,0.016644385668211692
1498.0,0.016148281008528276
1497.0,0.01578783323856614
1496.0,0.015562705203923999
1495.0,0.01538268676325183
1494.0,0.015337693809893471
1493.0,0.015292705517326866
1492.0,0.015292705517326866
1491.0,0.015337693809893471
1490.0,0.015337693809893471
1489.0,0.015247721884586563
1488.0,0.014977917890464765
1487.0,0.014753209197138295
1486.0,0.014708281407112
1485.0,0.014753209197138295
1484.0,0.014798141635428141
1483.0,0.014932966849499074
1482.0,0.015067833932588037
1481.0,0.015202742910707112
1480.0,0.015337693809893471
1479.0,0.01538268676325183
1478.0,0.015427684378367834
1477.0,0.01547268665620738
1476.0,0.01547268665620738
1475.0,0.01538268676325183
1474.0,0.015292705517326866
1473.0,0.015292705517326866
1472.0,0.015337693809893471
1471.0,0.015292705517326866
1470.0,0.015247721884586563
1469.0,0.015202742910707112
1468.0,0.015202742910707112
1467.0,0.015202742910707112
1466.0,0.015292705517326866
1465.0,0.015562705203923999
1464.0,0.015877917138889863
1463.0,0.016103208673694303
1462.0,0.01628352608625061
1461.0,0.016509028184833463
1460.0,0.01677978535189717
1459.0,0.01727661233145472
1458.0,0.018136109008649592
1457.0,0.0192242260373785
1456.0,0.019723858922159776
1455.0,0.019769308608968306
1454.0,0.019814763052665052
1453.0,0.01990568621470623
1452.0,0.02004210665933459
1451.0,0.020178569969774962
1450.0,0.020315076172974234
1449.0,0.02045162529590483
1448.0,0.02067930261797568
1447.0,0.02081596632558158
1446.0,0.020907099361673565
1445.0,0.0209982515252789
1444.0,0.0211806132671577
1443.0,0.02140867317992523
1442.0,0.02168250325324883
1441.0,0.021956506090037076
1440.0,0.022230681908425698
1439.0,0.02245929405346514
1438.0,0.022642270454698687
1437.0,0.022871099419317753
1436.0,0.02291687968414724
1435.0,0.022688026603074007
1434.0,0.022322112326006227
1433.0,0.02200219004126036
1432.0,0.021636852916117055
1431.0,0.021271822861508305
1430.0,0.020861530453190058
1429.0,0.020406104151069693
1428.0,0.02004210665933459
1427.0,0.019769308608968306
1426.0,0.019632973815224997
1425.0,0.01958753839310856
1424.0,0.019632973815224997
1423.0,0.019632973815224997
1422.0,0.01954210772389997
1421.0,0.01954210772389997
1420.0,0.019769308608968306
1419.0,0.02036058777709271
1418.0,0.0209982515252789
1417.0,0.02159120737696063
1416.0,0.02227639471115217
1415.0,0.02314585342378117
1414.0,0.024292536462819925
1413.0,0.025856900097785074
1412.0,0.0277045713888604
1411.0,0.029560137048236124
1410.0,0.031096969696171817
1409.0,0.03217132066984485
1408.0,0.03273290844021437
1407.0,0.03282657704446046
1406.0,0.03245202378113787
1405.0,0.03184406285002961
1404.0,0.031096969696171817
1403.0,0.03030458888152676
1402.0,0.029467170231675777
1401.0,0.028677754757187035
1400.0,0.028028723600243666
1399.0,0.027426919073445077
1398.0,0.02682594731702781
1397.0,0.026225806029419818
1396.0,0.025672564576383117
1395.0,0.02512002699306959
1394.0,0.024568191490736968
1393.0,0.023971159908874107
1392.0,0.023466619608062178
1391.0,0.02296266477531872
1390.0,0.02259651912656535
1389.0,0.02227639471115217
1388.0,0.02204787879853809
1387.0,0.021865152601710403
1386.0,0.02168250325324883
1385.0,0.0214542995372613
1384.0,0.021317434843055594
1383.0,0.021271822861508305
1382.0,0.021271822861508305
1381.0,0.021363051615525652
1380.0,0.0214542995372613
1379.0,0.02159120737696063
1378.0,0.02168250325324883
1377.0,0.021728158389364705
1376.0,0.021773818325474092
1375.0,0.021910826943857264
1374.0,0.02204787879853809
1373.0,0.02204787879853809
1372.0,0.021956506090037076
1371.0,0.021773818325474092
1370.0,0.02159120737696063
1369.0,0.021317434843055594
1368.0,0.020907099361673565
1367.0,0.02036058777709271
1366.0,0.019723858922159776
1365.0,0.018906576854070378
1364.0,0.01800028587012159
1363.0,0.017005545341335804
1362.0,0.01596801972881945
1361.0,0.014977917890464765
1360.0,0.01403492169512921
1359.0,0.01318349541446362
1358.0,0.012467797270160563
1357.0,0.011887159731648111
1356.0,0.011396456654336085
1355.0,0.010950843561779777
1354.0,0.010550182333308289
1353.0,0.010194349063173958
1352.0,0.009927665307847056
1351.0,0.00966114521239847
1350.0,0.009527946474380489
1349.0,0.009439170005980158
1348.0,0.009439170005980158
1347.0,0.009483555971770974
1346.0,0.00966114521239847
1345.0,0.009883233932095559
1344.0,0.010149890396819572
1343.0,0.010416710688994968
1342.0,0.010728208358306901
1341.0,0.011039929609661936
1340.0,0.011307297450183107
1339.0,0.011307297450183107
1338.0,0.011039929609661936
1337.0,0.010550182333308289
1336.0,0.009883233932095559
1335.0,0.009172949432521227
1334.0,0.00850811108984062
1333.0,0.007932739972333236
1332.0,0.007490664932224611
1331.0,0.007137328610972382
1330.0,0.006916639301937977
1329.0,0.006740168563263094
1328.0,0.006651960076740071
1327.0,0.00656376950238835
1326.0,0.006607862550997545
1325.0,0.006740168563263094
1324.0,0.00696076819309055
1323.0,0.007269796045857202
1322.0,0.007534852191956709
1321.0,0.007800070204414977
1320.0,0.008065450281052211
1319.0,0.008330992620051436
1318.0,0.008552401996197112
1317.0,0.008773924307505121
1316.0,0.009039900317800775
1315.0,0.009306039320248427
1314.0,0.00966114521239847
1313.0,0.009972101229705377
1312.0,0.010283280051895272
1311.0,0.010550182333308289
1310.0,0.01086177578421088
1309.0,0.01117359295472431
1308.0,0.011530229790124524
1307.0,0.011887159731648111
1306.0,0.012199714248127602
1305.0,0.012557195064198723
1304.0,0.012914970375878188
1303.0,0.013317820220494436
1302.0,0.01381070026317599
1301.0,0.014438812226654996
1300.0,0.015157768594724175
1299.0,0.016013078034810446
1298.0,0.016915227262211507
1297.0,0.017909760704207134
1296.0,0.018951941086827073
1295.0,0.01995115493504329
1294.0,0.020952673052035298
1293.0,0.021956506090037076
1292.0,0.022871099419317753
1291.0,0.023787622882622816
1290.0,0.02461415101053266
1289.0,0.02544225514642018
1288.0,0.026271941311972746
1287.0,0.027010773144651168
1286.0,0.0277045713888604
1285.0,0.02826040911222183
1284.0,0.028770552723758724
1283.0,0.029234840219232394
1282.0,0.02960662792039992
1281.0,0.029885677714903025
1280.0,0.030118356253500123
1279.0,0.030351159519274695
1278.0,0.03063068826647264
1277.0,0.030957032694186815
1276.0,0.03128362253321426
1275.0,0.031657169041054534
1274.0,0.032124554451966825
1273.0,0.03282657704446046
1272.0,0.03371743783253667
1271.0,0.03484535401307465
1270.0,0.03602339000339416
1269.0,0.03720463014276687
1268.0,0.038436537637930535
1267.0,0.03962436858984186
1266.0,0.04081545726880842
1265.0,0.041914151478914974
1264.0,0.04301563225723992
1263.0,0.04397571771932274
1262.0,0.04484161307420642
1261.0,0.045516282844447975
1260.0,0.046047116768076934
1259.0,0.04643358574299339
1258.0,0.04677202844014605
1257.0,0.04701393480294458
1256.0,0.04720755695590784
1255.0,0.04740126547022694
1254.0,0.047595060422975566
1253.0,0.047885915093007325
1252.0,0.048225491918274965
1251.0,0.04875964967565971
1250.0,0.04934311749548925
1249.0,0.04997609347667353
1248.0,0.05065879322950262
1247.0,0.05139145012356372
1246.0,0.05217431555754937
1245.0,0.05305672930217464
1244.0,0.05394093961487645
1243.0,0.05477768336465916
1242.0,0.05561604235915585
1241.0,0.05635711724787096
1240.0,0.05709945885970602
1239.0,0.057743849580535134
1238.0,0.05824018618530458
1237.0,0.05863766428823891
1236.0,0.0588862729628985
1235.0,0.05898575629443026
1234.0,0.059035506507200575
1233.0,0.058936011780097886
1232.0,0.058786812414678646
1231.0,0.05843887976392925
1230.0,0.05794231615860479
1229.0,0.05744631966579017
1228.0,0.05690137699451481
1227.0,0.05635711724787096
1226.0,0.055764156206519866
1225.0,0.055122694036304765
1224.0,0.05443294655761144
1223.0,0.05369514500652506
1222.0,0.05290953578037816
1221.0,0.05222329153526162
1220.0,0.05153812993871654
1219.0,0.050805225762017736
1218.0,0.05012229596312534
1217.0,0.04948910701400333
1216.0,0.04885683989244738
1215.0,0.048225491918274965
1214.0,0.047595060422975566
1213.0,0.04696554274964315
1212.0,0.04638525830935958
1211.0,0.04585401117045196
1210.0,0.04537162249272897
1209.0,0.04488976902944808
1208.0,0.04440844959427559
1207.0,0.04397571771932274
1206.0,0.04344740808260106
1205.0,0.042967683653061695
1204.0,0.04253638427006878
1203.0,0.042201225070002124
1202.0,0.041914151478914974
1201.0,0.04167506835594681
1200.0,0.04153168163305643
1199.0,0.041340572947066834
1198.0,0.041101805289228244
1197.0,0.04086316882962593
1196.0,0.04057697805689475
1195.0,0.040243327009005014
1194.0,0.03995754427315856
1193.0,0.039719535563357944
1192.0,0.03948165721929198
1191.0,0.03924390909822728
1190.0,0.03905380426616856
1189.0,0.03886378261277468
1188.0,0.03876880295533702
1187.0,0.038673844065289176
1186.0,0.03857890593355173
1185.0,0.03848398855105106
1184.0,0.03838909190871931
1183.0,0.038436537637930535
1182.0,0.038531444649213764
1181.0,0.03876880295533702
1180.0,0.03910132267333921
1179.0,0.03938654235209116
1178.0,0.03967194946985697
1177.0,0.039909932095080425
1176.0,0.0402909757535701
1175.0,0.04072004986906119
1174.0,0.041101805289228244
1173.0,0.041436116778032606
1172.0,0.04167506835594681
1171.0,0.0417706858116178
1170.0,0.04181850243505214
1169.0,0.0417706858116178
1168.0,0.04167506835594681
1167.0,0.041579471947481794
1166.0,0.041483896576958834
1165.0,0.041340572947066834
1164.0,0.041149548320321694
1163.0,0.040958607678906356
1162.0,0.04076775094900409
1161.0,0.040672354027829094
1160.0,0.040529297924893015
1159.0,0.04038628892895613
1158.0,0.040243327009005014
1157.0,0.04014804520039483
1156.0,0.04010041213405646
1155.0,0.04014804520039483
1154.0,0.0402909757535701
1153.0,0.04043395336207234
1152.0,0.04062466342415694
1151.0,0.04086316882962593
1150.0,0.041197296600497646
1149.0,0.041579471947481794
1148.0,0.04200982159316968
1147.0,0.04248848854552012
1146.0,0.04301563225723992
1145.0,0.04359142880416744
1144.0,0.04421607108308856
1143.0,0.044937930324967956
1142.0,0.045660991397539874
1141.0,0.04643358574299339
1140.0,0.04715914332429838
1139.0,0.047885915093007325
1138.0,0.048468209457651845
1137.0,0.04909991063361274
1136.0,0.04968383607539972
1135.0,0.05026854768429301
1134.0,0.050805225762017736
1133.0,0.051244819831730126
1132.0,0.05173378011970464
1131.0,0.05227227303668425
1130.0,0.05290953578037816
1129.0,0.053596866100945384
1128.0,0.05438372077326825
1127.0,0.055270639696704205
1126.0,0.05620880107069848
1125.0,0.05724807957018618
1124.0,0.0583395216116076
1123.0,0.05953332233647113
1122.0,0.060730413661268745
1121.0,0.06193081377661436
1120.0,0.06303410289212974
1119.0,0.06403953101083348
1118.0,0.06479513257341862
1117.0,0.06529959828457499
1116.0,0.06560255921901192
1115.0,0.06570359318059427
1114.0,0.06565307326174441
1113.0,0.06545105233385295
1112.0,0.06514819703433927
1111.0,0.06479513257341862
1110.0,0.06454311928839007
1109.0,0.06464390705442691
1108.0,0.06509774167768612
1107.0,0.06590573164451952
1106.0,0.06696850489759454
1105.0,0.06828793294324442
1104.0,0.06976434723371505
1103.0,0.07139934015547578
1102.0,0.07304051161972436
1101.0,0.07473949048056472
1100.0,0.0763933569825408
1099.0,0.07794959783282618
1098.0,0.0794071379151915
1097.0,0.08086958613938555
1096.0,0.0823369756726251
1095.0,0.08370400543686918
1094.0,0.08491689834879956
1093.0,0.08586848736910624
1092.0,0.0867160982395816
1091.0,0.08740600224789441
1090.0,0.08799062441302175
1089.0,0.0884695376928375
1088.0,0.08878910686244668
1087.0,0.08894897967187343
1086.0,0.08900228368935714
1085.0,0.08894897967187343
1084.0,0.08884239126002336
1083.0,0.08862929288386212
1082.0,0.08830984124613894
1081.0,0.08793744441149753
1080.0,0.08745911720936239
1079.0,0.08687520961044104
1078.0,0.0861331881037608
1077.0,0.08512818245994969
1076.0,0.08396738981143059
1075.0,0.08270459905431071
1074.0,0.08144546944972642
1073.0,0.08013774644446192
1072.0,0.0788860261633193
1071.0,0.07753405470158659
1070.0,0.07618627890881036
1069.0,0.07489427319033615
1068.0,0.07365755337434488
1067.0,0.07237303755504598
1066.0,0.07109230975604719
1065.0,0.06971335275448043
1064.0,0.06823711151882228
1063.0,0.06676587128519196
1062.0,0.06545105233385295
1061.0,0.06434161389936577
1060.0,0.06338573802478864
1059.0,0.06253226035662252
1058.0,0.06163040254819374
1057.0,0.06083032037482261
1056.0,0.060081579630943294
1055.0,0.05943371350990989
1054.0,0.058786812414678646
1053.0,0.0582898510583536
1052.0,0.05789269101064454
1051.0,0.05769424710410598
1050.0,0.05764465029232335
1049.0,0.05764465029232335
1048.0,0.057743849580535134
1047.0,0.05784307153250956
1046.0,0.05799194697768684
1045.0,0.058190526991161784
1044.0,0.05843887976392925
1043.0,0.05868737463933793
1042.0,0.058836539841526925
1041.0,0.058936011780097886
1040.0,0.058836539841526925
1039.0,0.05868737463933793
1038.0,0.0583891978463662
1037.0,0.05814087347462649
1036.0,0.05784307153250956
1035.0,0.05749589383191922
1034.0,0.05724807957018618
1033.0,0.056950888991593285
1032.0,0.05665390164340933
1031.0,0.05625823416868636
1030.0,0.055764156206519866
1029.0,0.05522131887649295
1028.0,0.05477768336465916
1027.0,0.05423607688882637
1026.0,0.053596866100945384
1025.0,0.05295859474477971
1024.0,0.0525172634430815
1023.0,0.05261529831525902
1022.0,0.05340037498486727
1021.0,0.05502409158795207
1020.0,0.057396751157843484
1019.0,0.06033101647767336
1018.0,0.06353652599525317
1017.0,0.0665127121512945
1016.0,0.06894915322260897
1015.0,0.07047889936889606
1014.0,0.07083661679493547
1013.0,0.0702746216219956
1012.0,0.06915280831750303
1011.0,0.06777998612288094
1010.0,0.06641148980334699
1009.0,0.06514819703433927
1008.0,0.06403953101083348
1007.0,0.0630843190547461
1006.0,0.062281556382736136
1005.0,0.061580354206806964
1004.0,0.06093025007657582
1003.0,0.06028111764589528
1002.0,0.05963295401433477
1001.0,0.059035506507200575
1000.0,0.058538260652670315
999.0,0.05809122563440061
998.0,0.057743849580535134
997.0,0.05744631966579017
996.0,0.057198533682059516
995.0,0.056950888991593285
994.0,0.05660442349104544
993.0,0.05625823416868636
992.0,0.055961719945581745
991.0,0.05566540802921782
990.0,0.05541863577307371
989.0,0.055122694036304765
988.0,0.05482695382609992
987.0,0.05458065739693696
986.0,0.05443294655761144
985.0,0.05438372077326825
984.0,0.05433450056786593
983.0,0.054186873412661596
982.0,0.05403929642243144
981.0,0.05399011523423525
980.0,0.05394093961487645
979.0,0.053842605077627725
978.0,0.053646002773725554
977.0,0.053449489430144714
976.0,0.053351266093323746
975.0,0.053351266093323746
974.0,0.05340037498486727
973.0,0.05340037498486727
972.0,0.053351266093323746
971.0,0.05325306496641513
970.0,0.0531548860393769
969.0,0.05300765925162776
968.0,0.052762392129333646
967.0,0.052468254304406825
966.0,0.05212534510230182
965.0,0.05188057561946402
964.0,0.05178270644002936
963.0,0.051684859310652254
962.0,0.05153812993871654
961.0,0.05129369109514803
960.0,0.051098239029786274
959.0,0.050805225762017736
958.0,0.05051241005349638
957.0,0.050171041064686284
956.0,0.04982994019179987
955.0,0.04953778109440221
954.0,0.04934311749548925
953.0,0.04919717703534143
952.0,0.049148541111453614
951.0,0.04909991063361274
950.0,0.04900266601119507
949.0,0.048905443158337114
948.0,0.04871106272232795
947.0,0.04851676924770687
946.0,0.04832256265669943
945.0,0.04827402457540786
944.0,0.04827402457540786
943.0,0.04832256265669943
942.0,0.04827402457540786
941.0,0.048128442871635535
940.0,0.047934409814949674
939.0,0.04778894189133087
938.0,0.047643522676209304
937.0,0.047643522676209304
936.0,0.047691990337874746
935.0,0.047691990337874746
934.0,0.047691990337874746
933.0,0.047595060422975566
932.0,0.047595060422975566
931.0,0.047643522676209304
930.0,0.047691990337874746
929.0,0.047691990337874746
928.0,0.047595060422975566
927.0,0.04740126547022694
926.0,0.04720755695590784
925.0,0.047062332249019345
924.0,0.0469171560879138
923.0,0.04672366333269573
922.0,0.04653025674659861
921.0,0.04638525830935958
920.0,0.04633693625290869
919.0,0.04633693625290869
918.0,0.04638525830935958
917.0,0.04638525830935958
916.0,0.04628861957244457
915.0,0.046143701775014145
914.0,0.045902279520810385
913.0,0.04570923829887308
912.0,0.045564513671517703
911.0,0.0454680573730859
910.0,0.0454680573730859
909.0,0.045516282844447975
908.0,0.045660991397539874
907.0,0.04585401117045196
906.0,0.046143701775014145
905.0,0.04643358574299339
904.0,0.04667530361081473
903.0,0.04682039893436585
902.0,0.0469171560879138
901.0,0.047062332249019345
900.0,0.047352830241056854
899.0,0.047691990337874746
898.0,0.047934409814949674
897.0,0.04807992647970649
896.0,0.04803141550708934
895.0,0.047885915093007325
894.0,0.04774046340917959
893.0,0.04774046340917959
892.0,0.0478374257855374
891.0,0.047982909952573705
890.0,0.047982909952573705
889.0,0.047934409814949674
888.0,0.047982909952573705
887.0,0.04827402457540786
886.0,0.04871106272232795
885.0,0.049245818406496555
884.0,0.04978123335813667
883.0,0.05036607620073763
882.0,0.051049389754451946
881.0,0.05192951848105887
880.0,0.05300765925162776
879.0,0.05428528594013993
878.0,0.05566540802921782
877.0,0.0571489934456626
876.0,0.05863766428823891
875.0,0.0601813371786204
874.0,0.061680456657844385
873.0,0.06318476880236723
872.0,0.06449273417528723
871.0,0.06524912533642091
870.0,0.06524912533642091
869.0,0.06454311928839007
868.0,0.06343599486473406
867.0,0.062131203436140536
866.0,0.06103020277710969
865.0,0.060131455540490375
864.0,0.05948351506743288
863.0,0.058936011780097886
862.0,0.0583891978463662
861.0,0.05789269101064454
860.0,0.057396751157843484
859.0,0.056950888991593285
858.0,0.05665390164340933
857.0,0.05650548409389744
856.0,0.05665390164340933
855.0,0.05685187064143715
854.0,0.057049929922901255
853.0,0.057198533682059516
852.0,0.05729763111133224
851.0,0.05744631966579017
850.0,0.057743849580535134
849.0,0.058190526991161784
848.0,0.05868737463933793
847.0,0.05908526241971446
846.0,0.05928434309333741
845.0,0.05918479134919874
844.0,0.058936011780097886
843.0,0.058538260652670315
842.0,0.058190526991161784
841.0,0.05794231615860479
840.0,0.05789269101064454
839.0,0.05794231615860479
838.0,0.05799194697768684
837.0,0.05799194697768684
836.0,0.05789269101064454
835.0,0.05784307153250956
834.0,0.05779345772290467
833.0,0.057743849580535134
832.0,0.05769424710410598
831.0,0.05764465029232335
830.0,0.05754547365752294
829.0,0.05744631966579017
828.0,0.05724807957018618
827.0,0.057049929922901255
826.0,0.05680236993107379
825.0,0.05660442349104544
824.0,0.05650548409389744
823.0,0.05655495097496965
822.0,0.05665390164340933
821.0,0.05680236993107379
820.0,0.056950888991593285
819.0,0.05709945885970602
818.0,0.057198533682059516
817.0,0.05734718830678798
816.0,0.0575950591438934
815.0,0.05789269101064454
814.0,0.05814087347462649
813.0,0.0583395216116076
812.0,0.058538260652670315
811.0,0.058786812414678646
810.0,0.05918479134919874
809.0,0.0595831353183347
808.0,0.05993198626064755
807.0,0.060131455540490375
806.0,0.0601813371786204
805.0,0.0601813371786204
804.0,0.060131455540490375
803.0,0.06003170944866376
802.0,0.06003170944866376
801.0,0.060081579630943294
800.0,0.06028111764589528
799.0,0.060530669156469985
798.0,0.060880282351513104
797.0,0.06133019897732073
796.0,0.06198090252378963
795.0,0.0627329277885873
794.0,0.06363708040225546
793.0,0.06449273417528723
792.0,0.06514819703433927
791.0,0.06565307326174441
790.0,0.06590573164451952
789.0,0.06600683616875758
788.0,0.0658551882075229
787.0,0.0655520510510299
786.0,0.06524912533642091
785.0,0.06514819703433927
784.0,0.06519865825346338
783.0,0.06519865825346338
782.0,0.06514819703433927
781.0,0.06509774167768612
780.0,0.06499684854634524
779.0,0.06479513257341862
778.0,0.06464390705442691
777.0,0.06459351024765114
776.0,0.06464390705442691
775.0,0.06479513257341862
774.0,0.06489597884855036
773.0,0.06494641076893504
772.0,0.06489597884855036
771.0,0.06469430971007495
770.0,0.06449273417528723
769.0,0.06444235490698613
768.0,0.06459351024765114
767.0,0.06464390705442691
766.0,0.06464390705442691
765.0,0.06464390705442691
764.0,0.06479513257341862
763.0,0.06509774167768612
762.0,0.0653500770992892
761.0,0.0655520510510299
760.0,0.06565307326174441
759.0,0.0655520510510299
758.0,0.06529959828457499
757.0,0.06494641076893504
756.0,0.06469430971007495
755.0,0.06444235490698613
754.0,0.06403953101083348
753.0,0.06373765809652254
752.0,0.06353652599525317
751.0,0.06338573802478864
750.0,0.0630843190547461
749.0,0.06268275223750575
748.0,0.06218131530164395
747.0,0.06163040254819374
746.0,0.06128018521761747
745.0,0.0611301784870133
744.0,0.06123017721688262
743.0,0.061380218497318895
742.0,0.06163040254819374
741.0,0.062331685600995
740.0,0.06373765809652254
739.0,0.06575411897692884
738.0,0.06828793294324442
737.0,0.07129697256940304
736.0,0.07473949048056472
735.0,0.07826151631540124
734.0,0.08160266115629988
733.0,0.08481129482684358
732.0,0.08820340956274775
731.0,0.0922125568893839
730.0,0.09696430321150284
729.0,0.10237290870955862
728.0,0.1081838804751396
727.0,0.11396072443355765
726.0,0.11947222180119477
725.0,0.1244757360506914
724.0,0.12866061890013913
723.0,0.1316495003520317
722.0,0.13324021650489182
721.0,0.13347637446715632
720.0,0.13265038281120756
719.0,0.1311792938024825
718.0,0.12953756841108
717.0,0.1280769681176266
716.0,0.12691201440971422
715.0,0.12592425477696523
714.0,0.125054563914468
713.0,0.12430223801979201
712.0,0.12355121312165873
711.0,0.12280148472821018
710.0,0.12216810850710624
709.0,0.1219955297319748
708.0,0.12222565000860186
707.0,0.12257105921178035
706.0,0.12274386688641381
705.0,0.12268625668776156
704.0,0.12239832027072817
703.0,0.12205304837081177
702.0,0.12188051530283239
701.0,0.12216810850710624
700.0,0.12285911021517903
699.0,0.12360893818081231
698.0,0.12424442074194553
697.0,0.1248808345374317
696.0,0.12551818230053358
695.0,0.12592425477696523
694.0,0.12627261935332057
693.0,0.1267375405612734
692.0,0.12737762097471172
691.0,0.1277271537757949
690.0,0.12743585690934855
689.0,0.12679569072295926
688.0,0.1263307072932056
687.0,0.12627261935332057
686.0,0.12667939818460128
685.0,0.1275523522109867
684.0,0.12854382597704617
683.0,0.12930354201075
682.0,0.12971317100740865
681.0,0.13024040521758962
680.0,0.1311205537629121
679.0,0.13194363817695853
678.0,0.1325325121409484
677.0,0.13300418688935212
676.0,0.13365357725039817
675.0,0.13430394008392943
674.0,0.13483678049391368
673.0,0.13513308567147386
672.0,0.13483678049391368
671.0,0.13335827943396006
670.0,0.1308269726783169
669.0,0.12953756841108
668.0,0.13235576609690147
667.0,0.1370342410222376
666.0,0.14068153490288382
665.0,0.1427881576831076
664.0,0.14357322752975565
663.0,0.1432711096171173
662.0,0.1423660148499919
661.0,0.14212497447643746
660.0,0.1430899396992138
659.0,0.14435971910985468
658.0,0.14454141961396383
657.0,0.14363367634075197
656.0,0.14339193156306385
655.0,0.14502632627358292
654.0,0.14813039927023364
653.0,0.15125681810431635
652.0,0.1532918545439932
651.0,0.15428198203334142
650.0,0.1550260618531123
649.0,0.15614457737683884
648.0,0.15726598105173029
647.0,0.15732836623921154
646.0,0.1562068016740874
645.0,0.1550260618531123
644.0,0.15471587365200845
643.0,0.15527437202677397
642.0,0.15676722190199066
641.0,0.15926676538819318
640.0,0.16285365609093994
639.0,0.16685288808721488
638.0,0.1713401034646802
637.0,0.17678668671733244
636.0,0.18309616062433975
635.0,0.18829097330380895
634.0,0.19010375339756092
633.0,0.18882730493344568
632.0,0.18668594105416525
631.0,0.1847544080834369
630.0,0.18329481633348466
629.0,0.18250073813224166
628.0,0.18250073813224166
627.0,0.1832285876666535
626.0,0.18435585086803474
625.0,0.185819018959813
624.0,0.18768839086887623
623.0,0.18963304631837485
622.0,0.19165396425960513
621.0,0.19368433019188647
620.0,0.19524739784953948
619.0,0.19517932127883775
618.0,0.19388788983090888
617.0,0.19341306567219707
616.0,0.19517932127883775
615.0,0.1979107421182673
614.0,0.19983300979863605
613.0,0.20038379551850105
612.0,0.200246033588114
611.0,0.19997064075586568
610.0,0.19997064075586568
609.0,0.20072839165012724
608.0,0.20224787134928923
607.0,0.20342566678957041
606.0,0.20349504844670374
605.0,0.20307892466983124
604.0,0.20280173016104097
603.0,0.20273245916928362
602.0,0.20280173016104097
601.0,0.20370325994820848
600.0,0.20516354218543853
