cm-1,A
4000.0,0.013407393177789162
3999.0,0.013362604389846044
3998.0,0.013317820220494436
3997.0,0.013273040668781544
3996.0,0.013273040668781544
3995.0,0.013273040668781544
3994.0,0.01318349541446362
3993.0,0.013093968619278806
3992.0,0.013004460275618523
3991.0,0.013004460275618523
3990.0,0.013004460275618523
3989.0,0.013049212141483357
3988.0,0.013093968619278806
3987.0,0.013093968619278806
3986.0,0.013093968619278806
3985.0,0.013138729709955221
3984.0,0.01318349541446362
3983.0,0.01318349541446362
3982.0,0.01318349541446362
3981.0,0.01318349541446362
3980.0,0.013138729709955221
3979.0,0.013049212141483357
3978.0,0.012959713020733288
3977.0,0.012914970375878188
3976.0,0.012914970375878188
3975.0,0.013049212141483357
3974.0,0.01322826573375524
3973.0,0.013407393177789162
3972.0,0.013452186585275916
3971.0,0.013407393177789162
3970.0,0.013317820220494436
3969.0,0.01322826573375524
3968.0,0.01318349541446362
3967.0,0.013093968619278806
3966.0,0.012959713020733288
3965.0,0.012870232340102872
3964.0,0.012870232340102872
3963.0,0.012914970375878188
3962.0,0.013004460275618523
3961.0,0.013004460275618523
3960.0,0.012914970375878188
3959.0,0.012780770091995297
3958.0,0.012780770091995297
3957.0,0.012870232340102872
3956.0,0.012959713020733288
3955.0,0.013004460275618523
3954.0,0.012959713020733288
3953.0,0.012870232340102872
3952.0,0.012736045877764557
3951.0,0.01260190086298274
3950.0,0.012512493866907004
3949.0,0.012467797270160563
3948.0,0.012467797270160563
3947.0,0.012467797270160563
3946.0,0.012512493866907004
3945.0,0.012557195064198723
3944.0,0.012557195064198723
3943.0,0.012512493866907004
3942.0,0.012378417874516323
3941.0,0.012289056869694281
3940.0,0.012333735073725371
3939.0,0.012512493866907004
3938.0,0.012736045877764557
3937.0,0.012914970375878188
3936.0,0.012914970375878188
3935.0,0.012780770091995297
3934.0,0.01260190086298274
3933.0,0.012467797270160563
3932.0,0.012333735073725371
3931.0,0.012244383261476699
3930.0,0.012199714248127602
3929.0,0.012199714248127602
3928.0,0.012289056869694281
3927.0,0.012423105273012602
3926.0,0.012512493866907004
3925.0,0.01260190086298274
3924.0,0.012512493866907004
3923.0,0.012333735073725371
3922.0,0.012199714248127602
3921.0,0.01215504982870197
3920.0,0.012199714248127602
3919.0,0.012333735073725371
3918.0,0.012423105273012602
3917.0,0.012467797270160563
3916.0,0.012467797270160563
3915.0,0.012512493866907004
3914.0,0.01264661126420652
3913.0,0.012870232340102872
3912.0,0.013049212141483357
3911.0,0.013049212141483357
3910.0,0.012914970375878188
3909.0,0.012691326268817527
3908.0,0.012333735073725371
3907.0,0.0119764380713403
3906.0,0.011619434777991433
3905.0,0.011396456654336085
3904.0,0.011262724711199823
3903.0,0.011262724711199823
3902.0,0.011396456654336085
3901.0,0.011664044143949504
3900.0,0.011931796607364653
3899.0,0.012065734767841452
3898.0,0.012065734767841452
3897.0,0.012021084124518078
3896.0,0.012065734767841452
3895.0,0.012110390002254778
3894.0,0.01215504982870197
3893.0,0.012199714248127602
3892.0,0.012244383261476699
3891.0,0.012065734767841452
3890.0,0.011664044143949504
3889.0,0.011351874764248926
3888.0,0.011351874764248926
3887.0,0.011530229790124524
3886.0,0.011708658092512314
3885.0,0.011619434777991433
3884.0,0.011262724711199823
3883.0,0.011129033935354915
3882.0,0.011351874764248926
3881.0,0.011797899741219142
3880.0,0.012110390002254778
3879.0,0.012021084124518078
3878.0,0.011842527443247208
3877.0,0.011842527443247208
3876.0,0.0119764380713403
3875.0,0.012065734767841452
3874.0,0.011931796607364653
3873.0,0.011619434777991433
3872.0,0.011441043121384498
3871.0,0.011530229790124524
3870.0,0.011753276624621556
3869.0,0.011664044143949504
3868.0,0.011396456654336085
3867.0,0.011307297450183107
3866.0,0.011485634166333858
3865.0,0.011664044143949504
3864.0,0.011797899741219142
3863.0,0.011842527443247208
3862.0,0.011842527443247208
3861.0,0.011931796607364653
3860.0,0.012021084124518078
3859.0,0.011931796607364653
3858.0,0.011485634166333858
3857.0,0.010683695010048622
3856.0,0.00974996707218323
3855.0,0.009306039320248427
3854.0,0.00966114521239847
3853.0,0.01001654169860089
3852.0,0.009972101229705377
3851.0,0.01023881228122181
3850.0,0.011039929609661936
3849.0,0.011842527443247208
3848.0,0.012289056869694281
3847.0,0.012423105273012602
3846.0,0.012378417874516323
3845.0,0.012199714248127602
3844.0,0.011931796607364653
3843.0,0.011619434777991433
3842.0,0.011218156546359825
3841.0,0.01086177578421088
3840.0,0.010683695010048622
3839.0,0.010683695010048622
3838.0,0.010683695010048622
3837.0,0.010639186223752484
3836.0,0.010683695010048622
3835.0,0.010906307389674463
3834.0,0.011307297450183107
3833.0,0.011664044143949504
3832.0,0.011931796607364653
3831.0,0.012021084124518078
3830.0,0.0119764380713403
3829.0,0.0119764380713403
3828.0,0.012065734767841452
3827.0,0.012244383261476699
3826.0,0.012244383261476699
3825.0,0.012021084124518078
3824.0,0.011708658092512314
3823.0,0.011530229790124524
3822.0,0.011619434777991433
3821.0,0.011664044143949504
3820.0,0.011307297450183107
3819.0,0.010906307389674463
3818.0,0.011084479487313281
3817.0,0.011664044143949504
3816.0,0.01215504982870197
3815.0,0.012333735073725371
3814.0,0.012289056869694281
3813.0,0.012467797270160563
3812.0,0.012736045877764557
3811.0,0.012870232340102872
3810.0,0.012780770091995297
3809.0,0.012736045877764557
3808.0,0.012780770091995297
3807.0,0.012691326268817527
3806.0,0.01215504982870197
3805.0,0.011485634166333858
3804.0,0.011084479487313281
3803.0,0.01117359295472431
3802.0,0.011485634166333858
3801.0,0.011485634166333858
3800.0,0.011129033935354915
3799.0,0.011039929609661936
3798.0,0.011485634166333858
3797.0,0.012199714248127602
3796.0,0.012736045877764557
3795.0,0.013049212141483357
3794.0,0.01318349541446362
3793.0,0.013317820220494436
3792.0,0.013407393177789162
3791.0,0.013452186585275916
3790.0,0.013362604389846044
3789.0,0.01322826573375524
3788.0,0.013093968619278806
3787.0,0.013004460275618523
3786.0,0.013004460275618523
3785.0,0.012959713020733288
3784.0,0.012825498912458322
3783.0,0.01264661126420652
3782.0,0.01260190086298274
3781.0,0.01264661126420652
3780.0,0.012870232340102872
3779.0,0.013049212141483357
3778.0,0.013049212141483357
3777.0,0.013049212141483357
3776.0,0.013093968619278806
3775.0,0.013093968619278806
3774.0,0.013004460275618523
3773.0,0.012825498912458322
3772.0,0.012691326268817527
3771.0,0.012736045877764557
3770.0,0.012825498912458322
3769.0,0.012736045877764557
3768.0,0.01260190086298274
3767.0,0.01260190086298274
3766.0,0.012780770091995297
3765.0,0.012870232340102872
3764.0,0.012825498912458322
3763.0,0.012780770091995297
3762.0,0.012736045877764557
3761.0,0.012825498912458322
3760.0,0.012914970375878188
3759.0,0.012870232340102872
3758.0,0.01264661126420652
3757.0,0.012333735073725371
3756.0,0.012021084124518078
3755.0,0.011619434777991433
3754.0,0.011129033935354915
3753.0,0.010683695010048622
3752.0,0.010550182333308289
3751.0,0.010594681998483901
3750.0,0.01046119667949763
3749.0,0.010149890396819572
3748.0,0.009927665307847056
3747.0,0.009972101229705377
3746.0,0.01023881228122181
3745.0,0.010728208358306901
3744.0,0.010906307389674463
3743.0,0.010683695010048622
3742.0,0.010728208358306901
3741.0,0.011129033935354915
3740.0,0.011307297450183107
3739.0,0.011129033935354915
3738.0,0.010728208358306901
3737.0,0.01046119667949763
3736.0,0.01046119667949763
3735.0,0.010505687227290839
3734.0,0.010505687227290839
3733.0,0.010639186223752484
3732.0,0.010995384301463185
3731.0,0.011396456654336085
3730.0,0.011753276624621556
3729.0,0.012110390002254778
3728.0,0.012423105273012602
3727.0,0.012736045877764557
3726.0,0.013004460275618523
3725.0,0.013138729709955221
3724.0,0.01322826573375524
3723.0,0.013273040668781544
3722.0,0.013317820220494436
3721.0,0.013317820220494436
3720.0,0.013273040668781544
3719.0,0.013317820220494436
3718.0,0.013317820220494436
3717.0,0.013138729709955221
3716.0,0.012780770091995297
3715.0,0.012333735073725371
3714.0,0.011931796607364653
3713.0,0.011842527443247208
3712.0,0.012021084124518078
3711.0,0.01215504982870197
3710.0,0.012110390002254778
3709.0,0.012199714248127602
3708.0,0.012467797270160563
3707.0,0.012914970375878188
3706.0,0.013273040668781544
3705.0,0.013541787262693505
3704.0,0.013765869865004277
3703.0,0.013945219230304673
3702.0,0.013990068146738865
3701.0,0.01385553528947936
3700.0,0.01372104409400876
3699.0,0.013765869865004277
3698.0,0.014124642691606404
3697.0,0.0144837121472845
3696.0,0.014618439768003144
3695.0,0.01452861671041239
3694.0,0.014214382227394795
3693.0,0.01381070026317599
3692.0,0.013452186585275916
3691.0,0.01322826573375524
3690.0,0.013138729709955221
3689.0,0.013049212141483357
3688.0,0.012959713020733288
3687.0,0.013138729709955221
3686.0,0.013676222949234651
3685.0,0.014214382227394795
3684.0,0.01452861671041239
3683.0,0.0144837121472845
3682.0,0.014259258949925524
3681.0,0.013990068146738865
3680.0,0.013676222949234651
3679.0,0.013317820220494436
3678.0,0.013004460275618523
3677.0,0.013049212141483357
3676.0,0.013362604389846044
3675.0,0.01322826573375524
3674.0,0.012557195064198723
3673.0,0.012199714248127602
3672.0,0.012378417874516323
3671.0,0.012914970375878188
3670.0,0.013407393177789162
3669.0,0.013586594534531482
3668.0,0.013631406429727155
3667.0,0.014079779876432497
3666.0,0.014798141635428141
3665.0,0.015427684378367834
3664.0,0.015742798294583915
3663.0,0.015877917138889863
3662.0,0.01578783323856614
3661.0,0.015607721475734415
3660.0,0.015337693809893471
3659.0,0.015157768594724175
3658.0,0.015157768594724175
3657.0,0.01538268676325183
3656.0,0.015427684378367834
3655.0,0.015067833932588037
3654.0,0.014438812226654996
3653.0,0.013765869865004277
3652.0,0.013093968619278806
3651.0,0.012736045877764557
3650.0,0.012914970375878188
3649.0,0.013138729709955221
3648.0,0.013138729709955221
3647.0,0.01322826573375524
3646.0,0.013676222949234651
3645.0,0.014349026309051105
3644.0,0.015022873584506602
3643.0,0.015562705203923999
3642.0,0.015877917138889863
3641.0,0.016013078034810446
3640.0,0.016013078034810446
3639.0,0.01596801972881945
3638.0,0.015832872853011715
3637.0,0.015697768020096703
3636.0,0.015517693597737248
3635.0,0.01538268676325183
3634.0,0.015202742910707112
3633.0,0.014888020460646079
3632.0,0.014438812226654996
3631.0,0.014124642691606404
3630.0,0.014304140310157809
3629.0,0.014708281407112
3628.0,0.014753209197138295
3627.0,0.014618439768003144
3626.0,0.014888020460646079
3625.0,0.015337693809893471
3624.0,0.015607721475734415
3623.0,0.015517693597737248
3622.0,0.015337693809893471
3621.0,0.015247721884586563
3620.0,0.015337693809893471
3619.0,0.015337693809893471
3618.0,0.015022873584506602
3617.0,0.014618439768003144
3616.0,0.014393916947563534
3615.0,0.014393916947563534
3614.0,0.0144837121472845
3613.0,0.0144837121472845
3612.0,0.014349026309051105
3611.0,0.014214382227394795
3610.0,0.014349026309051105
3609.0,0.014753209197138295
3608.0,0.015247721884586563
3607.0,0.015562705203923999
3606.0,0.015697768020096703
3605.0,0.015742798294583915
3604.0,0.015832872853011715
3603.0,0.015877917138889863
3602.0,0.015922966097169144
3601.0,0.015877917138889863
3600.0,0.015742798294583915
3599.0,0.015562705203923999
3598.0,0.01538268676325183
3597.0,0.015337693809893471
3596.0,0.01547268665620738
3595.0,0.015652742414136167
3594.0,0.015697768020096703
3593.0,0.015607721475734415
3592.0,0.015427684378367834
3591.0,0.015157768594724175
3590.0,0.014977917890464765
3589.0,0.014977917890464765
3588.0,0.015157768594724175
3587.0,0.015247721884586563
3586.0,0.015157768594724175
3585.0,0.015202742910707112
3584.0,0.015427684378367834
3583.0,0.015697768020096703
3582.0,0.015922966097169144
3581.0,0.016058141016111804
3580.0,0.016103208673694303
3579.0,0.016148281008528276
3578.0,0.016193358021584725
3577.0,0.01628352608625061
3576.0,0.01646391839700767
3575.0,0.016644385668211692
3574.0,0.016734647433454652
3573.0,0.016599261819461697
3572.0,0.01628352608625061
3571.0,0.015832872853011715
3570.0,0.015427684378367834
3569.0,0.015202742910707112
3568.0,0.015292705517326866
3567.0,0.015517693597737248
3566.0,0.015607721475734415
3565.0,0.015652742414136167
3564.0,0.015877917138889863
3563.0,0.016238439713835096
3562.0,0.016554142658660398
3561.0,0.016734647433454652
3560.0,0.016824927962187042
3559.0,0.016870075265299933
3558.0,0.016960383953898095
3557.0,0.017005545341335804
3556.0,0.017050711425501408
3555.0,0.017005545341335804
3554.0,0.017005545341335804
3553.0,0.017050711425501408
3552.0,0.017095882207371904
3551.0,0.017005545341335804
3550.0,0.016915227262211507
3549.0,0.016870075265299933
3548.0,0.016870075265299933
3547.0,0.016960383953898095
3546.0,0.017095882207371904
3545.0,0.017231422748988034
3544.0,0.017321806616515723
3543.0,0.017367005605150476
3542.0,0.017367005605150476
3541.0,0.01727661233145472
3540.0,0.017141057687924732
3539.0,0.017095882207371904
3538.0,0.017186237868137555
3537.0,0.017367005605150476
3536.0,0.01759307113620534
3535.0,0.017728766960431575
3534.0,0.01768353030793479
3533.0,0.01759307113620534
3532.0,0.017457417697056554
3531.0,0.01727661233145472
3530.0,0.017141057687924732
3529.0,0.017050711425501408
3528.0,0.017005545341335804
3527.0,0.016915227262211507
3526.0,0.016824927962187042
3525.0,0.016824927962187042
3524.0,0.016870075265299933
3523.0,0.016960383953898095
3522.0,0.016960383953898095
3521.0,0.017005545341335804
3520.0,0.017050711425501408
3519.0,0.017231422748988034
3518.0,0.017412209298337533
3517.0,0.017457417697056554
3516.0,0.017412209298337533
3515.0,0.017321806616515723
3514.0,0.017231422748988034
3513.0,0.017186237868137555
3512.0,0.017186237868137555
3511.0,0.017186237868137555
3510.0,0.01727661233145472
3509.0,0.017321806616515723
3508.0,0.017231422748988034
3507.0,0.017095882207371904
3506.0,0.016915227262211507
3505.0,0.016824927962187042
3504.0,0.016915227262211507
3503.0,0.017005545341335804
3502.0,0.017050711425501408
3501.0,0.017005545341335804
3500.0,0.016960383953898095
3499.0,0.017005545341335804
3498.0,0.017050711425501408
3497.0,0.017095882207371904
3496.0,0.017095882207371904
3495.0,0.017005545341335804
3494.0,0.016915227262211507
3493.0,0.016870075265299933
3492.0,0.016915227262211507
3491.0,0.016960383953898095
3490.0,0.017050711425501408
3489.0,0.017186237868137555
3488.0,0.017367005605150476
3487.0,0.017412209298337533
3486.0,0.017367005605150476
3485.0,0.017186237868137555
3484.0,0.017050711425501408
3483.0,0.017005545341335804
3482.0,0.017005545341335804
3481.0,0.017005545341335804
3480.0,0.017005545341335804
3479.0,0.017050711425501408
3478.0,0.017141057687924732
3477.0,0.01727661233145472
3476.0,0.017412209298337533
3475.0,0.017502630802287644
3474.0,0.017502630802287644
3473.0,0.017412209298337533
3472.0,0.017321806616515723
3471.0,0.01727661233145472
3470.0,0.017186237868137555
3469.0,0.017141057687924732
3468.0,0.017141057687924732
3467.0,0.017231422748988034
3466.0,0.017367005605150476
3465.0,0.017547848615010242
3464.0,0.017774008325325275
3463.0,0.017909760704207134
3462.0,0.017955020928509757
3461.0,0.017909760704207134
3460.0,0.017864505196230507
3459.0,0.017864505196230507
3458.0,0.017955020928509757
3457.0,0.01809082990920774
3456.0,0.018226681372252695
3455.0,0.018362575344230914
3454.0,0.01845319495476394
3453.0,0.01845319495476394
3452.0,0.01831727262871463
3451.0,0.018136109008649592
3450.0,0.018045555530026514
3449.0,0.018136109008649592
3448.0,0.01831727262871463
3447.0,0.018498511851753108
3446.0,0.018543833477873584
3445.0,0.01858915983411169
3444.0,0.018725167293411005
3443.0,0.01899731005860028
3442.0,0.019315025636685412
3441.0,0.01954210772389997
3440.0,0.019678413991243593
3439.0,0.019769308608968306
3438.0,0.019860222254245663
3437.0,0.019996628416253603
3436.0,0.020087589665283012
3435.0,0.02022406727031445
3434.0,0.020406104151069693
3433.0,0.020497151212598652
3432.0,0.020497151212598652
3431.0,0.02036058777709271
3430.0,0.02022406727031445
3429.0,0.02013307743509718
3428.0,0.02013307743509718
3427.0,0.020087589665283012
3426.0,0.019996628416253603
3425.0,0.019769308608968306
3424.0,0.01958753839310856
3423.0,0.019451260640229506
3422.0,0.01940584422377989
3421.0,0.019451260640229506
3420.0,0.01954210772389997
3419.0,0.01954210772389997
3418.0,0.019451260640229506
3417.0,0.019315025636685412
3416.0,0.0190880622231564
3415.0,0.018951941086827073
3414.0,0.018861217359339655
3413.0,0.018815862601645694
3412.0,0.018634490921455527
3411.0,0.01840788278591865
3410.0,0.018136109008649592
3409.0,0.01800028587012159
3408.0,0.01800028587012159
3407.0,0.01800028587012159
3406.0,0.01800028587012159
3405.0,0.017955020928509757
3404.0,0.017864505196230507
3403.0,0.017774008325325275
3402.0,0.01768353030793479
3401.0,0.017502630802287644
3400.0,0.017321806616515723
3399.0,0.01727661233145472
3398.0,0.017321806616515723
3397.0,0.017412209298337533
3396.0,0.017412209298337533
3395.0,0.01727661233145472
3394.0,0.017050711425501408
3393.0,0.016870075265299933
3392.0,0.01677978535189717
3391.0,0.016824927962187042
3390.0,0.016960383953898095
3389.0,0.017141057687924732
3388.0,0.017231422748988034
3387.0,0.017231422748988034
3386.0,0.017186237868137555
3385.0,0.017141057687924732
3384.0,0.017141057687924732
3383.0,0.017186237868137555
3382.0,0.017186237868137555
3381.0,0.017141057687924732
3380.0,0.017050711425501408
3379.0,0.017005545341335804
3378.0,0.017095882207371904
3377.0,0.017186237868137555
3376.0,0.017321806616515723
3375.0,0.017367005605150476
3374.0,0.017321806616515723
3373.0,0.017231422748988034
3372.0,0.017095882207371904
3371.0,0.017005545341335804
3370.0,0.016915227262211507
3369.0,0.016870075265299933
3368.0,0.01677978535189717
3367.0,0.016734647433454652
3366.0,0.016644385668211692
3365.0,0.016644385668211692
3364.0,0.016689514205884493
3363.0,0.016870075265299933
3362.0,0.017005545341335804
3361.0,0.017050711425501408
3360.0,0.016960383953898095
3359.0,0.016870075265299933
3358.0,0.016824927962187042
3357.0,0.016870075265299933
3356.0,0.016870075265299933
3355.0,0.016915227262211507
3354.0,0.016960383953898095
3353.0,0.017050711425501408
3352.0,0.017095882207371904
3351.0,0.017141057687924732
3350.0,0.017141057687924732
3349.0,0.017141057687924732
3348.0,0.017095882207371904
3347.0,0.017005545341335804
3346.0,0.016960383953898095
3345.0,0.017005545341335804
3344.0,0.017050711425501408
3343.0,0.017095882207371904
3342.0,0.017141057687924732
3341.0,0.017231422748988034
3340.0,0.017412209298337533
3339.0,0.017547848615010242
3338.0,0.01759307113620534
3337.0,0.017502630802287644
3336.0,0.017321806616515723
3335.0,0.017141057687924732
3334.0,0.017050711425501408
3333.0,0.017005545341335804
3332.0,0.017005545341335804
3331.0,0.017005545341335804
3330.0,0.016960383953898095
3329.0,0.016915227262211507
3328.0,0.016870075265299933
3327.0,0.016870075265299933
3326.0,0.016870075265299933
3325.0,0.016915227262211507
3324.0,0.016960383953898095
3323.0,0.016960383953898095
3322.0,0.016960383953898095
3321.0,0.016960383953898095
3320.0,0.017005545341335804
3319.0,0.017095882207371904
3318.0,0.017186237868137555
3317.0,0.017186237868137555
3316.0,0.017095882207371904
3315.0,0.016915227262211507
3314.0,0.016689514205884493
3313.0,0.016599261819461697
3312.0,0.016554142658660398
3311.0,0.016599261819461697
3310.0,0.016644385668211692
3309.0,0.016689514205884493
3308.0,0.016689514205884493
3307.0,0.01677978535189717
3306.0,0.016870075265299933
3305.0,0.017005545341335804
3304.0,0.017095882207371904
3303.0,0.017050711425501408
3302.0,0.016960383953898095
3301.0,0.016824927962187042
3300.0,0.016689514205884493
3299.0,0.016689514205884493
3298.0,0.01677978535189717
3297.0,0.016915227262211507
3296.0,0.016960383953898095
3295.0,0.016915227262211507
3294.0,0.016870075265299933
3293.0,0.016824927962187042
3292.0,0.016870075265299933
3291.0,0.016960383953898095
3290.0,0.016960383953898095
3289.0,0.016960383953898095
3288.0,0.016915227262211507
3287.0,0.016870075265299933
3286.0,0.016870075265299933
3285.0,0.016870075265299933
3284.0,0.016824927962187042
3283.0,0.01677978535189717
3282.0,0.016689514205884493
3281.0,0.016554142658660398
3280.0,0.016509028184833463
3279.0,0.01646391839700767
3278.0,0.01646391839700767
3277.0,0.01646391839700767
3276.0,0.016418813294209356
3275.0,0.01646391839700767
3274.0,0.016554142658660398
3273.0,0.016644385668211692
3272.0,0.01677978535189717
3271.0,0.016824927962187042
3270.0,0.01677978535189717
3269.0,0.016824927962187042
3268.0,0.016915227262211507
3267.0,0.017005545341335804
3266.0,0.017005545341335804
3265.0,0.016960383953898095
3264.0,0.016824927962187042
3263.0,0.016824927962187042
3262.0,0.016824927962187042
3261.0,0.016915227262211507
3260.0,0.016960383953898095
3259.0,0.016960383953898095
3258.0,0.016915227262211507
3257.0,0.016870075265299933
3256.0,0.016734647433454652
3255.0,0.016599261819461697
3254.0,0.016554142658660398
3253.0,0.016554142658660398
3252.0,0.016554142658660398
3251.0,0.016554142658660398
3250.0,0.016509028184833463
3249.0,0.01646391839700767
3248.0,0.016418813294209356
3247.0,0.01646391839700767
3246.0,0.016554142658660398
3245.0,0.016554142658660398
3244.0,0.016554142658660398
3243.0,0.01646391839700767
3242.0,0.01632861713980338
3241.0,0.016238439713835096
3240.0,0.016238439713835096
3239.0,0.016373712875465518
3238.0,0.016509028184833463
3237.0,0.016599261819461697
3236.0,0.016554142658660398
3235.0,0.016509028184833463
3234.0,0.01646391839700767
3233.0,0.01646391839700767
3232.0,0.01646391839700767
3231.0,0.016418813294209356
3230.0,0.016418813294209356
3229.0,0.016418813294209356
3228.0,0.016509028184833463
3227.0,0.016554142658660398
3226.0,0.016554142658660398
3225.0,0.01646391839700767
3224.0,0.016418813294209356
3223.0,0.016373712875465518
3222.0,0.016373712875465518
3221.0,0.01632861713980338
3220.0,0.016238439713835096
3219.0,0.016193358021584725
3218.0,0.016193358021584725
3217.0,0.016193358021584725
3216.0,0.016148281008528276
3215.0,0.016058141016111804
3214.0,0.01596801972881945
3213.0,0.015877917138889863
3212.0,0.015922966097169144
3211.0,0.016058141016111804
3210.0,0.016148281008528276
3209.0,0.016193358021584725
3208.0,0.016193358021584725
3207.0,0.016238439713835096
3206.0,0.016238439713835096
3205.0,0.016238439713835096
3204.0,0.016103208673694303
3203.0,0.01596801972881945
3202.0,0.015877917138889863
3201.0,0.015877917138889863
3200.0,0.016013078034810446
3199.0,0.016148281008528276
3198.0,0.01628352608625061
3197.0,0.01632861713980338
3196.0,0.01628352608625061
3195.0,0.016148281008528276
3194.0,0.016103208673694303
3193.0,0.016103208673694303
3192.0,0.016103208673694303
3191.0,0.016103208673694303
3190.0,0.016013078034810446
3189.0,0.015922966097169144
3188.0,0.015877917138889863
3187.0,0.015877917138889863
3186.0,0.015877917138889863
3185.0,0.015832872853011715
3184.0,0.015832872853011715
3183.0,0.015877917138889863
3182.0,0.015877917138889863
3181.0,0.015832872853011715
3180.0,0.01578783323856614
3179.0,0.015697768020096703
3178.0,0.015697768020096703
3177.0,0.015742798294583915
3176.0,0.015832872853011715
3175.0,0.015877917138889863
3174.0,0.015877917138889863
3173.0,0.015877917138889863
3172.0,0.015922966097169144
3171.0,0.01596801972881945
3170.0,0.016013078034810446
3169.0,0.016058141016111804
3168.0,0.016058141016111804
3167.0,0.016058141016111804
3166.0,0.016013078034810446
3165.0,0.016013078034810446
3164.0,0.016013078034810446
3163.0,0.01596801972881945
3162.0,0.01596801972881945
3161.0,0.015922966097169144
3160.0,0.015877917138889863
3159.0,0.015877917138889863
3158.0,0.015922966097169144
3157.0,0.016013078034810446
3156.0,0.016103208673694303
3155.0,0.016148281008528276
3154.0,0.016148281008528276
3153.0,0.016058141016111804
3152.0,0.01596801972881945
3151.0,0.015922966097169144
3150.0,0.016013078034810446
3149.0,0.016148281008528276
3148.0,0.016238439713835096
3147.0,0.01628352608625061
3146.0,0.01632861713980338
3145.0,0.01632861713980338
3144.0,0.01632861713980338
3143.0,0.01628352608625061
3142.0,0.01628352608625061
3141.0,0.01628352608625061
3140.0,0.01632861713980338
3139.0,0.01628352608625061
3138.0,0.016193358021584725
3137.0,0.016058141016111804
3136.0,0.01596801972881945
3135.0,0.016013078034810446
3134.0,0.016193358021584725
3133.0,0.01632861713980338
3132.0,0.016509028184833463
3131.0,0.016599261819461697
3130.0,0.016689514205884493
3129.0,0.016734647433454652
3128.0,0.016734647433454652
3127.0,0.016689514205884493
3126.0,0.016599261819461697
3125.0,0.016509028184833463
3124.0,0.016509028184833463
3123.0,0.01646391839700767
3122.0,0.01646391839700767
3121.0,0.016373712875465518
3120.0,0.01632861713980338
3119.0,0.01628352608625061
3118.0,0.016373712875465518
3117.0,0.016554142658660398
3116.0,0.016734647433454652
3115.0,0.016824927962187042
3114.0,0.016870075265299933
3113.0,0.016960383953898095
3112.0,0.017141057687924732
3111.0,0.017321806616515723
3110.0,0.017502630802287644
3109.0,0.017638298366853045
3108.0,0.017728766960431575
3107.0,0.01781925440359733
3106.0,0.017909760704207134
3105.0,0.01800028587012159
3104.0,0.01809082990920774
3103.0,0.018181392829336396
3102.0,0.018226681372252695
3101.0,0.018181392829336396
3100.0,0.01809082990920774
3099.0,0.01800028587012159
3098.0,0.017909760704207134
3097.0,0.01781925440359733
3096.0,0.017728766960431575
3095.0,0.01768353030793479
3094.0,0.01768353030793479
3093.0,0.017728766960431575
3092.0,0.017774008325325275
3091.0,0.01781925440359733
3090.0,0.017909760704207134
3089.0,0.01800028587012159
3088.0,0.018181392829336396
3087.0,0.01845319495476394
3086.0,0.018679826740892747
3085.0,0.018815862601645694
3084.0,0.018815862601645694
3083.0,0.018770512579999288
3082.0,0.018725167293411005
3081.0,0.018770512579999288
3080.0,0.018815862601645694
3079.0,0.018906576854070378
3078.0,0.018951941086827073
3077.0,0.01899731005860028
3076.0,0.01899731005860028
3075.0,0.019042683770379876
3074.0,0.019042683770379876
3073.0,0.019042683770379876
3072.0,0.019042683770379876
3071.0,0.0190880622231564
3070.0,0.0190880622231564
3069.0,0.0190880622231564
3068.0,0.019042683770379876
3067.0,0.019042683770379876
3066.0,0.01899731005860028
3065.0,0.018906576854070378
3064.0,0.018861217359339655
3063.0,0.018815862601645694
3062.0,0.018815862601645694
3061.0,0.01899731005860028
3060.0,0.019178833355664393
3059.0,0.019360432556262852
3058.0,0.01949668180660491
3057.0,0.01954210772389997
3056.0,0.01958753839310856
3055.0,0.019678413991243593
3054.0,0.019723858922159776
3053.0,0.019678413991243593
3052.0,0.01949668180660491
3051.0,0.0192242260373785
3050.0,0.018861217359339655
3049.0,0.018498511851753108
3048.0,0.018136109008649592
3047.0,0.017864505196230507
3046.0,0.017638298366853045
3045.0,0.017457417697056554
3044.0,0.017367005605150476
3043.0,0.017321806616515723
3042.0,0.01727661233145472
3041.0,0.017231422748988034
3040.0,0.017141057687924732
3039.0,0.016960383953898095
3038.0,0.01677978535189717
3037.0,0.016599261819461697
3036.0,0.01646391839700767
3035.0,0.01646391839700767
3034.0,0.016509028184833463
3033.0,0.016554142658660398
3032.0,0.016689514205884493
3031.0,0.016870075265299933
3030.0,0.017050711425501408
3029.0,0.017186237868137555
3028.0,0.01727661233145472
3027.0,0.017321806616515723
3026.0,0.017412209298337533
3025.0,0.017502630802287644
3024.0,0.01768353030793479
3023.0,0.017864505196230507
3022.0,0.01809082990920774
3021.0,0.01831727262871463
3020.0,0.01858915983411169
3019.0,0.018815862601645694
3018.0,0.019042683770379876
3017.0,0.019178833355664393
3016.0,0.019360432556262852
3015.0,0.01954210772389997
3014.0,0.019723858922159776
3013.0,0.01995115493504329
3012.0,0.02022406727031445
3011.0,0.020542681902151694
3010.0,0.02081596632558158
3009.0,0.021089422824428272
3008.0,0.021317434843055594
3007.0,0.021545566634771474
3006.0,0.021773818325474092
3005.0,0.022093572362881675
3004.0,0.022413561996148967
3003.0,0.022733787572707387
3002.0,0.023100049017062307
3001.0,0.023374947949272418
3000.0,0.02355831062115543
2999.0,0.023695883447997224
2998.0,0.023787622882622816
2997.0,0.023879381700184332
2996.0,0.024017056287453542
2995.0,0.024108863598207186
2994.0,0.024292536462819925
2993.0,0.024522236834125355
2992.0,0.02498200236711723
2991.0,0.02553436426275746
2990.0,0.026041313893296225
2989.0,0.026410376572743033
2988.0,0.02664120011360227
2987.0,0.026872146400301444
2986.0,0.02710321556345563
2985.0,0.02738066094037661
2984.0,0.027750864037404455
2983.0,0.028075050815808744
2982.0,0.028353117935693284
2981.0,0.02863136320857662
2980.0,0.028956208163971375
2979.0,0.02932775731028059
2978.0,0.029746130405213123
2977.0,0.03025802323714588
2976.0,0.030770520137356927
2975.0,0.03133029827960798
2974.0,0.03179733185715028
2973.0,0.03226486821611996
2972.0,0.032686081712916426
2971.0,0.033154576345083564
2970.0,0.03371743783253667
2969.0,0.03432802877989327
2968.0,0.03498654972775217
2967.0,0.03559892883726867
2966.0,0.03602339000339416
2965.0,0.03635381351515665
2964.0,0.03668448861388862
2963.0,0.0371100126082089
2962.0,0.03753595394209874
2961.0,0.03791491948264003
2960.0,0.03810452633214956
2959.0,0.03810452633214956
2958.0,0.03800971255993524
2957.0,0.03786753070176463
2956.0,0.03777276864991497
2955.0,0.037583306554248797
2954.0,0.037251946641359446
2953.0,0.036731748473764814
2952.0,0.03602339000339416
2951.0,0.03531618502395939
2950.0,0.03465716443937783
2949.0,0.034046110897937076
2948.0,0.033482823553208085
2947.0,0.03282657704446046
2946.0,0.032124554451966825
2945.0,0.03137697904301118
2944.0,0.03063068826647264
2943.0,0.029792641193145286
2942.0,0.028956208163971375
2941.0,0.028167720075074953
2940.0,0.02751945012352408
2939.0,0.027056991894431892
2938.0,0.026687379547098322
2937.0,0.026410376572743033
2936.0,0.026087429580295085
2935.0,0.025764722556973707
2934.0,0.025488307262671706
2933.0,0.025258095499050004
2932.0,0.02512002699306959
2931.0,0.025028005701930978
2930.0,0.02498200236711723
2929.0,0.024936003904763915
2928.0,0.024936003904763915
2927.0,0.02498200236711723
2926.0,0.025028005701930978
2925.0,0.025074013910237447
2924.0,0.025074013910237447
2923.0,0.025028005701930978
2922.0,0.024936003904763915
2921.0,0.02475205875931885
2920.0,0.024568191490736968
2919.0,0.02438440203310499
2918.0,0.024246610963712723
2917.0,0.024200690320592466
2916.0,0.024292536462819925
2915.0,0.02438440203310499
2914.0,0.024476287039668643
2913.0,0.024522236834125355
2912.0,0.024476287039668643
2911.0,0.02438440203310499
2910.0,0.024292536462819925
2909.0,0.024246610963712723
2908.0,0.024338466818941473
2907.0,0.02438440203310499
2906.0,0.024430342106337877
2905.0,0.024476287039668643
2904.0,0.024522236834125355
2903.0,0.02461415101053266
2902.0,0.024706084643793647
2901.0,0.024798037742147727
2900.0,0.024890010313838973
2899.0,0.02498200236711723
2898.0,0.025028005701930978
2897.0,0.02512002699306959
2896.0,0.02521206778644225
2895.0,0.025350165561278004
2894.0,0.02544225514642018
2893.0,0.02544225514642018
2892.0,0.02544225514642018
2891.0,0.02544225514642018
2890.0,0.025488307262671706
2889.0,0.02553436426275746
2888.0,0.02553436426275746
2887.0,0.02539620791296726
2886.0,0.02516604495145991
2885.0,0.024936003904763915
2884.0,0.02475205875931885
2883.0,0.024568191490736968
2882.0,0.02438440203310499
2881.0,0.024246610963712723
2880.0,0.024154774532432866
2879.0,0.02406295751688936
2878.0,0.023879381700184332
2877.0,0.023741750742954926
2876.0,0.023604163388120325
2875.0,0.02351246269481
2874.0,0.023466619608062178
2873.0,0.023329119375188556
2872.0,0.023191662661933732
2871.0,0.02300845469384938
2870.0,0.02277955336461468
2869.0,0.02259651912656535
2868.0,0.022413561996148967
2867.0,0.022322112326006227
2866.0,0.022230681908425698
2865.0,0.022139270735302752
2864.0,0.02204787879853809
2863.0,0.02200219004126036
2862.0,0.021956506090037076
2861.0,0.021865152601710403
2860.0,0.021773818325474092
2859.0,0.021728158389364705
2858.0,0.021773818325474092
2857.0,0.021773818325474092
2856.0,0.021773818325474092
2855.0,0.021728158389364705
2854.0,0.02159120737696063
2853.0,0.02140867317992523
2852.0,0.02122621566987748
2851.0,0.0209982515252789
2850.0,0.020724852408976924
2849.0,0.020497151212598652
2848.0,0.02026956933771462
2847.0,0.02013307743509718
2846.0,0.01995115493504329
2845.0,0.019723858922159776
2844.0,0.019451260640229506
2843.0,0.019178833355664393
2842.0,0.018951941086827073
2841.0,0.018906576854070378
2840.0,0.018861217359339655
2839.0,0.018815862601645694
2838.0,0.018725167293411005
2837.0,0.018634490921455527
2836.0,0.018498511851753108
2835.0,0.018362575344230914
2834.0,0.018226681372252695
2833.0,0.018045555530026514
2832.0,0.017955020928509757
2831.0,0.017864505196230507
2830.0,0.017774008325325275
2829.0,0.01768353030793479
2828.0,0.017638298366853045
2827.0,0.017547848615010242
2826.0,0.017502630802287644
2825.0,0.017502630802287644
2824.0,0.017457417697056554
2823.0,0.017412209298337533
2822.0,0.017321806616515723
2821.0,0.01727661233145472
2820.0,0.017231422748988034
2819.0,0.017186237868137555
2818.0,0.017186237868137555
2817.0,0.017141057687924732
2816.0,0.017141057687924732
2815.0,0.017095882207371904
2814.0,0.017050711425501408
2813.0,0.017050711425501408
2812.0,0.017095882207371904
2811.0,0.017231422748988034
2810.0,0.017367005605150476
2809.0,0.017367005605150476
2808.0,0.017231422748988034
2807.0,0.017141057687924732
2806.0,0.017050711425501408
2805.0,0.017005545341335804
2804.0,0.016960383953898095
2803.0,0.016824927962187042
2802.0,0.01677978535189717
2801.0,0.016824927962187042
2800.0,0.016960383953898095
2799.0,0.017050711425501408
2798.0,0.017050711425501408
2797.0,0.016960383953898095
2796.0,0.016824927962187042
2795.0,0.016734647433454652
2794.0,0.016644385668211692
2793.0,0.016554142658660398
2792.0,0.01646391839700767
2791.0,0.016418813294209356
2790.0,0.016418813294209356
2789.0,0.016373712875465518
2788.0,0.016418813294209356
2787.0,0.016418813294209356
2786.0,0.01646391839700767
2785.0,0.01646391839700767
2784.0,0.016418813294209356
2783.0,0.016373712875465518
2782.0,0.01628352608625061
2781.0,0.016193358021584725
2780.0,0.016148281008528276
2779.0,0.016148281008528276
2778.0,0.016148281008528276
2777.0,0.016148281008528276
2776.0,0.016148281008528276
2775.0,0.016148281008528276
2774.0,0.016193358021584725
2773.0,0.016238439713835096
2772.0,0.016238439713835096
2771.0,0.016238439713835096
2770.0,0.016238439713835096
2769.0,0.016193358021584725
2768.0,0.016193358021584725
2767.0,0.016193358021584725
2766.0,0.016238439713835096
2765.0,0.016238439713835096
2764.0,0.016193358021584725
2763.0,0.016103208673694303
2762.0,0.016058141016111804
2761.0,0.016013078034810446
2760.0,0.016013078034810446
2759.0,0.016058141016111804
2758.0,0.016103208673694303
2757.0,0.016103208673694303
2756.0,0.016148281008528276
2755.0,0.016193358021584725
2754.0,0.016148281008528276
2753.0,0.016058141016111804
2752.0,0.01596801972881945
2751.0,0.015832872853011715
2750.0,0.01578783323856614
2749.0,0.015742798294583915
2748.0,0.015697768020096703
2747.0,0.015652742414136167
2746.0,0.015517693597737248
2745.0,0.01547268665620738
2744.0,0.015427684378367834
2743.0,0.015427684378367834
2742.0,0.01547268665620738
2741.0,0.015517693597737248
2740.0,0.015607721475734415
2739.0,0.01578783323856614
2738.0,0.015922966097169144
2737.0,0.016013078034810446
2736.0,0.015922966097169144
2735.0,0.01578783323856614
2734.0,0.015652742414136167
2733.0,0.015562705203923999
2732.0,0.015517693597737248
2731.0,0.01547268665620738
2730.0,0.015427684378367834
2729.0,0.01538268676325183
2728.0,0.01538268676325183
2727.0,0.01538268676325183
2726.0,0.01538268676325183
2725.0,0.01538268676325183
2724.0,0.015292705517326866
2723.0,0.015247721884586563
2722.0,0.015247721884586563
2721.0,0.015202742910707112
2720.0,0.015202742910707112
2719.0,0.015202742910707112
2718.0,0.015202742910707112
2717.0,0.015202742910707112
2716.0,0.015247721884586563
2715.0,0.015247721884586563
2714.0,0.015202742910707112
2713.0,0.015112798935672522
2712.0,0.015022873584506602
2711.0,0.014932966849499074
2710.0,0.014888020460646079
2709.0,0.014888020460646079
2708.0,0.014932966849499074
2707.0,0.014932966849499074
2706.0,0.014932966849499074
2705.0,0.014888020460646079
2704.0,0.014843078722943437
2703.0,0.014798141635428141
2702.0,0.014753209197138295
2701.0,0.014663358264387139
2700.0,0.014663358264387139
2699.0,0.014663358264387139
2698.0,0.014708281407112
2697.0,0.014708281407112
2696.0,0.014663358264387139
2695.0,0.014663358264387139
2694.0,0.014663358264387139
2693.0,0.014663358264387139
2692.0,0.014708281407112
2691.0,0.014753209197138295
2690.0,0.014753209197138295
2689.0,0.014708281407112
2688.0,0.014663358264387139
2687.0,0.014573525916998342
2686.0,0.0144837121472845
2685.0,0.014438812226654996
2684.0,0.0144837121472845
2683.0,0.014618439768003144
2682.0,0.014753209197138295
2681.0,0.014843078722943437
2680.0,0.014798141635428141
2679.0,0.014618439768003144
2678.0,0.0144837121472845
2677.0,0.014393916947563534
2676.0,0.014393916947563534
2675.0,0.014438812226654996
2674.0,0.014438812226654996
2673.0,0.014438812226654996
2672.0,0.014438812226654996
2671.0,0.014438812226654996
2670.0,0.014393916947563534
2669.0,0.014304140310157809
2668.0,0.014214382227394795
2667.0,0.014169510141607944
2666.0,0.014169510141607944
2665.0,0.014169510141607944
2664.0,0.014169510141607944
2663.0,0.014259258949925524
2662.0,0.014304140310157809
2661.0,0.014304140310157809
2660.0,0.014214382227394795
2659.0,0.014079779876432497
2658.0,0.01403492169512921
2657.0,0.014079779876432497
2656.0,0.014124642691606404
2655.0,0.014214382227394795
2654.0,0.014259258949925524
2653.0,0.014349026309051105
2652.0,0.014393916947563534
2651.0,0.014393916947563534
2650.0,0.014393916947563534
2649.0,0.014393916947563534
2648.0,0.014438812226654996
2647.0,0.014438812226654996
2646.0,0.014438812226654996
2645.0,0.014393916947563534
2644.0,0.014304140310157809
2643.0,0.014259258949925524
2642.0,0.014214382227394795
2641.0,0.014214382227394795
2640.0,0.014214382227394795
2639.0,0.014214382227394795
2638.0,0.014169510141607944
2637.0,0.014214382227394795
2636.0,0.014349026309051105
2635.0,0.01452861671041239
2634.0,0.014618439768003144
2633.0,0.014663358264387139
2632.0,0.014573525916998342
2631.0,0.0144837121472845
2630.0,0.014438812226654996
2629.0,0.014393916947563534
2628.0,0.014349026309051105
2627.0,0.014304140310157809
2626.0,0.014304140310157809
2625.0,0.014304140310157809
2624.0,0.014349026309051105
2623.0,0.014349026309051105
2622.0,0.014304140310157809
2621.0,0.014259258949925524
2620.0,0.014259258949925524
2619.0,0.014304140310157809
2618.0,0.014393916947563534
2617.0,0.014438812226654996
2616.0,0.014438812226654996
2615.0,0.014304140310157809
2614.0,0.014214382227394795
2613.0,0.014169510141607944
2612.0,0.014214382227394795
2611.0,0.014259258949925524
2610.0,0.014214382227394795
2609.0,0.014124642691606404
2608.0,0.01403492169512921
2607.0,0.01403492169512921
2606.0,0.014079779876432497
2605.0,0.014169510141607944
2604.0,0.014214382227394795
2603.0,0.014214382227394795
2602.0,0.014124642691606404
2601.0,0.01403492169512921
2600.0,0.01403492169512921
2599.0,0.013990068146738865
2598.0,0.013990068146738865
2597.0,0.013990068146738865
2596.0,0.01403492169512921
2595.0,0.014124642691606404
2594.0,0.014169510141607944
2593.0,0.014169510141607944
2592.0,0.014169510141607944
2591.0,0.014169510141607944
2590.0,0.014214382227394795
2589.0,0.014304140310157809
2588.0,0.014349026309051105
2587.0,0.014304140310157809
2586.0,0.014259258949925524
2585.0,0.014259258949925524
2584.0,0.014259258949925524
2583.0,0.014349026309051105
2582.0,0.0144837121472845
2581.0,0.014573525916998342
2580.0,0.014573525916998342
2579.0,0.014573525916998342
2578.0,0.01452861671041239
2577.0,0.01452861671041239
2576.0,0.01452861671041239
2575.0,0.014573525916998342
2574.0,0.014618439768003144
2573.0,0.014663358264387139
2572.0,0.014663358264387139
2571.0,0.014573525916998342
2570.0,0.014438812226654996
2569.0,0.014304140310157809
2568.0,0.014259258949925524
2567.0,0.014304140310157809
2566.0,0.014349026309051105
2565.0,0.014393916947563534
2564.0,0.014349026309051105
2563.0,0.014304140310157809
2562.0,0.014304140310157809
2561.0,0.014304140310157809
2560.0,0.014304140310157809
2559.0,0.014349026309051105
2558.0,0.014393916947563534
2557.0,0.014438812226654996
2556.0,0.01452861671041239
2555.0,0.014618439768003144
2554.0,0.014708281407112
2553.0,0.014708281407112
2552.0,0.014708281407112
2551.0,0.014618439768003144
2550.0,0.01452861671041239
2549.0,0.0144837121472845
2548.0,0.014438812226654996
2547.0,0.0144837121472845
2546.0,0.0144837121472845
2545.0,0.0144837121472845
2544.0,0.014438812226654996
2543.0,0.014393916947563534
2542.0,0.014393916947563534
2541.0,0.014393916947563534
2540.0,0.014393916947563534
2539.0,0.014393916947563534
2538.0,0.014438812226654996
2537.0,0.014438812226654996
2536.0,0.014438812226654996
2535.0,0.014393916947563534
2534.0,0.014349026309051105
2533.0,0.014349026309051105
2532.0,0.014393916947563534
2531.0,0.014393916947563534
2530.0,0.014393916947563534
2529.0,0.014349026309051105
2528.0,0.014349026309051105
2527.0,0.014349026309051105
2526.0,0.014259258949925524
2525.0,0.014214382227394795
2524.0,0.014214382227394795
2523.0,0.014214382227394795
2522.0,0.014304140310157809
2521.0,0.014349026309051105
2520.0,0.014349026309051105
2519.0,0.014349026309051105
2518.0,0.014349026309051105
2517.0,0.014349026309051105
2516.0,0.014349026309051105
2515.0,0.014304140310157809
2514.0,0.014304140310157809
2513.0,0.014259258949925524
2512.0,0.014169510141607944
2511.0,0.014124642691606404
2510.0,0.01403492169512921
2509.0,0.013945219230304673
2508.0,0.013900374944870508
2507.0,0.01385553528947936
2506.0,0.01381070026317599
2505.0,0.01372104409400876
2504.0,0.013676222949234651
2503.0,0.01372104409400876
2502.0,0.01381070026317599
2501.0,0.01381070026317599
2500.0,0.01385553528947936
2499.0,0.01381070026317599
2498.0,0.013765869865004277
2497.0,0.01372104409400876
2496.0,0.013676222949234651
2495.0,0.013631406429727155
2494.0,0.013631406429727155
2493.0,0.013631406429727155
2492.0,0.013631406429727155
2491.0,0.013676222949234651
2490.0,0.013676222949234651
2489.0,0.013676222949234651
2488.0,0.013586594534531482
2487.0,0.013496984613259544
2486.0,0.013496984613259544
2485.0,0.013496984613259544
2484.0,0.013541787262693505
2483.0,0.013541787262693505
2482.0,0.013496984613259544
2481.0,0.013407393177789162
2480.0,0.013317820220494436
2479.0,0.013273040668781544
2478.0,0.01322826573375524
2477.0,0.01322826573375524
2476.0,0.01322826573375524
2475.0,0.01322826573375524
2474.0,0.01322826573375524
2473.0,0.01322826573375524
2472.0,0.01318349541446362
2471.0,0.01318349541446362
2470.0,0.013093968619278806
2469.0,0.013049212141483357
2468.0,0.013004460275618523
2467.0,0.012914970375878188
2466.0,0.012825498912458322
2465.0,0.012780770091995297
2464.0,0.012825498912458322
2463.0,0.012870232340102872
2462.0,0.012914970375878188
2461.0,0.012870232340102872
2460.0,0.012780770091995297
2459.0,0.012736045877764557
2458.0,0.012736045877764557
2457.0,0.012691326268817527
2456.0,0.012691326268817527
2455.0,0.012691326268817527
2454.0,0.012736045877764557
2453.0,0.012780770091995297
2452.0,0.012870232340102872
2451.0,0.012870232340102872
2450.0,0.012825498912458322
2449.0,0.012736045877764557
2448.0,0.01260190086298274
2447.0,0.012467797270160563
2446.0,0.012467797270160563
2445.0,0.012512493866907004
2444.0,0.012691326268817527
2443.0,0.012780770091995297
2442.0,0.012870232340102872
2441.0,0.012870232340102872
2440.0,0.012914970375878188
2439.0,0.012959713020733288
2438.0,0.012959713020733288
2437.0,0.012914970375878188
2436.0,0.012914970375878188
2435.0,0.012914970375878188
2434.0,0.012914970375878188
2433.0,0.012914970375878188
2432.0,0.012914970375878188
2431.0,0.012959713020733288
2430.0,0.013004460275618523
2429.0,0.013004460275618523
2428.0,0.013049212141483357
2427.0,0.013049212141483357
2426.0,0.013093968619278806
2425.0,0.013138729709955221
2424.0,0.01318349541446362
2423.0,0.01318349541446362
2422.0,0.01318349541446362
2421.0,0.013093968619278806
2420.0,0.013093968619278806
2419.0,0.013093968619278806
2418.0,0.013093968619278806
2417.0,0.013093968619278806
2416.0,0.013138729709955221
2415.0,0.01318349541446362
2414.0,0.013273040668781544
2413.0,0.013273040668781544
2412.0,0.01322826573375524
2411.0,0.01318349541446362
2410.0,0.01318349541446362
2409.0,0.013273040668781544
2408.0,0.013317820220494436
2407.0,0.013407393177789162
2406.0,0.013452186585275916
2405.0,0.013452186585275916
2404.0,0.013452186585275916
2403.0,0.013452186585275916
2402.0,0.013496984613259544
2401.0,0.013541787262693505
2400.0,0.013541787262693505
2399.0,0.013541787262693505
2398.0,0.013452186585275916
2397.0,0.013407393177789162
2396.0,0.013407393177789162
2395.0,0.013452186585275916
2394.0,0.013496984613259544
2393.0,0.013496984613259544
2392.0,0.013541787262693505
2391.0,0.013631406429727155
2390.0,0.013676222949234651
2389.0,0.013676222949234651
2388.0,0.013586594534531482
2387.0,0.013496984613259544
2386.0,0.013452186585275916
2385.0,0.013362604389846044
2384.0,0.013317820220494436
2383.0,0.013317820220494436
2382.0,0.013273040668781544
2381.0,0.01318349541446362
2380.0,0.013049212141483357
2379.0,0.013004460275618523
2378.0,0.013093968619278806
2377.0,0.01322826573375524
2376.0,0.013362604389846044
2375.0,0.013362604389846044
2374.0,0.01322826573375524
2373.0,0.013004460275618523
2372.0,0.013004460275618523
2371.0,0.01322826573375524
2370.0,0.013541787262693505
2369.0,0.013945219230304673
2368.0,0.0144837121472845
2367.0,0.015247721884586563
2366.0,0.015877917138889863
2365.0,0.01578783323856614
2364.0,0.014977917890464765
2363.0,0.014079779876432497
2362.0,0.013765869865004277
2361.0,0.014304140310157809
2360.0,0.015202742910707112
2359.0,0.015697768020096703
2358.0,0.01547268665620738
2357.0,0.014888020460646079
2356.0,0.014573525916998342
2355.0,0.014753209197138295
2354.0,0.015292705517326866
2353.0,0.015832872853011715
2352.0,0.016013078034810446
2351.0,0.01578783323856614
2350.0,0.015157768594724175
2349.0,0.014349026309051105
2348.0,0.01381070026317599
2347.0,0.01372104409400876
2346.0,0.014124642691606404
2345.0,0.014618439768003144
2344.0,0.014888020460646079
2343.0,0.014843078722943437
2342.0,0.014393916947563534
2341.0,0.013496984613259544
2340.0,0.012512493866907004
2339.0,0.011842527443247208
2338.0,0.011619434777991433
2337.0,0.011664044143949504
2336.0,0.011664044143949504
2335.0,0.011485634166333858
2334.0,0.011039929609661936
2333.0,0.010683695010048622
2332.0,0.01077272626946324
2331.0,0.011351874764248926
2330.0,0.011931796607364653
2329.0,0.0119764380713403
2328.0,0.011530229790124524
2327.0,0.010817248744452446
2326.0,0.010283280051895272
2325.0,0.010194349063173958
2324.0,0.010639186223752484
2323.0,0.011351874764248926
2322.0,0.012021084124518078
2321.0,0.012244383261476699
2320.0,0.01215504982870197
2319.0,0.011931796607364653
2318.0,0.011708658092512314
2317.0,0.011574829993696856
2316.0,0.011574829993696856
2315.0,0.011619434777991433
2314.0,0.011708658092512314
2313.0,0.011664044143949504
2312.0,0.011664044143949504
2311.0,0.011753276624621556
2310.0,0.011887159731648111
2309.0,0.012021084124518078
2308.0,0.012065734767841452
2307.0,0.012021084124518078
2306.0,0.011887159731648111
2305.0,0.011619434777991433
2304.0,0.011396456654336085
2303.0,0.011262724711199823
2302.0,0.011218156546359825
2301.0,0.011262724711199823
2300.0,0.011396456654336085
2299.0,0.011530229790124524
2298.0,0.011664044143949504
2297.0,0.011753276624621556
2296.0,0.011797899741219142
2295.0,0.011842527443247208
2294.0,0.011887159731648111
2293.0,0.011931796607364653
2292.0,0.0119764380713403
2291.0,0.012021084124518078
2290.0,0.012110390002254778
2289.0,0.012199714248127602
2288.0,0.012289056869694281
2287.0,0.012289056869694281
2286.0,0.012289056869694281
2285.0,0.012244383261476699
2284.0,0.01215504982870197
2283.0,0.012065734767841452
2282.0,0.012021084124518078
2281.0,0.0119764380713403
2280.0,0.0119764380713403
2279.0,0.0119764380713403
2278.0,0.0119764380713403
2277.0,0.011931796607364653
2276.0,0.011887159731648111
2275.0,0.011887159731648111
2274.0,0.011887159731648111
2273.0,0.011887159731648111
2272.0,0.011931796607364653
2271.0,0.011931796607364653
2270.0,0.011887159731648111
2269.0,0.011842527443247208
2268.0,0.011797899741219142
2267.0,0.011842527443247208
2266.0,0.011842527443247208
2265.0,0.011797899741219142
2264.0,0.011797899741219142
2263.0,0.011753276624621556
2262.0,0.011708658092512314
2261.0,0.011619434777991433
2260.0,0.011574829993696856
2259.0,0.011574829993696856
2258.0,0.011574829993696856
2257.0,0.011619434777991433
2256.0,0.011664044143949504
2255.0,0.011619434777991433
2254.0,0.011619434777991433
2253.0,0.011619434777991433
2252.0,0.011619434777991433
2251.0,0.011574829993696856
2250.0,0.011530229790124524
2249.0,0.011485634166333858
2248.0,0.011396456654336085
2247.0,0.011396456654336085
2246.0,0.011351874764248926
2245.0,0.011351874764248926
2244.0,0.011351874764248926
2243.0,0.011307297450183107
2242.0,0.011262724711199823
2241.0,0.011218156546359825
2240.0,0.011218156546359825
2239.0,0.01117359295472431
2238.0,0.011084479487313281
2237.0,0.010995384301463185
2236.0,0.010906307389674463
2235.0,0.010817248744452446
2234.0,0.010817248744452446
2233.0,0.010817248744452446
2232.0,0.01086177578421088
2231.0,0.01086177578421088
2230.0,0.01086177578421088
2229.0,0.01086177578421088
2228.0,0.010906307389674463
2227.0,0.010950843561779777
2226.0,0.010995384301463185
2225.0,0.010995384301463185
2224.0,0.010950843561779777
2223.0,0.010817248744452446
2222.0,0.010728208358306901
2221.0,0.010639186223752484
2220.0,0.010594681998483901
2219.0,0.010639186223752484
2218.0,0.010639186223752484
2217.0,0.010683695010048622
2216.0,0.010683695010048622
2215.0,0.010683695010048622
2214.0,0.010683695010048622
2213.0,0.010639186223752484
2212.0,0.010594681998483901
2211.0,0.010594681998483901
2210.0,0.010594681998483901
2209.0,0.010594681998483901
2208.0,0.010594681998483901
2207.0,0.010594681998483901
2206.0,0.010594681998483901
2205.0,0.010550182333308289
2204.0,0.010550182333308289
2203.0,0.010550182333308289
2202.0,0.010594681998483901
2201.0,0.010639186223752484
2200.0,0.010683695010048622
2199.0,0.010728208358306901
2198.0,0.01077272626946324
2197.0,0.010728208358306901
2196.0,0.010639186223752484
2195.0,0.010505687227290839
2194.0,0.01037222925484893
2193.0,0.010283280051895272
2192.0,0.010194349063173958
2191.0,0.010149890396819572
2190.0,0.010149890396819572
2189.0,0.010149890396819572
2188.0,0.010194349063173958
2187.0,0.01023881228122181
2186.0,0.010327752376126709
2185.0,0.010327752376126709
2184.0,0.010327752376126709
2183.0,0.010327752376126709
2182.0,0.010283280051895272
2181.0,0.010283280051895272
2180.0,0.010283280051895272
2179.0,0.010283280051895272
2178.0,0.010283280051895272
2177.0,0.010194349063173958
2176.0,0.010149890396819572
2175.0,0.010194349063173958
2174.0,0.01023881228122181
2173.0,0.010327752376126709
2172.0,0.010416710688994968
2171.0,0.010505687227290839
2170.0,0.010505687227290839
2169.0,0.01046119667949763
2168.0,0.01037222925484893
2167.0,0.010327752376126709
2166.0,0.010283280051895272
2165.0,0.010327752376126709
2164.0,0.01037222925484893
2163.0,0.010416710688994968
2162.0,0.01046119667949763
2161.0,0.010505687227290839
2160.0,0.010550182333308289
2159.0,0.010550182333308289
2158.0,0.010550182333308289
2157.0,0.010505687227290839
2156.0,0.010505687227290839
2155.0,0.01046119667949763
2154.0,0.01046119667949763
2153.0,0.01046119667949763
2152.0,0.01046119667949763
2151.0,0.01046119667949763
2150.0,0.010505687227290839
2149.0,0.010550182333308289
2148.0,0.010550182333308289
2147.0,0.010594681998483901
2146.0,0.010550182333308289
2145.0,0.010505687227290839
2144.0,0.010505687227290839
2143.0,0.010550182333308289
2142.0,0.010550182333308289
2141.0,0.010594681998483901
2140.0,0.010639186223752484
2139.0,0.010728208358306901
2138.0,0.01077272626946324
2137.0,0.010817248744452446
2136.0,0.01077272626946324
2135.0,0.010683695010048622
2134.0,0.010594681998483901
2133.0,0.010550182333308289
2132.0,0.010550182333308289
2131.0,0.010594681998483901
2130.0,0.010639186223752484
2129.0,0.010683695010048622
2128.0,0.010817248744452446
2127.0,0.01086177578421088
2126.0,0.01086177578421088
2125.0,0.010728208358306901
2124.0,0.010639186223752484
2123.0,0.010594681998483901
2122.0,0.010639186223752484
2121.0,0.010639186223752484
2120.0,0.010639186223752484
2119.0,0.010639186223752484
2118.0,0.010594681998483901
2117.0,0.010594681998483901
2116.0,0.010550182333308289
2115.0,0.010594681998483901
2114.0,0.010594681998483901
2113.0,0.010550182333308289
2112.0,0.01046119667949763
2111.0,0.010416710688994968
2110.0,0.010416710688994968
2109.0,0.010416710688994968
2108.0,0.010416710688994968
2107.0,0.01037222925484893
2106.0,0.010327752376126709
2105.0,0.01023881228122181
2104.0,0.010149890396819572
2103.0,0.010060986715464404
2102.0,0.010060986715464404
2101.0,0.010105436281226954
2100.0,0.010194349063173958
2099.0,0.010283280051895272
2098.0,0.010283280051895272
2097.0,0.01023881228122181
2096.0,0.010149890396819572
2095.0,0.010060986715464404
2094.0,0.01001654169860089
2093.0,0.009972101229705377
2092.0,0.009972101229705377
2091.0,0.009972101229705377
2090.0,0.009972101229705377
2089.0,0.01001654169860089
2088.0,0.010060986715464404
2087.0,0.01001654169860089
2086.0,0.009972101229705377
2085.0,0.009838807101520963
2084.0,0.00966114521239847
2083.0,0.009572341514736404
2082.0,0.009527946474380489
2081.0,0.009483555971770974
2080.0,0.009439170005980158
2079.0,0.00939478857608056
2078.0,0.009350411681145587
2077.0,0.009306039320248427
2076.0,0.009217308196862062
2075.0,0.009128595198514056
2074.0,0.009039900317800775
2073.0,0.008951223547323472
2072.0,0.008951223547323472
2071.0,0.008906891951112605
2070.0,0.008906891951112605
2069.0,0.008818242332126802
2068.0,0.008773924307505121
2067.0,0.0087296108049002
2066.0,0.0087296108049002
2065.0,0.008773924307505121
2064.0,0.008773924307505121
2063.0,0.008773924307505121
2062.0,0.0087296108049002
2061.0,0.008596697419959609
2060.0,0.008552401996197112
2059.0,0.00850811108984062
2058.0,0.00850811108984062
2057.0,0.00850811108984062
2056.0,0.008463824699968647
2055.0,0.008286724286910463
2054.0,0.008109696063975047
2053.0,0.008021209005416363
2052.0,0.007932739972333236
2051.0,0.007932739972333236
2050.0,0.007932739972333236
2049.0,0.007888512213050314
2048.0,0.007888512213050314
2047.0,0.007888512213050314
2046.0,0.007844288957383316
2045.0,0.007800070204414977
2044.0,0.007800070204414977
2043.0,0.007800070204414977
2042.0,0.007844288957383316
2041.0,0.007800070204414977
2040.0,0.007755855953228474
2039.0,0.007711646202907652
2038.0,0.00762324020119709
2037.0,0.007534852191956709
2036.0,0.007490664932224611
2035.0,0.0074464821678643656
2034.0,0.0074464821678643656
2033.0,0.007490664932224611
2032.0,0.007490664932224611
2031.0,0.007490664932224611
2030.0,0.007490664932224611
2029.0,0.007490664932224611
2028.0,0.007490664932224611
2027.0,0.0074464821678643656
2026.0,0.007402303897961815
2025.0,0.007358130121602358
2024.0,0.007358130121602358
2023.0,0.007402303897961815
2022.0,0.0074464821678643656
2021.0,0.0074464821678643656
2020.0,0.007490664932224611
2019.0,0.007490664932224611
2018.0,0.0075790439479759275
2017.0,0.00762324020119709
2016.0,0.00762324020119709
2015.0,0.00762324020119709
2014.0,0.007534852191956709
2013.0,0.0074464821678643656
2012.0,0.007358130121602358
2011.0,0.007313960837872058
2010.0,0.007269796045857202
2009.0,0.007313960837872058
2008.0,0.007313960837872058
2007.0,0.007402303897961815
2006.0,0.0074464821678643656
2005.0,0.007490664932224611
2004.0,0.007534852191956709
2003.0,0.00762324020119709
2002.0,0.007667440952535687
2001.0,0.007711646202907652
2000.0,0.007711646202907652
1999.0,0.007711646202907652
1998.0,0.007711646202907652
1997.0,0.007755855953228474
1996.0,0.007755855953228474
1995.0,0.007844288957383316
1994.0,0.007932739972333236
1993.0,0.007976972236149349
1992.0,0.008065450281052211
1991.0,0.008153946355103248
1990.0,0.008286724286910463
1989.0,0.008419542825660153
1988.0,0.00850811108984062
1987.0,0.00850811108984062
1986.0,0.008552401996197112
1985.0,0.008552401996197112
1984.0,0.00850811108984062
1983.0,0.00850811108984062
1982.0,0.008463824699968647
1981.0,0.008463824699968647
1980.0,0.008463824699968647
1979.0,0.00850811108984062
1978.0,0.008552401996197112
1977.0,0.008640997362049818
1976.0,0.0087296108049002
1975.0,0.008818242332126802
1974.0,0.008862564879688284
1973.0,0.008906891951112605
1972.0,0.008862564879688284
1971.0,0.008773924307505121
1970.0,0.008773924307505121
1969.0,0.008818242332126802
1968.0,0.008951223547323472
1967.0,0.009128595198514056
1966.0,0.009261671492462709
1965.0,0.009306039320248427
1964.0,0.009306039320248427
1963.0,0.009350411681145587
1962.0,0.00939478857608056
1961.0,0.009483555971770974
1960.0,0.00966114521239847
1959.0,0.009838807101520963
1958.0,0.01001654169860089
1957.0,0.010105436281226954
1956.0,0.01023881228122181
1955.0,0.010327752376126709
1954.0,0.01037222925484893
1953.0,0.010416710688994968
1952.0,0.01046119667949763
1951.0,0.01046119667949763
1950.0,0.01046119667949763
1949.0,0.010416710688994968
1948.0,0.01037222925484893
1947.0,0.01037222925484893
1946.0,0.01037222925484893
1945.0,0.01037222925484893
1944.0,0.01037222925484893
1943.0,0.010283280051895272
1942.0,0.010060986715464404
1941.0,0.00974996707218323
1940.0,0.009439170005980158
1939.0,0.009172949432521227
1938.0,0.008995559669244813
1937.0,0.008862564879688284
1936.0,0.0087296108049002
1935.0,0.008552401996197112
1934.0,0.008242460465651913
1933.0,0.007932739972333236
1932.0,0.007711646202907652
1931.0,0.007534852191956709
1930.0,0.007402303897961815
1929.0,0.007313960837872058
1928.0,0.007225635744644521
1927.0,0.007137328610972382
1926.0,0.007049039429553483
1925.0,0.007004901568658406
1924.0,0.007004901568658406
1923.0,0.007004901568658406
1922.0,0.006916639301937977
1921.0,0.006784279525863024
1920.0,0.006651960076740071
1919.0,0.006519680930003435
1918.0,0.006387442061109638
1917.0,0.00625524344553785
1916.0,0.00612308505878878
1915.0,0.006035001804881146
1914.0,0.00590291041179003
1913.0,0.005726851026829571
1912.0,0.005506877116487674
1911.0,0.00541891874010525
1910.0,0.005330978174470591
1909.0,0.0052870145684298375
1908.0,0.005155150446602086
1907.0,0.005023326350308999
1906.0,0.00484762310854614
1905.0,0.004671990922590297
1904.0,0.0044964297349936455
1903.0,0.0043648054024501
1902.0,0.004277078004534696
1901.0,0.004189368323957332
1900.0,0.004145520125434121
1899.0,0.0040578370074493275
1898.0,0.00401400208620073
1897.0,0.003926345514724705
1896.0,0.0038387066319929275
1895.0,0.0037510854308679953
1894.0,0.0035758960449088217
1893.0,0.0034445503666347133
1892.0,0.0033570086445275926
1891.0,0.0033132443998284966
1890.0,0.0032257291386954545
1889.0,0.0030944893043338695
1888.0,0.0030070181092942683
1887.0,0.0029195645282691363
1886.0,0.0028758443407954637
1885.0,0.0027447101798967477
1884.0,0.002613615602686581
1883.0,0.002569926202528716
1882.0,0.002482560585275184
1881.0,0.002395212539545666
1880.0,0.0023078820582733695
1879.0,0.0022642234021015284
1878.0,0.0022205691343961664
1877.0,0.0021769192542746563
1876.0,0.0021332737608552588
1875.0,0.002089632653256679
1874.0,0.0020459959305969555
1873.0,0.0019587356365717845
1872.0,0.001915112063444413
1871.0,0.001915112063444413
1870.0,0.0019587356365717845
1869.0,0.0020459959305969555
1868.0,0.0020459959305969555
1867.0,0.0020459959305969555
1866.0,0.0019587356365717845
1865.0,0.0018714928717336043
1864.0,0.0017842676290416026
1863.0,0.0016970599014589638
1862.0,0.0016970599014589638
1861.0,0.0016970599014589638
1860.0,0.0016970599014589638
1859.0,0.0016970599014589638
1858.0,0.0016534626036355249
1857.0,0.001609869681952425
1856.0,0.001609869681952425
1855.0,0.001609869681952425
1854.0,0.0016534626036355249
1853.0,0.0016534626036355249
1852.0,0.0016534626036355249
1851.0,0.0017406615763013722
1850.0,0.0018714928717336043
1849.0,0.0019587356365717845
1848.0,0.0020459959305969555
1847.0,0.0022205691343961664
1846.0,0.002482560585275184
1845.0,0.002701007590486082
1844.0,0.0027884171674950053
1843.0,0.0027447101798967477
1842.0,0.002701007590486082
1841.0,0.0026573093983774942
1840.0,0.002613615602686581
1839.0,0.0025262411970197185
1838.0,0.002482560585275184
1837.0,0.0024388843664115978
1836.0,0.002482560585275184
1835.0,0.002482560585275184
1834.0,0.002569926202528716
1833.0,0.002701007590486082
1832.0,0.0028758443407954637
1831.0,0.003050751504618754
1830.0,0.0030944893043338695
1829.0,0.0029195645282691363
1828.0,0.0029195645282691363
1827.0,0.0031382315093266833
1826.0,0.0034007772998332353
1825.0,0.0034007772998332353
1824.0,0.0033132443998284966
1823.0,0.0031819781204844855
1822.0,0.0030944893043338695
1821.0,0.0029632891174733444
1820.0,0.0028321285541661467
1819.0,0.0027447101798967477
1818.0,0.0026573093983774942
1817.0,0.002569926202528716
1816.0,0.002482560585275184
1815.0,0.002395212539545666
1814.0,0.0023078820582733695
1813.0,0.0021769192542746563
1812.0,0.002089632653256679
1811.0,0.0020023635919956817
1810.0,0.001915112063444413
1809.0,0.0018278780605593958
1808.0,0.0017842676290416026
1807.0,0.0017842676290416026
1806.0,0.0017842676290416026
1805.0,0.0016970599014589638
1804.0,0.0016534626036355249
1803.0,0.0016970599014589638
1802.0,0.0017406615763013722
1801.0,0.001609869681952425
1800.0,0.001348404001626502
1799.0,0.0011306361176557367
1798.0,0.0010000277816797354
1797.0,0.0009565003968372565
1796.0,0.0009565003968372565
1795.0,0.0010870956412141197
1794.0,0.0011306361176557367
1793.0,0.0009565003968372565
1792.0,0.0007389288868995258
1791.0,0.0006084382809090627
1790.0,0.0006519307932786322
1789.0,0.0007389288868995258
1788.0,0.0007824344698965646
1787.0,0.000869458712629001
1786.0,0.0009565003968372565
1785.0,0.0009129773741116676
1784.0,0.0008259444115150671
1783.0,0.0008259444115150671
1782.0,0.000869458712629001
1781.0,0.0007824344698965646
1780.0,0.0007389288868995258
1779.0,0.0007824344698965646
1778.0,0.0009129773741116676
1777.0,0.0010435595295137379
1776.0,0.0011306361176557367
1775.0,0.001304841688344327
1774.0,0.0014355417390583547
1773.0,0.0012177301682640973
1772.0,0.000869458712629001
1771.0,0.0009129773741116676
1770.0,0.0014355417390583547
1769.0,0.002089632653256679
1768.0,0.002569926202528716
1767.0,0.0027884171674950053
1766.0,0.0029195645282691363
1765.0,0.0030070181092942683
1764.0,0.0033132443998284966
1763.0,0.003794893821675638
1762.0,0.004320939488377862
1761.0,0.004715892310740433
1760.0,0.005243055412371911
1759.0,0.006079041198713275
1758.0,0.007137328610972382
1757.0,0.008109696063975047
1756.0,0.00908424549391551
1755.0,0.010194349063173958
1754.0,0.011485634166333858
1753.0,0.012959713020733288
1752.0,0.014932966849499074
1751.0,0.01768353030793479
1750.0,0.020952673052035298
1749.0,0.02438440203310499
1748.0,0.028167720075074953
1747.0,0.03235843591698884
1746.0,0.03692083935817303
1745.0,0.04224908912272074
1744.0,0.04866248120408234
1743.0,0.05586292684190197
1742.0,0.06338573802478864
1741.0,0.07206531825882068
1740.0,0.08275714209253371
1739.0,0.09361107884716913
1738.0,0.1017686154869033
1737.0,0.10746019534136453
1736.0,0.11407366019856902
1735.0,0.12726117252733116
1734.0,0.1471541819850033
1733.0,0.163359458427226
1732.0,0.17340694606595197
1731.0,0.18256685588861554
1730.0,0.19341306567219707
1729.0,0.2049546295788751
1728.0,0.21552535623748348
1727.0,0.2251911696892941
1726.0,0.23500240071511946
1725.0,0.24603413413483977
1724.0,0.2582970160422602
1723.0,0.2700257143004443
1722.0,0.2784366816425192
1721.0,0.2827456872374503
1720.0,0.28567024025476706
1719.0,0.29302632382382177
1718.0,0.3086532358651781
1717.0,0.3252306859845737
1716.0,0.3336692556980314
1715.0,0.33611070137733856
1714.0,0.3352640314812949
1713.0,0.3310552655422663
1712.0,0.32358076828164006
1711.0,0.3145269802772408
1710.0,0.30495634117870596
1709.0,0.2940508050897044
1708.0,0.281415279972564
1707.0,0.2679280590001334
1706.0,0.2546128786799913
1705.0,0.2420728168866706
1704.0,0.2296635589048508
1703.0,0.21731243176503368
1702.0,0.20481541031757589
1701.0,0.19239733008350535
1700.0,0.18157614490792118
1699.0,0.17295398299526576
1698.0,0.16557929631846746
1697.0,0.15851539066460685
1696.0,0.1515645446685292
1695.0,0.14502632627358292
1694.0,0.13918303613546223
1693.0,0.13388996015562338
1692.0,0.1287190271420271
1691.0,0.12378215940835768
1690.0,0.11970100857424737
1689.0,0.11645212073195621
1688.0,0.11339648571328764
1687.0,0.11002636159600376
1686.0,0.10662666975397506
1685.0,0.10463271122663809
1684.0,0.10413564875270076
1683.0,0.10270287794050348
1682.0,0.10023419805561384
1681.0,0.09745322068600859
1680.0,0.09458193129745807
1679.0,0.09156860103399356
1678.0,0.08857603462370545
1677.0,0.08576265223225898
1676.0,0.08333553545860273
1675.0,0.0812883346176787
1674.0,0.07925073872429178
1673.0,0.07701518429111709
1672.0,0.07468790850035045
1671.0,0.0725783049495814
1670.0,0.0709900145060387
1669.0,0.06961138175567827
1668.0,0.06798309356579857
1667.0,0.06620911585658007
1666.0,0.06424089625468832
1665.0,0.06223143295006417
1664.0,0.06028111764589528
1663.0,0.05858795962645047
1662.0,0.05724807957018618
1661.0,0.05586292684190197
1660.0,0.05438372077326825
1659.0,0.05286048235717078
1658.0,0.05129369109514803
1657.0,0.04978123335813667
1656.0,0.04841965509660828
1655.0,0.04730440041308315
1654.0,0.04720755695590784
1653.0,0.047643522676209304
1652.0,0.04653025674659861
1651.0,0.04527520902093718
1650.0,0.044312249686494276
1649.0,0.043303435105349175
1648.0,0.042584285277331047
1647.0,0.042344833056508824
1646.0,0.04210551278710151
1645.0,0.04153168163305643
1644.0,0.04081545726880842
1643.0,0.04010041213405646
1642.0,0.03938654235209116
1641.0,0.038673844065289176
1640.0,0.03791491948264003
1639.0,0.03720463014276687
1638.0,0.03663723389626394
1637.0,0.03649550058570927
1636.0,0.03663723389626394
1635.0,0.036401037402758574
1634.0,0.03583468937826462
1633.0,0.03541041251009669
1632.0,0.0349394793888016
1631.0,0.03437503289075727
1630.0,0.0338113190438627
1629.0,0.03334211579824231
1628.0,0.0329671178412978
1627.0,0.032592443402527316
1626.0,0.03235843591698884
1625.0,0.03217132066984485
1624.0,0.032124554451966825
1623.0,0.032124554451966825
1622.0,0.03207779326948268
1621.0,0.03207779326948268
1620.0,0.032124554451966825
1619.0,0.03245202378113787
1618.0,0.03343591590268957
1617.0,0.03526907894637077
1616.0,0.036731748473764814
1615.0,0.037251946641359446
1614.0,0.0371100126082089
1613.0,0.03663723389626394
1612.0,0.03588185684851508
1611.0,0.03484535401307465
1610.0,0.0338113190438627
1609.0,0.03277974021703267
1608.0,0.03184406285002961
1607.0,0.030957032694186815
1606.0,0.030071810571884017
1605.0,0.029234840219232394
1604.0,0.028353117935693284
1603.0,0.027426919073445077
1602.0,0.026595025589939425
1601.0,0.025856900097785074
1600.0,0.02521206778644225
1599.0,0.024568191490736968
1598.0,0.024017056287453542
1597.0,0.02355831062115543
1596.0,0.023191662661933732
1595.0,0.02296266477531872
1594.0,0.02282532397981263
1593.0,0.022733787572707387
1592.0,0.022688026603074007
1591.0,0.022733787572707387
1590.0,0.02291687968414724
1589.0,0.023191662661933732
1588.0,0.02365002099672653
1587.0,0.024430342106337877
1586.0,0.02562649291857677
1585.0,0.027426919073445077
1584.0,0.029885677714903025
1583.0,0.0329671178412978
1582.0,0.03625938114211591
1581.0,0.03924390909822728
1580.0,0.041436116778032606
1579.0,0.04272802000705722
1578.0,0.04287180232318688
1577.0,0.04181850243505214
1576.0,0.03967194946985697
1575.0,0.03720463014276687
1574.0,0.03508070571335731
1573.0,0.0332483359486222
1572.0,0.03147035562516054
1571.0,0.029560137048236124
1570.0,0.0277045713888604
1569.0,0.02613355016462182
1568.0,0.025028005701930978
1567.0,0.024292536462819925
1566.0,0.023604163388120325
1565.0,0.02282532397981263
1564.0,0.022139270735302752
1563.0,0.021636852916117055
1562.0,0.021271822861508305
1561.0,0.020861530453190058
1560.0,0.020497151212598652
1559.0,0.020542681902151694
1558.0,0.01995115493504329
1557.0,0.019451260640229506
1556.0,0.019360432556262852
1555.0,0.019178833355664393
1554.0,0.018861217359339655
1553.0,0.01845319495476394
1552.0,0.018136109008649592
1551.0,0.017909760704207134
1550.0,0.017638298366853045
1549.0,0.017321806616515723
1548.0,0.016915227262211507
1547.0,0.016509028184833463
1546.0,0.016193358021584725
1545.0,0.016013078034810446
1544.0,0.015922966097169144
1543.0,0.015742798294583915
1542.0,0.015517693597737248
1541.0,0.01538268676325183
1540.0,0.015247721884586563
1539.0,0.014932966849499074
1538.0,0.014753209197138295
1537.0,0.014932966849499074
1536.0,0.015022873584506602
1535.0,0.015112798935672522
1534.0,0.015427684378367834
1533.0,0.015832872853011715
1532.0,0.016058141016111804
1531.0,0.016148281008528276
1530.0,0.016148281008528276
1529.0,0.016193358021584725
1528.0,0.016418813294209356
1527.0,0.016644385668211692
1526.0,0.016734647433454652
1525.0,0.016554142658660398
1524.0,0.016238439713835096
1523.0,0.015877917138889863
1522.0,0.015697768020096703
1521.0,0.015607721475734415
1520.0,0.015427684378367834
1519.0,0.015337693809893471
1518.0,0.015337693809893471
1517.0,0.01538268676325183
1516.0,0.015517693597737248
1515.0,0.015742798294583915
1514.0,0.016193358021584725
1513.0,0.016870075265299933
1512.0,0.01800028587012159
1511.0,0.019451260640229506
1510.0,0.021363051615525652
1509.0,0.024154774532432866
1508.0,0.029839156962686353
1507.0,0.03910132267333921
1506.0,0.0454680573730859
1505.0,0.04595055323640551
1504.0,0.0435434165901003
1503.0,0.039767126871487646
1502.0,0.03522197797762394
1501.0,0.030397735151460825
1500.0,0.025856900097785074
1499.0,0.021910826943857264
1498.0,0.018634490921455527
1497.0,0.016193358021584725
1496.0,0.014393916947563534
1495.0,0.013049212141483357
1494.0,0.012199714248127602
1493.0,0.011664044143949504
1492.0,0.011351874764248926
1491.0,0.011039929609661936
1490.0,0.010817248744452446
1489.0,0.010728208358306901
1488.0,0.010683695010048622
1487.0,0.010550182333308289
1486.0,0.010550182333308289
1485.0,0.010728208358306901
1484.0,0.011039929609661936
1483.0,0.011351874764248926
1482.0,0.011708658092512314
1481.0,0.01215504982870197
1480.0,0.01264661126420652
1479.0,0.013049212141483357
1478.0,0.013407393177789162
1477.0,0.013900374944870508
1476.0,0.014393916947563534
1475.0,0.014843078722943437
1474.0,0.01538268676325183
1473.0,0.01628352608625061
1472.0,0.01727661233145472
1471.0,0.017955020928509757
1470.0,0.018543833477873584
1469.0,0.019315025636685412
1468.0,0.02026956933771462
1467.0,0.021545566634771474
1466.0,0.02342078135989012
1465.0,0.026041313893296225
1464.0,0.028770552723758724
1463.0,0.031003673351687855
1462.0,0.03282657704446046
1461.0,0.03461012978487776
1460.0,0.03649550058570927
1459.0,0.03886378261277468
1458.0,0.04263219156847242
1457.0,0.047352830241056854
1456.0,0.050414848673348
1455.0,0.05134256785867963
1454.0,0.05144033789103841
1453.0,0.05134256785867963
1452.0,0.05114709380028648
1451.0,0.05075640943173498
1450.0,0.05036607620073763
1449.0,0.050073556332087765
1448.0,0.04973253198641148
1447.0,0.04939177521576932
1446.0,0.04905128560059957
1445.0,0.04875964967565971
1444.0,0.048468209457651845
1443.0,0.04817696468408794
1442.0,0.04774046340917959
1441.0,0.04725597598510167
1440.0,0.046481918555007384
1439.0,0.0454680573730859
1438.0,0.044071843103049346
1437.0,0.04215336629184985
1436.0,0.03967194946985697
1435.0,0.0369681249461018
1434.0,0.03428102975577918
1433.0,0.03151705144606498
1432.0,0.02863136320857662
1431.0,0.025856900097785074
1430.0,0.023329119375188556
1429.0,0.0211806132671577
1428.0,0.01949668180660491
1427.0,0.01831727262871463
1426.0,0.017457417697056554
1425.0,0.016870075265299933
1424.0,0.016689514205884493
1423.0,0.017005545341335804
1422.0,0.017638298366853045
1421.0,0.018861217359339655
1420.0,0.021363051615525652
1419.0,0.02562649291857677
1418.0,0.030957032694186815
1417.0,0.0369681249461018
1416.0,0.044071843103049346
1415.0,0.05281143447390635
1414.0,0.06348625752110681
1413.0,0.07623803917129979
1412.0,0.09012318200960712
1411.0,0.10292299679057959
1410.0,0.11210151190312767
1409.0,0.11667932161702477
1408.0,0.11662251025166115
1407.0,0.11243895906999102
1406.0,0.10518567091669917
1405.0,0.09674718310604158
1404.0,0.08857603462370545
1403.0,0.08155025759884227
1402.0,0.0756173227980268
1401.0,0.07047889936889606
1400.0,0.06590573164451952
1399.0,0.061830653609679764
1398.0,0.05843887976392925
1397.0,0.05566540802921782
1396.0,0.0531548860393769
1395.0,0.0506099933550872
1394.0,0.047982909952573705
1393.0,0.045516282844447975
1392.0,0.04315950984076644
1391.0,0.041006334969674096
1390.0,0.03914884628031379
1389.0,0.03772539537668518
1388.0,0.036731748473764814
1387.0,0.0360705779734416
1386.0,0.03559892883726867
1385.0,0.03531618502395939
1384.0,0.03531618502395939
1383.0,0.035693217696063595
1382.0,0.03658998431977123
1381.0,0.03796231343498735
1380.0,0.039719535563357944
1379.0,0.0417706858116178
1378.0,0.04387961360698034
1377.0,0.04599883231842972
1376.0,0.04837110616336182
1375.0,0.05119595406718891
1374.0,0.054088483180726676
1373.0,0.056406567231630955
1372.0,0.057743849580535134
1371.0,0.05814087347462649
1370.0,0.05769424710410598
1369.0,0.05625823416868636
1368.0,0.05374429280060267
1367.0,0.05036607620073763
1366.0,0.04643358574299339
1365.0,0.04215336629184985
1364.0,0.03753595394209874
1363.0,0.03282657704446046
1362.0,0.02849221828874393
1361.0,0.025074013910237447
1360.0,0.022413561996148967
1359.0,0.020406104151069693
1358.0,0.018861217359339655
1357.0,0.017728766960431575
1356.0,0.016960383953898095
1355.0,0.01646391839700767
1354.0,0.016238439713835096
1353.0,0.01632861713980338
1352.0,0.016689514205884493
1351.0,0.017321806616515723
1350.0,0.01831727262871463
1349.0,0.019678413991243593
1348.0,0.021363051615525652
1347.0,0.023374947949272418
1346.0,0.02562649291857677
1345.0,0.028028723600243666
1344.0,0.030397735151460825
1343.0,0.03245202378113787
1342.0,0.03428102975577918
1341.0,0.035693217696063595
1340.0,0.03644826642590382
1339.0,0.036117771071222604
1338.0,0.034516075754861264
1337.0,0.032124554451966825
1336.0,0.029281296279810798
1335.0,0.026410376572743033
1334.0,0.023833499868024743
1333.0,0.021728158389364705
1332.0,0.02026956933771462
1331.0,0.01940584422377989
1330.0,0.019133445417920836
1329.0,0.019360432556262852
1328.0,0.019996628416253603
1327.0,0.0209982515252789
1326.0,0.02227639471115217
1325.0,0.023741750742954926
1324.0,0.02539620791296726
1323.0,0.02710321556345563
1322.0,0.028863370523193765
1321.0,0.0307239045110681
1320.0,0.032686081712916426
1319.0,0.03465716443937783
1318.0,0.03658998431977123
1317.0,0.038436537637930535
1316.0,0.040243327009005014
1315.0,0.04215336629184985
1314.0,0.04421607108308856
1313.0,0.046481918555007384
1312.0,0.048905443158337114
1311.0,0.05134256785867963
1310.0,0.053842605077627725
1309.0,0.05650548409389744
1308.0,0.05928434309333741
1307.0,0.06203099704854709
1306.0,0.06469430971007495
1305.0,0.06727263269847072
1304.0,0.07001940948448526
1303.0,0.07304051161972436
1302.0,0.07660053384128362
1301.0,0.08086958613938555
1300.0,0.08597434830367123
1299.0,0.09167586072382083
1298.0,0.09783387072894878
1297.0,0.10435649517592083
1296.0,0.11103465569966264
1295.0,0.11764625361128611
1294.0,0.12407101507707297
1293.0,0.13035765534840538
1292.0,0.13661765155921235
1291.0,0.1427278264359586
1290.0,0.14861933203440336
1289.0,0.15428198203334142
1288.0,0.15976840504189105
1287.0,0.16475346000368907
1286.0,0.16915480769138846
1285.0,0.1730833528150797
1284.0,0.17672144304832926
1283.0,0.17986424812957003
1282.0,0.18250073813224166
1281.0,0.18482086986058133
1280.0,0.18681946741398825
1279.0,0.18842499412940672
1278.0,0.18990195931885712
1277.0,0.19145144875959463
1276.0,0.19327749692381868
1275.0,0.19551981089400727
1274.0,0.19825338078053978
1273.0,0.20210951694165114
1272.0,0.20725821416525125
1271.0,0.2135325232597176
1270.0,0.22069217241641415
1269.0,0.22855951336008817
1268.0,0.23702150913225695
1267.0,0.24580461181016156
1266.0,0.2546128786799913
1265.0,0.26328486639438897
1264.0,0.2717274021049829
1263.0,0.2794272796357391
1262.0,0.28625752159091755
1261.0,0.2923446764688131
1260.0,0.2974833025618495
1259.0,0.3012906505574131
1258.0,0.30381841283147626
1257.0,0.30548254618884374
1256.0,0.30697693207630605
1255.0,0.3082114755973018
1254.0,0.3097152974873705
1253.0,0.31166918188773374
1252.0,0.3144373888417702
1251.0,0.31758413832264143
1250.0,0.32093568187868726
1249.0,0.32477174640693596
1248.0,0.32910504647979
1247.0,0.3335756274812405
1246.0,0.33799812061008283
1245.0,0.34256167729703746
1244.0,0.3471736974389954
1243.0,0.35105481783432757
1242.0,0.35398859040876096
1241.0,0.3561526897002858
1240.0,0.3574365628956122
1239.0,0.3575354797578787
1238.0,0.3562513145404742
1237.0,0.3537923877933149
1236.0,0.35017853677543487
1235.0,0.3451499094386059
1234.0,0.33856594960608
1233.0,0.33096219911484415
1232.0,0.3226668485800983
1231.0,0.31345310093699386
1230.0,0.30364361126666783
1229.0,0.29353826236864533
1228.0,0.2833290244398645
1227.0,0.2730284163171235
1226.0,0.2626483041962855
1225.0,0.2523551806717519
1224.0,0.242376254091611
1223.0,0.23247310059161808
1222.0,0.22264568691579112
1221.0,0.21317762050081246
1220.0,0.2040505010971967
1219.0,0.19538358301274483
1218.0,0.18708664335714453
1217.0,0.17940450345550985
1216.0,0.17230771132555445
1215.0,0.16551571466519466
1214.0,0.1590787998012282
1213.0,0.15304467498017615
1212.0,0.14752000636314366
1211.0,0.14230574221345038
1210.0,0.13739163603505822
1209.0,0.13276828548110586
1208.0,0.12842706445412122
1207.0,0.12430223801979201
1206.0,0.12033079436794658
1205.0,0.1165089098110701
1204.0,0.11288929687511629
1203.0,0.10941133229451272
1202.0,0.10601643278815298
1201.0,0.10281292341984649
1200.0,0.09968750301627338
1199.0,0.09669292003582619
1198.0,0.09371884422784693
1197.0,0.0908185240221473
1196.0,0.0880970039559672
1195.0,0.08549817717268593
1194.0,0.08286224724355584
1193.0,0.08034671768963575
1192.0,0.07784567476894111
1191.0,0.07556563645676939
1190.0,0.07350321072677968
1189.0,0.0718090519612431
1188.0,0.07047889936889606
1187.0,0.06961138175567827
1186.0,0.0691018855898955
1185.0,0.06905096883247697
1184.0,0.06950943469373039
1183.0,0.07037674848475972
1182.0,0.07175781684269089
1181.0,0.0734517753643813
1180.0,0.07541061433058172
1179.0,0.07748213975538865
1178.0,0.0794071379151915
1177.0,0.08107890990866418
1176.0,0.08228448344050654
1175.0,0.08280969148843575
1174.0,0.08254700807033655
1173.0,0.08144546944972642
1172.0,0.07951143534170213
1171.0,0.07680780957933253
1170.0,0.07350321072677968
1169.0,0.06981534770138009
1168.0,0.06600683616875758
1167.0,0.06243196139961715
1166.0,0.05928434309333741
1165.0,0.05665390164340933
1164.0,0.05458065739693696
1163.0,0.05290953578037816
1162.0,0.0515870342213991
1161.0,0.05065879322950262
1160.0,0.050073556332087765
1159.0,0.04982994019179987
1158.0,0.050073556332087765
1157.0,0.05065879322950262
1156.0,0.05173378011970464
1155.0,0.053203972728539606
1154.0,0.055172003656783764
1153.0,0.05769424710410598
1152.0,0.060730413661268745
1151.0,0.06419054619006714
1150.0,0.0680846829187538
1149.0,0.07237303755504598
1148.0,0.07701518429111709
1147.0,0.08196966321511989
1146.0,0.08714052483764512
1145.0,0.09264239186882706
1144.0,0.09826930827078129
1143.0,0.10391491457671487
1142.0,0.10935546370475246
1141.0,0.11463877996848804
1140.0,0.11964380058076385
1139.0,0.12436006299583169
1138.0,0.12877744324029283
1137.0,0.13288622016802298
1136.0,0.1366771398795441
1135.0,0.1400815147992842
1134.0,0.14315032127482774
1133.0,0.14618015414323682
1132.0,0.1493537648169334
1131.0,0.15279763601907614
1130.0,0.1565803347950816
1129.0,0.16096212661169407
1128.0,0.1660882849286216
1127.0,0.1718558926962137
1126.0,0.17829000270162365
1125.0,0.18528638730402336
1124.0,0.19266796070880954
1123.0,0.20010831534313467
1122.0,0.20739821883503362
1121.0,0.2141009716156166
1120.0,0.21989880853208832
1119.0,0.22446236521904295
1118.0,0.2274582673590566
1117.0,0.22892721677880523
1116.0,0.22892721677880523
1115.0,0.22738495015082916
1114.0,0.22475374025976347
1113.0,0.22170400891116615
1112.0,0.2192507688964478
1111.0,0.21802932608744796
1110.0,0.21853185715820178
1109.0,0.22119779598676126
1108.0,0.2259942697417905
1107.0,0.23239893194966443
1106.0,0.2401056259745007
1105.0,0.2491060796178748
1104.0,0.25916379294268843
1103.0,0.2696215314123571
1102.0,0.2801717137456652
1101.0,0.29073003902416916
1100.0,0.30094314545233236
1099.0,0.3103360349842297
1098.0,0.3186682940308343
1097.0,0.3257820544233001
1096.0,0.3315208970674144
1095.0,0.3357341998523251
1094.0,0.3384712598680175
1093.0,0.3400837999301498
1092.0,0.3407495312273392
1091.0,0.3404640928457836
1090.0,0.3389449151466213
1089.0,0.3365817877473203
1088.0,0.3333884315809701
1087.0,0.32956859063939437
1086.0,0.32513885926218844
1085.0,0.32048125630421054
1084.0,0.3156035215809796
1083.0,0.31006989598178203
1082.0,0.30355623686100075
1081.0,0.2962788400729801
1080.0,0.288192770958809
1079.0,0.27909682918654255
1078.0,0.2692177243336109
1077.0,0.2590849235187176
1076.0,0.24879790541164692
1075.0,0.23844801143581806
1074.0,0.22819212100089437
1073.0,0.21853185715820178
1072.0,0.20943337485392344
1071.0,0.2009352806489919
1070.0,0.1930742231162681
1069.0,0.185819018959813
1068.0,0.17920761891179637
1067.0,0.17295398299526576
1066.0,0.16704424939540163
1065.0,0.16159172150581314
1064.0,0.1565803347950816
1063.0,0.15211900255462485
1062.0,0.14819148577176255
1061.0,0.14502632627358292
1060.0,0.1427881576831076
1059.0,0.1413425159091921
1058.0,0.14068153490288382
1057.0,0.14068153490288382
1056.0,0.14128238513970826
1055.0,0.14242629585250421
1054.0,0.14417809459397013
1053.0,0.1466060225493342
1052.0,0.1494762911210057
1051.0,0.15261244897260462
1050.0,0.15577141869837208
1049.0,0.15901616267962204
1048.0,0.16215913834447737
1047.0,0.16513442009996204
1046.0,0.16781053893148679
1045.0,0.17018181256112253
1044.0,0.17198493577602325
1043.0,0.1730833528150797
1042.0,0.17347169365934856
1041.0,0.1733422081241307
1040.0,0.17263072694617465
1039.0,0.1714045436282976
1038.0,0.16966800654803826
1037.0,0.167618839752959
1036.0,0.16545214231905137
1035.0,0.16310648362356628
1034.0,0.1607105439938532
1033.0,0.15851539066460685
1032.0,0.15645578805436489
1031.0,0.15452986701832638
1030.0,0.15261244897260462
1029.0,0.1507034591652734
1028.0,0.14898639317633
1027.0,0.14745901423020125
1026.0,0.14684956355215717
1025.0,0.1478861391502384
1024.0,0.15162611615539823
1023.0,0.15870311250971825
1022.0,0.16953964996903292
1021.0,0.18395765907800343
1020.0,0.20107326142279858
1019.0,0.21867554433301217
1018.0,0.23403357521428614
1017.0,0.24420134302616936
1016.0,0.24680008580058388
1015.0,0.24093681183951277
1014.0,0.22826557461323072
1013.0,0.2119731159041962
1012.0,0.19524739784953948
1011.0,0.18006143064460467
1010.0,0.16704424939540163
1009.0,0.15614457737683884
1008.0,0.14691047014813452
1007.0,0.1390633792999063
1006.0,0.1325325121409484
1005.0,0.1270865583796048
1004.0,0.12268625668776156
1003.0,0.11907213473291511
1002.0,0.11588463798833115
1001.0,0.1130019543289007
1000.0,0.11036219959333216
999.0,0.10790539730951965
998.0,0.10573933555301185
997.0,0.10391491457671487
996.0,0.10231793820358015
995.0,0.10089114180660053
994.0,0.09957824654226233
993.0,0.09843270997155007
992.0,0.09739886933346864
991.0,0.0964759355287379
990.0,0.09571734235437201
989.0,0.09506817260434741
988.0,0.09458193129745807
987.0,0.09420411963213149
986.0,0.09398837472858723
985.0,0.0937727369476411
984.0,0.09361107884716913
983.0,0.09344948089854999
982.0,0.09328794305703592
981.0,0.09318028453345462
980.0,0.09323411045927221
979.0,0.09328794305703592
978.0,0.09334178232840018
977.0,0.09328794305703592
976.0,0.09318028453345462
975.0,0.09301884677114591
974.0,0.09264239186882706
973.0,0.09210516458371698
972.0,0.09135416109288674
971.0,0.09039048950983108
970.0,0.08932224525729482
969.0,0.0881502035005799
968.0,0.08698131625203986
967.0,0.08560394787021397
966.0,0.08396738981143059
965.0,0.08223199755224364
964.0,0.0805035121369384
963.0,0.0788860261633193
962.0,0.07743023101428781
961.0,0.07618627890881036
960.0,0.07504911108438939
959.0,0.07391491307485598
958.0,0.07283502570063005
957.0,0.0718090519612431
956.0,0.07083661679493547
955.0,0.06986635415888243
954.0,0.06894915322260897
953.0,0.06823711151882228
952.0,0.06767846801070698
951.0,0.0671712330991534
950.0,0.06671522765130522
949.0,0.06620911585658007
948.0,0.06580465065211571
947.0,0.06545105233385295
946.0,0.06514819703433927
945.0,0.06484555278383164
944.0,0.06449273417528723
943.0,0.06429125215733666
942.0,0.06414020196211956
941.0,0.06403953101083348
940.0,0.06393888339001164
939.0,0.06373765809652254
938.0,0.06353652599525317
937.0,0.06333548699992453
936.0,0.06323500239005853
935.0,0.06303410289212974
934.0,0.06278310913729457
933.0,0.06248210798265341
932.0,0.062281556382736136
931.0,0.06218131530164395
930.0,0.062131203436140536
929.0,0.06193081377661436
928.0,0.061580354206806964
927.0,0.06108018775522828
926.0,0.06063052992534024
925.0,0.060231224546650086
924.0,0.05983228596592505
923.0,0.05933412752417122
922.0,0.058836539841526925
921.0,0.0583891978463662
920.0,0.05804158346918653
919.0,0.05784307153250956
918.0,0.057743849580535134
917.0,0.05784307153250956
916.0,0.058190526991161784
915.0,0.058786812414678646
914.0,0.0595831353183347
913.0,0.06058059667068294
912.0,0.061830653609679764
911.0,0.06343599486473406
910.0,0.0654005617819271
909.0,0.06777998612288094
908.0,0.07047889936889606
907.0,0.07340034609297241
906.0,0.07654873036034848
905.0,0.07977228854307139
904.0,0.08291480935943274
903.0,0.08592141461088798
902.0,0.08857603462370545
901.0,0.09087205801073917
900.0,0.09280368972839836
899.0,0.09441997176475758
898.0,0.09566320779750503
897.0,0.09658441423091357
896.0,0.09707290398273716
895.0,0.0972358560759139
894.0,0.0972358560759139
893.0,0.0972358560759139
892.0,0.09739886933346864
891.0,0.0975619438013351
890.0,0.09783387072894878
889.0,0.09832376867362447
888.0,0.09914149529800831
887.0,0.10028890542885538
886.0,0.10193333935836524
885.0,0.10408045468998406
884.0,0.10673771411200872
883.0,0.1098585399354226
882.0,0.11350927482751816
881.0,0.11793105556385153
880.0,0.12326270285933538
879.0,0.12912810493225724
878.0,0.1352516643703412
877.0,0.14140265500530758
876.0,0.14739803066176504
875.0,0.15285938258659382
874.0,0.15720360482441986
873.0,0.15976840504189105
872.0,0.159956669396506
871.0,0.15751557558842988
870.0,0.1527358982292355
869.0,0.14642345638035836
868.0,0.13936258322624528
867.0,0.13212021654162043
866.0,0.12517042212027807
865.0,0.11895789180659433
864.0,0.11356568037106163
863.0,0.10907622851098608
862.0,0.10540705207704448
861.0,0.10242788617426934
860.0,0.10012480397898926
859.0,0.09843270997155007
858.0,0.0972358560759139
857.0,0.09653017149282994
856.0,0.09620485725896466
855.0,0.09598811640261173
854.0,0.09598811640261173
853.0,0.09604229147682952
852.0,0.096150661903319
851.0,0.0960964733098364
850.0,0.09587978652380036
849.0,0.09550084460218011
848.0,0.09517630019905599
847.0,0.09490603167212863
846.0,0.09458193129745807
845.0,0.09436599867304518
844.0,0.09425807260839858
843.0,0.09420411963213149
842.0,0.09415017335768128
841.0,0.09398837472858723
840.0,0.09361107884716913
839.0,0.09301884677114591
838.0,0.0922125568893839
837.0,0.09135416109288674
836.0,0.09039048950983108
835.0,0.08932224525729482
834.0,0.0881502035005799
833.0,0.0867691288864394
832.0,0.08523386307414738
831.0,0.08365134772453975
830.0,0.08228448344050654
829.0,0.0812359689720008
828.0,0.08045124103115198
827.0,0.07982447798997727
826.0,0.07925073872429178
825.0,0.07872981449018734
824.0,0.0781575185941421
823.0,0.07753405470158659
822.0,0.07691148455760066
821.0,0.0763933569825408
820.0,0.07618627890881036
819.0,0.07618627890881036
818.0,0.07628980560343712
817.0,0.07644514193245056
816.0,0.07654873036034848
815.0,0.07660053384128362
814.0,0.07660053384128362
813.0,0.07665234350217442
812.0,0.07670415934449615
811.0,0.07675598136972361
810.0,0.07675598136972361
809.0,0.07680780957933253
808.0,0.07680780957933253
807.0,0.07675598136972361
806.0,0.07654873036034848
805.0,0.07628980560343712
804.0,0.07582412969807906
803.0,0.07520400420208784
802.0,0.07448164182257
801.0,0.07386342893255127
800.0,0.07386342893255127
799.0,0.0748426728241014
798.0,0.07717078033335123
797.0,0.08076496207674921
796.0,0.08502252755566908
795.0,0.08894897967187343
794.0,0.0916222275676053
793.0,0.09231997575758011
792.0,0.0910326995816122
791.0,0.0881502035005799
790.0,0.08433639649422697
789.0,0.08013774644446192
788.0,0.07592757008963713
787.0,0.07186029312488018
786.0,0.0680846829187538
785.0,0.06474471821595262
784.0,0.061880730805688344
783.0,0.05938391766259232
782.0,0.05729763111133224
781.0,0.05551732784983132
780.0,0.05394093961487645
779.0,0.052419250695677544
778.0,0.05095170768433621
777.0,0.04944043838819989
776.0,0.04803141550708934
775.0,0.04677202844014605
774.0,0.045902279520810385
773.0,0.04513062893352182
772.0,0.04421607108308856
771.0,0.04301563225723992
770.0,0.041579471947481794
769.0,0.04010041213405646
768.0,0.038721320914956836
767.0,0.037583306554248797
766.0,0.036731748473764814
765.0,0.036117771071222604
764.0,0.03555179208333925
763.0,0.03489241415094413
762.0,0.03414006319292828
761.0,0.033295223342125535
760.0,0.032218091924200776
759.0,0.03105031901865729
758.0,0.029978734171634214
757.0,0.029095501846216454
756.0,0.028306761050139073
755.0,0.027426919073445077
754.0,0.026733563891471412
753.0,0.026318081496016443
752.0,0.026041313893296225
751.0,0.025718641122169483
750.0,0.025350165561278004
749.0,0.02516604495145991
748.0,0.025258095499050004
747.0,0.025764722556973707
746.0,0.027010773144651168
745.0,0.02932775731028059
744.0,0.03310770413286357
743.0,0.038673844065289176
742.0,0.04653025674659861
741.0,0.057000406633959555
740.0,0.07001940948448526
739.0,0.08512818245994969
738.0,0.10187842445889239
737.0,0.11970100857424737
736.0,0.13816700234205515
735.0,0.15689185800039307
734.0,0.17567887514922864
733.0,0.19470308384201496
732.0,0.21388771628017356
731.0,0.23351279376030587
730.0,0.2541448048262711
729.0,0.2766264329810155
728.0,0.30085631260551615
727.0,0.32513885926218844
726.0,0.34659450933549873
725.0,0.36151074304536257
724.0,0.36693572730850077
723.0,0.36211018341920953
722.0,0.34804393046692583
721.0,0.3273480771599975
720.0,0.30303235925597694
719.0,0.27827180142721186
718.0,0.25547232652743346
717.0,0.23567439437401605
716.0,0.21896306137886823
715.0,0.20502425594886842
714.0,0.19388788983090888
713.0,0.18521985425419518
712.0,0.1784864715952268
711.0,0.1730833528150797
710.0,0.1683221508085333
709.0,0.16392919108485815
708.0,0.15958022226351387
707.0,0.15533647175976073
706.0,0.15125681810431635
705.0,0.14739803066176504
704.0,0.14363367634075197
703.0,0.13984173868172167
702.0,0.13578566953867033
701.0,0.1311205537629121
700.0,0.12598229613781387
699.0,0.12096149476276286
698.0,0.11645212073195621
697.0,0.11227020271196975
696.0,0.10812816955441629
695.0,0.10419084983086901
694.0,0.10089114180660053
693.0,0.09821485469640057
692.0,0.0957714836599215
691.0,0.09344948089854999
690.0,0.0917295005042762
689.0,0.0910326995816122
688.0,0.0910326995816122
687.0,0.09130056764777605
686.0,0.09189045960744768
685.0,0.09280368972839836
684.0,0.09361107884716913
683.0,0.09361107884716913
682.0,0.09285746899685954
681.0,0.0919441259012328
680.0,0.09097914578884403
679.0,0.08948231448273347
678.0,0.08714052483764512
677.0,0.08423093401631587
676.0,0.08155025759884227
675.0,0.0794071379151915
674.0,0.07768983678560404
673.0,0.07592757008963713
672.0,0.07334892291111106
671.0,0.06971335275448043
670.0,0.06524912533642091
669.0,0.06338573802478864
668.0,0.06661395809694559
667.0,0.06930561233546473
666.0,0.068389593637038
665.0,0.0665127121512945
664.0,0.06489597884855036
663.0,0.06408986356949264
662.0,0.06378795567975115
661.0,0.06348625752110681
660.0,0.06288348923294618
659.0,0.06223143295006417
658.0,0.06133019897732073
657.0,0.05988213325228142
656.0,0.058538260652670315
655.0,0.05858795962645047
654.0,0.05998184499233683
653.0,0.06103020277710969
652.0,0.06038092104330195
651.0,0.05868737463933793
650.0,0.05784307153250956
649.0,0.05848856736559682
648.0,0.05973260855398799
647.0,0.06038092104330195
646.0,0.06033101647767336
645.0,0.060131455540490375
644.0,0.05978244440026481
643.0,0.05908526241971446
642.0,0.05799194697768684
641.0,0.05685187064143715
640.0,0.05625823416868636
639.0,0.05665390164340933
638.0,0.05814087347462649
637.0,0.060880282351513104
636.0,0.06519865825346338
635.0,0.07114346641808922
634.0,0.0772226580712021
633.0,0.08060807322614072
632.0,0.0794592834975203
631.0,0.07499749231902242
630.0,0.06976434723371505
629.0,0.0654005617819271
628.0,0.062331685600995
627.0,0.060530669156469985
626.0,0.05973260855398799
625.0,0.058936011780097886
624.0,0.05724807957018618
623.0,0.05502409158795207
622.0,0.05403929642243144
621.0,0.055172003656783764
620.0,0.0575950591438934
619.0,0.05933412752417122
618.0,0.059035506507200575
617.0,0.05734718830678798
616.0,0.05610995175152733
615.0,0.05685187064143715
614.0,0.059135024033278416
613.0,0.0611301784870133
612.0,0.06068046892176193
611.0,0.05744631966579017
610.0,0.05286048235717078
609.0,0.04900266601119507
608.0,0.0469171560879138
607.0,0.04628861957244457
606.0,0.045902279520810385
605.0,0.04455278942230456
604.0,0.04244059810252043
603.0,0.04076775094900409
602.0,0.040243327009005014
601.0,0.04038628892895613
600.0,0.04062466342415694
