cm-1,A
4000.0,0.0173
3999.0,0.0173
3998.0,0.0173
3997.0,0.0173
3996.0,0.0173
3995.0,0.0173
3994.0,0.0173
3993.0,0.0173
3992.0,0.0174
3991.0,0.0174
3990.0,0.0175
3989.0,0.0175
3988.0,0.0175
3987.0,0.0174
3986.0,0.0174
3985.0,0.0174
3984.0,0.0174
3983.0,0.0173
3982.0,0.0173
3981.0,0.0173
3980.0,0.0173
3979.0,0.0172
3978.0,0.0172
3977.0,0.0171
3976.0,0.0171
3975.0,0.0172
3974.0,0.0173
3973.0,0.0174
3972.0,0.0175
3971.0,0.0175
3970.0,0.0176
3969.0,0.0176
3968.0,0.0176
3967.0,0.0176
3966.0,0.0176
3965.0,0.0175
3964.0,0.0175
3963.0,0.0175
3962.0,0.0175
3961.0,0.0175
3960.0,0.0175
3959.0,0.0175
3958.0,0.0175
3957.0,0.0175
3956.0,0.0175
3955.0,0.0175
3954.0,0.0174
3953.0,0.0173
3952.0,0.0172
3951.0,0.0172
3950.0,0.0172
3949.0,0.0173
3948.0,0.0173
3947.0,0.0173
3946.0,0.0173
3945.0,0.0173
3944.0,0.0173
3943.0,0.0174
3942.0,0.0174
3941.0,0.0175
3940.0,0.0175
3939.0,0.0176
3938.0,0.0176
3937.0,0.0176
3936.0,0.0175
3935.0,0.0174
3934.0,0.0173
3933.0,0.0173
3932.0,0.0173
3931.0,0.0174
3930.0,0.0175
3929.0,0.0175
3928.0,0.0174
3927.0,0.0175
3926.0,0.0175
3925.0,0.0176
3924.0,0.0176
3923.0,0.0176
3922.0,0.0175
3921.0,0.0175
3920.0,0.0174
3919.0,0.0174
3918.0,0.0175
3917.0,0.0176
3916.0,0.0177
3915.0,0.0177
3914.0,0.0178
3913.0,0.0179
3912.0,0.0179
3911.0,0.0179
3910.0,0.0178
3909.0,0.0177
3908.0,0.0176
3907.0,0.0174
3906.0,0.0173
3905.0,0.0172
3904.0,0.0172
3903.0,0.0173
3902.0,0.0174
3901.0,0.0175
3900.0,0.0176
3899.0,0.0177
3898.0,0.0177
3897.0,0.0177
3896.0,0.0177
3895.0,0.0176
3894.0,0.0176
3893.0,0.0176
3892.0,0.0177
3891.0,0.0177
3890.0,0.0175
3889.0,0.0174
3888.0,0.0174
3887.0,0.0175
3886.0,0.0176
3885.0,0.0176
3884.0,0.0174
3883.0,0.0174
3882.0,0.0175
3881.0,0.0176
3880.0,0.0177
3879.0,0.0176
3878.0,0.0176
3877.0,0.0177
3876.0,0.0178
3875.0,0.0177
3874.0,0.0175
3873.0,0.0173
3872.0,0.0173
3871.0,0.0176
3870.0,0.0178
3869.0,0.0177
3868.0,0.0175
3867.0,0.0175
3866.0,0.0175
3865.0,0.0176
3864.0,0.0177
3863.0,0.0177
3862.0,0.0177
3861.0,0.0177
3860.0,0.0177
3859.0,0.0176
3858.0,0.0175
3857.0,0.0173
3856.0,0.0172
3855.0,0.0173
3854.0,0.0176
3853.0,0.0175
3852.0,0.0173
3851.0,0.0174
3850.0,0.0178
3849.0,0.0181
3848.0,0.0181
3847.0,0.018
3846.0,0.0179
3845.0,0.0178
3844.0,0.0176
3843.0,0.0174
3842.0,0.0171
3841.0,0.0169
3840.0,0.0168
3839.0,0.017
3838.0,0.0172
3837.0,0.0172
3836.0,0.0172
3835.0,0.0173
3834.0,0.0175
3833.0,0.0177
3832.0,0.018
3831.0,0.0182
3830.0,0.0182
3829.0,0.0182
3828.0,0.0182
3827.0,0.0181
3826.0,0.0179
3825.0,0.0175
3824.0,0.0173
3823.0,0.0172
3822.0,0.0173
3821.0,0.0174
3820.0,0.0173
3819.0,0.0172
3818.0,0.0174
3817.0,0.0178
3816.0,0.018
3815.0,0.018
3814.0,0.018
3813.0,0.0182
3812.0,0.0183
3811.0,0.0183
3810.0,0.0182
3809.0,0.0181
3808.0,0.0182
3807.0,0.0183
3806.0,0.0181
3805.0,0.0179
3804.0,0.0178
3803.0,0.0179
3802.0,0.018
3801.0,0.0179
3800.0,0.0177
3799.0,0.0177
3798.0,0.0179
3797.0,0.0182
3796.0,0.0184
3795.0,0.0185
3794.0,0.0186
3793.0,0.0187
3792.0,0.0188
3791.0,0.0188
3790.0,0.0188
3789.0,0.0188
3788.0,0.0187
3787.0,0.0187
3786.0,0.0186
3785.0,0.0185
3784.0,0.0184
3783.0,0.0183
3782.0,0.0182
3781.0,0.0183
3780.0,0.0185
3779.0,0.0186
3778.0,0.0186
3777.0,0.0186
3776.0,0.0187
3775.0,0.0187
3774.0,0.0187
3773.0,0.0185
3772.0,0.0184
3771.0,0.0184
3770.0,0.0184
3769.0,0.0183
3768.0,0.0183
3767.0,0.0184
3766.0,0.0186
3765.0,0.0187
3764.0,0.0186
3763.0,0.0184
3762.0,0.0183
3761.0,0.0183
3760.0,0.0184
3759.0,0.0184
3758.0,0.0184
3757.0,0.0184
3756.0,0.0182
3755.0,0.018
3754.0,0.0178
3753.0,0.0176
3752.0,0.0176
3751.0,0.0176
3750.0,0.0175
3749.0,0.0174
3748.0,0.0173
3747.0,0.0174
3746.0,0.0176
3745.0,0.0179
3744.0,0.0178
3743.0,0.0176
3742.0,0.0175
3741.0,0.0176
3740.0,0.0175
3739.0,0.0171
3738.0,0.0166
3737.0,0.0162
3736.0,0.016
3735.0,0.0159
3734.0,0.0159
3733.0,0.016
3732.0,0.0162
3731.0,0.0162
3730.0,0.0163
3729.0,0.0163
3728.0,0.0164
3727.0,0.0164
3726.0,0.0164
3725.0,0.0163
3724.0,0.0163
3723.0,0.0164
3722.0,0.0166
3721.0,0.0168
3720.0,0.017
3719.0,0.0172
3718.0,0.0175
3717.0,0.0177
3716.0,0.0178
3715.0,0.0178
3714.0,0.0177
3713.0,0.0176
3712.0,0.0176
3711.0,0.0175
3710.0,0.0173
3709.0,0.0171
3708.0,0.0171
3707.0,0.0171
3706.0,0.0171
3705.0,0.017
3704.0,0.017
3703.0,0.0171
3702.0,0.0172
3701.0,0.0173
3700.0,0.0174
3699.0,0.0174
3698.0,0.0175
3697.0,0.0176
3696.0,0.0176
3695.0,0.0176
3694.0,0.0175
3693.0,0.0175
3692.0,0.0174
3691.0,0.0175
3690.0,0.0177
3689.0,0.0179
3688.0,0.018
3687.0,0.0182
3686.0,0.0186
3685.0,0.0189
3684.0,0.0191
3683.0,0.0192
3682.0,0.0192
3681.0,0.0191
3680.0,0.0189
3679.0,0.0186
3678.0,0.0183
3677.0,0.0184
3676.0,0.0187
3675.0,0.0187
3674.0,0.0186
3673.0,0.0186
3672.0,0.019
3671.0,0.0194
3670.0,0.0198
3669.0,0.0199
3668.0,0.0199
3667.0,0.0201
3666.0,0.0204
3665.0,0.0205
3664.0,0.0206
3663.0,0.0206
3662.0,0.0205
3661.0,0.0204
3660.0,0.0203
3659.0,0.0202
3658.0,0.0202
3657.0,0.0203
3656.0,0.0204
3655.0,0.0203
3654.0,0.0202
3653.0,0.02
3652.0,0.0199
3651.0,0.0199
3650.0,0.0201
3649.0,0.0202
3648.0,0.0202
3647.0,0.0204
3646.0,0.0207
3645.0,0.021
3644.0,0.0212
3643.0,0.0214
3642.0,0.0214
3641.0,0.0214
3640.0,0.0213
3639.0,0.0212
3638.0,0.0211
3637.0,0.021
3636.0,0.0209
3635.0,0.0208
3634.0,0.0207
3633.0,0.0205
3632.0,0.0203
3631.0,0.0203
3630.0,0.0205
3629.0,0.0207
3628.0,0.0207
3627.0,0.0205
3626.0,0.0206
3625.0,0.0208
3624.0,0.0208
3623.0,0.0207
3622.0,0.0205
3621.0,0.0205
3620.0,0.0206
3619.0,0.0208
3618.0,0.0209
3617.0,0.0211
3616.0,0.0213
3615.0,0.0216
3614.0,0.0218
3613.0,0.0218
3612.0,0.0218
3611.0,0.0217
3610.0,0.0217
3609.0,0.0218
3608.0,0.0219
3607.0,0.0219
3606.0,0.0218
3605.0,0.0216
3604.0,0.0215
3603.0,0.0214
3602.0,0.0212
3601.0,0.0211
3600.0,0.0211
3599.0,0.021
3598.0,0.021
3597.0,0.0211
3596.0,0.0213
3595.0,0.0215
3594.0,0.0216
3593.0,0.0216
3592.0,0.0217
3591.0,0.0218
3590.0,0.0219
3589.0,0.0221
3588.0,0.0223
3587.0,0.0224
3586.0,0.0225
3585.0,0.0226
3584.0,0.0228
3583.0,0.023
3582.0,0.0231
3581.0,0.0232
3580.0,0.0233
3579.0,0.0233
3578.0,0.0234
3577.0,0.0234
3576.0,0.0234
3575.0,0.0235
3574.0,0.0236
3573.0,0.0237
3572.0,0.0237
3571.0,0.0236
3570.0,0.0235
3569.0,0.0235
3568.0,0.0236
3567.0,0.0237
3566.0,0.0237
3565.0,0.0238
3564.0,0.024
3563.0,0.0242
3562.0,0.0244
3561.0,0.0245
3560.0,0.0246
3559.0,0.0247
3558.0,0.0249
3557.0,0.025
3556.0,0.0251
3555.0,0.0251
3554.0,0.0251
3553.0,0.0251
3552.0,0.0252
3551.0,0.0252
3550.0,0.0251
3549.0,0.0252
3548.0,0.0253
3547.0,0.0254
3546.0,0.0254
3545.0,0.0255
3544.0,0.0255
3543.0,0.0256
3542.0,0.0256
3541.0,0.0256
3540.0,0.0255
3539.0,0.0256
3538.0,0.0256
3537.0,0.0257
3536.0,0.0258
3535.0,0.0258
3534.0,0.0257
3533.0,0.0256
3532.0,0.0256
3531.0,0.0256
3530.0,0.0256
3529.0,0.0255
3528.0,0.0254
3527.0,0.0253
3526.0,0.0252
3525.0,0.0253
3524.0,0.0255
3523.0,0.0257
3522.0,0.0257
3521.0,0.0256
3520.0,0.0255
3519.0,0.0256
3518.0,0.0256
3517.0,0.0257
3516.0,0.0258
3515.0,0.0258
3514.0,0.0258
3513.0,0.0258
3512.0,0.0257
3511.0,0.0256
3510.0,0.0256
3509.0,0.0255
3508.0,0.0255
3507.0,0.0255
3506.0,0.0255
3505.0,0.0256
3504.0,0.0256
3503.0,0.0256
3502.0,0.0257
3501.0,0.0257
3500.0,0.0258
3499.0,0.0259
3498.0,0.0261
3497.0,0.0261
3496.0,0.0261
3495.0,0.026
3494.0,0.0259
3493.0,0.0258
3492.0,0.0258
3491.0,0.0258
3490.0,0.0258
3489.0,0.0258
3488.0,0.0259
3487.0,0.0259
3486.0,0.026
3485.0,0.026
3484.0,0.026
3483.0,0.026
3482.0,0.0259
3481.0,0.0258
3480.0,0.0258
3479.0,0.0259
3478.0,0.0261
3477.0,0.0263
3476.0,0.0264
3475.0,0.0265
3474.0,0.0265
3473.0,0.0264
3472.0,0.0263
3471.0,0.0263
3470.0,0.0263
3469.0,0.0263
3468.0,0.0264
3467.0,0.0266
3466.0,0.0266
3465.0,0.0267
3464.0,0.0267
3463.0,0.0267
3462.0,0.0268
3461.0,0.0268
3460.0,0.0269
3459.0,0.0271
3458.0,0.0273
3457.0,0.0273
3456.0,0.0273
3455.0,0.0273
3454.0,0.0273
3453.0,0.0274
3452.0,0.0275
3451.0,0.0276
3450.0,0.0277
3449.0,0.0278
3448.0,0.0279
3447.0,0.0281
3446.0,0.0282
3445.0,0.0283
3444.0,0.0285
3443.0,0.0287
3442.0,0.029
3441.0,0.0291
3440.0,0.0292
3439.0,0.0292
3438.0,0.0292
3437.0,0.0292
3436.0,0.0292
3435.0,0.0293
3434.0,0.0294
3433.0,0.0295
3432.0,0.0296
3431.0,0.0296
3430.0,0.0296
3429.0,0.0296
3428.0,0.0296
3427.0,0.0296
3426.0,0.0296
3425.0,0.0295
3424.0,0.0295
3423.0,0.0294
3422.0,0.0293
3421.0,0.0292
3420.0,0.0291
3419.0,0.029
3418.0,0.0289
3417.0,0.0288
3416.0,0.0287
3415.0,0.0286
3414.0,0.0284
3413.0,0.0283
3412.0,0.0281
3411.0,0.028
3410.0,0.0279
3409.0,0.0277
3408.0,0.0276
3407.0,0.0275
3406.0,0.0275
3405.0,0.0276
3404.0,0.0276
3403.0,0.0277
3402.0,0.0276
3401.0,0.0276
3400.0,0.0275
3399.0,0.0274
3398.0,0.0274
3397.0,0.0273
3396.0,0.0271
3395.0,0.027
3394.0,0.0269
3393.0,0.0269
3392.0,0.027
3391.0,0.027
3390.0,0.027
3389.0,0.027
3388.0,0.027
3387.0,0.027
3386.0,0.0269
3385.0,0.0269
3384.0,0.0268
3383.0,0.0268
3382.0,0.0268
3381.0,0.0268
3380.0,0.0268
3379.0,0.0268
3378.0,0.0267
3377.0,0.0266
3376.0,0.0266
3375.0,0.0266
3374.0,0.0266
3373.0,0.0265
3372.0,0.0265
3371.0,0.0264
3370.0,0.0263
3369.0,0.0262
3368.0,0.0261
3367.0,0.026
3366.0,0.026
3365.0,0.026
3364.0,0.026
3363.0,0.026
3362.0,0.026
3361.0,0.0261
3360.0,0.0261
3359.0,0.0261
3358.0,0.0261
3357.0,0.0261
3356.0,0.0261
3355.0,0.0261
3354.0,0.0261
3353.0,0.0262
3352.0,0.0262
3351.0,0.0262
3350.0,0.0262
3349.0,0.0262
3348.0,0.0262
3347.0,0.0262
3346.0,0.0261
3345.0,0.0261
3344.0,0.0261
3343.0,0.0262
3342.0,0.0262
3341.0,0.0263
3340.0,0.0263
3339.0,0.0262
3338.0,0.0262
3337.0,0.0262
3336.0,0.0262
3335.0,0.0262
3334.0,0.0261
3333.0,0.0261
3332.0,0.0261
3331.0,0.0261
3330.0,0.0261
3329.0,0.026
3328.0,0.0259
3327.0,0.0258
3326.0,0.0258
3325.0,0.0257
3324.0,0.0257
3323.0,0.0257
3322.0,0.0258
3321.0,0.0257
3320.0,0.0257
3319.0,0.0256
3318.0,0.0254
3317.0,0.0253
3316.0,0.0252
3315.0,0.0252
3314.0,0.0252
3313.0,0.0252
3312.0,0.0253
3311.0,0.0253
3310.0,0.0253
3309.0,0.0253
3308.0,0.0252
3307.0,0.0251
3306.0,0.0251
3305.0,0.0252
3304.0,0.0253
3303.0,0.0254
3302.0,0.0254
3301.0,0.0254
3300.0,0.0253
3299.0,0.0252
3298.0,0.0251
3297.0,0.025
3296.0,0.025
3295.0,0.025
3294.0,0.025
3293.0,0.025
3292.0,0.025
3291.0,0.025
3290.0,0.0249
3289.0,0.0249
3288.0,0.0248
3287.0,0.0248
3286.0,0.0247
3285.0,0.0247
3284.0,0.0246
3283.0,0.0245
3282.0,0.0245
3281.0,0.0245
3280.0,0.0246
3279.0,0.0247
3278.0,0.0247
3277.0,0.0247
3276.0,0.0246
3275.0,0.0245
3274.0,0.0244
3273.0,0.0243
3272.0,0.0243
3271.0,0.0243
3270.0,0.0243
3269.0,0.0243
3268.0,0.0244
3267.0,0.0244
3266.0,0.0244
3265.0,0.0245
3264.0,0.0245
3263.0,0.0245
3262.0,0.0244
3261.0,0.0244
3260.0,0.0243
3259.0,0.0243
3258.0,0.0242
3257.0,0.0241
3256.0,0.024
3255.0,0.024
3254.0,0.0241
3253.0,0.0242
3252.0,0.0242
3251.0,0.0242
3250.0,0.0242
3249.0,0.0242
3248.0,0.0242
3247.0,0.0243
3246.0,0.0243
3245.0,0.0243
3244.0,0.0243
3243.0,0.0242
3242.0,0.0241
3241.0,0.024
3240.0,0.0239
3239.0,0.0238
3238.0,0.0238
3237.0,0.0238
3236.0,0.0238
3235.0,0.0238
3234.0,0.0237
3233.0,0.0236
3232.0,0.0237
3231.0,0.0238
3230.0,0.0239
3229.0,0.0239
3228.0,0.0239
3227.0,0.0239
3226.0,0.0238
3225.0,0.0238
3224.0,0.0237
3223.0,0.0237
3222.0,0.0236
3221.0,0.0235
3220.0,0.0235
3219.0,0.0235
3218.0,0.0235
3217.0,0.0235
3216.0,0.0234
3215.0,0.0233
3214.0,0.0233
3213.0,0.0233
3212.0,0.0232
3211.0,0.0231
3210.0,0.023
3209.0,0.023
3208.0,0.0231
3207.0,0.0232
3206.0,0.0233
3205.0,0.0232
3204.0,0.0231
3203.0,0.023
3202.0,0.023
3201.0,0.023
3200.0,0.023
3199.0,0.023
3198.0,0.0229
3197.0,0.0228
3196.0,0.0227
3195.0,0.0227
3194.0,0.0227
3193.0,0.0227
3192.0,0.0228
3191.0,0.0228
3190.0,0.0229
3189.0,0.0228
3188.0,0.0228
3187.0,0.0227
3186.0,0.0226
3185.0,0.0226
3184.0,0.0227
3183.0,0.0227
3182.0,0.0228
3181.0,0.0228
3180.0,0.0227
3179.0,0.0227
3178.0,0.0227
3177.0,0.0226
3176.0,0.0226
3175.0,0.0225
3174.0,0.0225
3173.0,0.0224
3172.0,0.0225
3171.0,0.0225
3170.0,0.0225
3169.0,0.0224
3168.0,0.0223
3167.0,0.0223
3166.0,0.0223
3165.0,0.0223
3164.0,0.0223
3163.0,0.0223
3162.0,0.0222
3161.0,0.0222
3160.0,0.0222
3159.0,0.0222
3158.0,0.0222
3157.0,0.0222
3156.0,0.0222
3155.0,0.0222
3154.0,0.0222
3153.0,0.0222
3152.0,0.0222
3151.0,0.0222
3150.0,0.0221
3149.0,0.0221
3148.0,0.022
3147.0,0.022
3146.0,0.022
3145.0,0.0221
3144.0,0.0222
3143.0,0.0222
3142.0,0.0222
3141.0,0.0222
3140.0,0.0222
3139.0,0.0223
3138.0,0.0224
3137.0,0.0224
3136.0,0.0224
3135.0,0.0224
3134.0,0.0225
3133.0,0.0225
3132.0,0.0225
3131.0,0.0225
3130.0,0.0225
3129.0,0.0225
3128.0,0.0226
3127.0,0.0226
3126.0,0.0226
3125.0,0.0225
3124.0,0.0225
3123.0,0.0226
3122.0,0.0226
3121.0,0.0225
3120.0,0.0225
3119.0,0.0224
3118.0,0.0224
3117.0,0.0224
3116.0,0.0226
3115.0,0.0228
3114.0,0.0229
3113.0,0.023
3112.0,0.0231
3111.0,0.0233
3110.0,0.0235
3109.0,0.0237
3108.0,0.0238
3107.0,0.0239
3106.0,0.0238
3105.0,0.0238
3104.0,0.0237
3103.0,0.0236
3102.0,0.0237
3101.0,0.0237
3100.0,0.0237
3099.0,0.0236
3098.0,0.0234
3097.0,0.0233
3096.0,0.0233
3095.0,0.0232
3094.0,0.0232
3093.0,0.0232
3092.0,0.0233
3091.0,0.0233
3090.0,0.0235
3089.0,0.0237
3088.0,0.0238
3087.0,0.0239
3086.0,0.024
3085.0,0.0241
3084.0,0.0241
3083.0,0.0242
3082.0,0.0243
3081.0,0.0243
3080.0,0.0243
3079.0,0.0243
3078.0,0.0242
3077.0,0.0242
3076.0,0.0242
3075.0,0.0243
3074.0,0.0243
3073.0,0.0243
3072.0,0.0243
3071.0,0.0243
3070.0,0.0244
3069.0,0.0244
3068.0,0.0244
3067.0,0.0244
3066.0,0.0244
3065.0,0.0244
3064.0,0.0244
3063.0,0.0243
3062.0,0.0243
3061.0,0.0244
3060.0,0.0244
3059.0,0.0245
3058.0,0.0246
3057.0,0.0246
3056.0,0.0246
3055.0,0.0246
3054.0,0.0246
3053.0,0.0245
3052.0,0.0244
3051.0,0.0242
3050.0,0.0239
3049.0,0.0236
3048.0,0.0232
3047.0,0.0228
3046.0,0.0225
3045.0,0.0223
3044.0,0.0222
3043.0,0.022
3042.0,0.0219
3041.0,0.0218
3040.0,0.0217
3039.0,0.0217
3038.0,0.0216
3037.0,0.0216
3036.0,0.0215
3035.0,0.0214
3034.0,0.0213
3033.0,0.0212
3032.0,0.0213
3031.0,0.0214
3030.0,0.0215
3029.0,0.0215
3028.0,0.0215
3027.0,0.0216
3026.0,0.0217
3025.0,0.0219
3024.0,0.0221
3023.0,0.0222
3022.0,0.0223
3021.0,0.0224
3020.0,0.0224
3019.0,0.0225
3018.0,0.0226
3017.0,0.0228
3016.0,0.023
3015.0,0.0231
3014.0,0.0232
3013.0,0.0233
3012.0,0.0235
3011.0,0.0237
3010.0,0.0238
3009.0,0.0239
3008.0,0.0241
3007.0,0.0242
3006.0,0.0244
3005.0,0.0246
3004.0,0.0247
3003.0,0.0249
3002.0,0.025
3001.0,0.0252
3000.0,0.0253
2999.0,0.0254
2998.0,0.0255
2997.0,0.0256
2996.0,0.0257
2995.0,0.0259
2994.0,0.0261
2993.0,0.0263
2992.0,0.0265
2991.0,0.0266
2990.0,0.0268
2989.0,0.027
2988.0,0.0273
2987.0,0.0277
2986.0,0.028
2985.0,0.0283
2984.0,0.0285
2983.0,0.0288
2982.0,0.0291
2981.0,0.0295
2980.0,0.0298
2979.0,0.0302
2978.0,0.0306
2977.0,0.031
2976.0,0.0314
2975.0,0.0319
2974.0,0.0325
2973.0,0.033
2972.0,0.0336
2971.0,0.0341
2970.0,0.0347
2969.0,0.0352
2968.0,0.0358
2967.0,0.0363
2966.0,0.0368
2965.0,0.0372
2964.0,0.0376
2963.0,0.038
2962.0,0.0384
2961.0,0.0386
2960.0,0.0387
2959.0,0.0388
2958.0,0.0387
2957.0,0.0386
2956.0,0.0384
2955.0,0.0381
2954.0,0.0377
2953.0,0.0373
2952.0,0.0368
2951.0,0.0363
2950.0,0.0356
2949.0,0.0349
2948.0,0.0343
2947.0,0.0336
2946.0,0.0329
2945.0,0.0322
2944.0,0.0315
2943.0,0.0308
2942.0,0.0302
2941.0,0.0296
2940.0,0.0291
2939.0,0.0287
2938.0,0.0282
2937.0,0.0278
2936.0,0.0275
2935.0,0.0272
2934.0,0.027
2933.0,0.0267
2932.0,0.0265
2931.0,0.0263
2930.0,0.0261
2929.0,0.0259
2928.0,0.0257
2927.0,0.0255
2926.0,0.0254
2925.0,0.0253
2924.0,0.0253
2923.0,0.0252
2922.0,0.0252
2921.0,0.0252
2920.0,0.0252
2919.0,0.0251
2918.0,0.0251
2917.0,0.0251
2916.0,0.025
2915.0,0.025
2914.0,0.0251
2913.0,0.0252
2912.0,0.0253
2911.0,0.0254
2910.0,0.0254
2909.0,0.0255
2908.0,0.0255
2907.0,0.0255
2906.0,0.0256
2905.0,0.0256
2904.0,0.0256
2903.0,0.0257
2902.0,0.0257
2901.0,0.0257
2900.0,0.0258
2899.0,0.0259
2898.0,0.026
2897.0,0.0261
2896.0,0.0263
2895.0,0.0264
2894.0,0.0266
2893.0,0.0267
2892.0,0.0268
2891.0,0.0268
2890.0,0.0267
2889.0,0.0266
2888.0,0.0266
2887.0,0.0265
2886.0,0.0264
2885.0,0.0263
2884.0,0.0261
2883.0,0.026
2882.0,0.0259
2881.0,0.0258
2880.0,0.0257
2879.0,0.0256
2878.0,0.0255
2877.0,0.0254
2876.0,0.0253
2875.0,0.0253
2874.0,0.0253
2873.0,0.0252
2872.0,0.0251
2871.0,0.025
2870.0,0.0249
2869.0,0.0248
2868.0,0.0248
2867.0,0.0247
2866.0,0.0247
2865.0,0.0246
2864.0,0.0245
2863.0,0.0245
2862.0,0.0245
2861.0,0.0245
2860.0,0.0245
2859.0,0.0245
2858.0,0.0245
2857.0,0.0244
2856.0,0.0243
2855.0,0.0242
2854.0,0.0242
2853.0,0.024
2852.0,0.0239
2851.0,0.0237
2850.0,0.0236
2849.0,0.0234
2848.0,0.0232
2847.0,0.023
2846.0,0.0228
2845.0,0.0227
2844.0,0.0226
2843.0,0.0225
2842.0,0.0224
2841.0,0.0223
2840.0,0.0222
2839.0,0.0221
2838.0,0.022
2837.0,0.022
2836.0,0.0219
2835.0,0.0219
2834.0,0.0219
2833.0,0.0219
2832.0,0.0219
2831.0,0.0218
2830.0,0.0217
2829.0,0.0215
2828.0,0.0215
2827.0,0.0214
2826.0,0.0214
2825.0,0.0213
2824.0,0.0213
2823.0,0.0212
2822.0,0.0212
2821.0,0.0212
2820.0,0.0212
2819.0,0.0212
2818.0,0.0211
2817.0,0.0211
2816.0,0.0211
2815.0,0.0211
2814.0,0.0211
2813.0,0.0211
2812.0,0.0211
2811.0,0.0211
2810.0,0.0211
2809.0,0.0211
2808.0,0.0211
2807.0,0.0211
2806.0,0.0211
2805.0,0.0211
2804.0,0.0211
2803.0,0.0211
2802.0,0.021
2801.0,0.0209
2800.0,0.0208
2799.0,0.0208
2798.0,0.0208
2797.0,0.0208
2796.0,0.0207
2795.0,0.0207
2794.0,0.0206
2793.0,0.0206
2792.0,0.0206
2791.0,0.0206
2790.0,0.0206
2789.0,0.0206
2788.0,0.0205
2787.0,0.0205
2786.0,0.0206
2785.0,0.0205
2784.0,0.0205
2783.0,0.0205
2782.0,0.0204
2781.0,0.0204
2780.0,0.0204
2779.0,0.0203
2778.0,0.0203
2777.0,0.0203
2776.0,0.0203
2775.0,0.0203
2774.0,0.0202
2773.0,0.0202
2772.0,0.0202
2771.0,0.0202
2770.0,0.0202
2769.0,0.0202
2768.0,0.0202
2767.0,0.0202
2766.0,0.0201
2765.0,0.0201
2764.0,0.0201
2763.0,0.0202
2762.0,0.0202
2761.0,0.0202
2760.0,0.0202
2759.0,0.0202
2758.0,0.0201
2757.0,0.0201
2756.0,0.0201
2755.0,0.0201
2754.0,0.0201
2753.0,0.02
2752.0,0.0199
2751.0,0.0199
2750.0,0.0199
2749.0,0.0199
2748.0,0.0199
2747.0,0.0199
2746.0,0.0199
2745.0,0.0199
2744.0,0.0199
2743.0,0.0198
2742.0,0.0198
2741.0,0.0198
2740.0,0.0197
2739.0,0.0197
2738.0,0.0197
2737.0,0.0197
2736.0,0.0196
2735.0,0.0196
2734.0,0.0196
2733.0,0.0196
2732.0,0.0196
2731.0,0.0196
2730.0,0.0196
2729.0,0.0196
2728.0,0.0196
2727.0,0.0195
2726.0,0.0195
2725.0,0.0195
2724.0,0.0195
2723.0,0.0195
2722.0,0.0194
2721.0,0.0194
2720.0,0.0193
2719.0,0.0193
2718.0,0.0192
2717.0,0.0192
2716.0,0.0192
2715.0,0.0192
2714.0,0.0193
2713.0,0.0194
2712.0,0.0194
2711.0,0.0193
2710.0,0.0193
2709.0,0.0192
2708.0,0.0192
2707.0,0.0191
2706.0,0.0191
2705.0,0.0191
2704.0,0.0191
2703.0,0.0191
2702.0,0.019
2701.0,0.019
2700.0,0.019
2699.0,0.019
2698.0,0.019
2697.0,0.019
2696.0,0.019
2695.0,0.019
2694.0,0.019
2693.0,0.019
2692.0,0.019
2691.0,0.019
2690.0,0.019
2689.0,0.019
2688.0,0.019
2687.0,0.019
2686.0,0.0189
2685.0,0.0189
2684.0,0.0189
2683.0,0.0189
2682.0,0.0189
2681.0,0.0189
2680.0,0.0189
2679.0,0.0189
2678.0,0.0188
2677.0,0.0188
2676.0,0.0187
2675.0,0.0187
2674.0,0.0187
2673.0,0.0187
2672.0,0.0187
2671.0,0.0187
2670.0,0.0187
2669.0,0.0186
2668.0,0.0186
2667.0,0.0186
2666.0,0.0186
2665.0,0.0187
2664.0,0.0187
2663.0,0.0187
2662.0,0.0187
2661.0,0.0187
2660.0,0.0187
2659.0,0.0188
2658.0,0.0188
2657.0,0.0188
2656.0,0.0187
2655.0,0.0187
2654.0,0.0186
2653.0,0.0186
2652.0,0.0185
2651.0,0.0185
2650.0,0.0185
2649.0,0.0185
2648.0,0.0185
2647.0,0.0185
2646.0,0.0185
2645.0,0.0185
2644.0,0.0185
2643.0,0.0185
2642.0,0.0185
2641.0,0.0185
2640.0,0.0185
2639.0,0.0185
2638.0,0.0185
2637.0,0.0186
2636.0,0.0187
2635.0,0.0187
2634.0,0.0188
2633.0,0.0188
2632.0,0.0188
2631.0,0.0189
2630.0,0.0189
2629.0,0.0188
2628.0,0.0188
2627.0,0.0188
2626.0,0.0188
2625.0,0.0187
2624.0,0.0186
2623.0,0.0186
2622.0,0.0186
2621.0,0.0186
2620.0,0.0186
2619.0,0.0186
2618.0,0.0187
2617.0,0.0187
2616.0,0.0187
2615.0,0.0187
2614.0,0.0187
2613.0,0.0187
2612.0,0.0187
2611.0,0.0187
2610.0,0.0186
2609.0,0.0186
2608.0,0.0185
2607.0,0.0185
2606.0,0.0185
2605.0,0.0185
2604.0,0.0185
2603.0,0.0185
2602.0,0.0185
2601.0,0.0185
2600.0,0.0185
2599.0,0.0184
2598.0,0.0184
2597.0,0.0185
2596.0,0.0186
2595.0,0.0187
2594.0,0.0187
2593.0,0.0187
2592.0,0.0187
2591.0,0.0187
2590.0,0.0187
2589.0,0.0188
2588.0,0.0187
2587.0,0.0187
2586.0,0.0186
2585.0,0.0186
2584.0,0.0186
2583.0,0.0188
2582.0,0.0188
2581.0,0.0189
2580.0,0.0189
2579.0,0.0189
2578.0,0.0189
2577.0,0.0189
2576.0,0.0189
2575.0,0.0189
2574.0,0.0189
2573.0,0.0189
2572.0,0.0188
2571.0,0.0188
2570.0,0.0188
2569.0,0.0187
2568.0,0.0187
2567.0,0.0187
2566.0,0.0187
2565.0,0.0187
2564.0,0.0187
2563.0,0.0187
2562.0,0.0187
2561.0,0.0187
2560.0,0.0187
2559.0,0.0187
2558.0,0.0187
2557.0,0.0187
2556.0,0.0187
2555.0,0.0187
2554.0,0.0187
2553.0,0.0187
2552.0,0.0187
2551.0,0.0187
2550.0,0.0187
2549.0,0.0187
2548.0,0.0187
2547.0,0.0188
2546.0,0.0187
2545.0,0.0187
2544.0,0.0186
2543.0,0.0186
2542.0,0.0186
2541.0,0.0186
2540.0,0.0186
2539.0,0.0186
2538.0,0.0186
2537.0,0.0186
2536.0,0.0186
2535.0,0.0186
2534.0,0.0186
2533.0,0.0185
2532.0,0.0185
2531.0,0.0185
2530.0,0.0185
2529.0,0.0185
2528.0,0.0184
2527.0,0.0184
2526.0,0.0184
2525.0,0.0185
2524.0,0.0185
2523.0,0.0186
2522.0,0.0186
2521.0,0.0186
2520.0,0.0186
2519.0,0.0186
2518.0,0.0185
2517.0,0.0184
2516.0,0.0183
2515.0,0.0183
2514.0,0.0182
2513.0,0.0183
2512.0,0.0183
2511.0,0.0184
2510.0,0.0184
2509.0,0.0184
2508.0,0.0184
2507.0,0.0184
2506.0,0.0184
2505.0,0.0184
2504.0,0.0184
2503.0,0.0184
2502.0,0.0183
2501.0,0.0182
2500.0,0.0182
2499.0,0.0181
2498.0,0.0181
2497.0,0.018
2496.0,0.018
2495.0,0.018
2494.0,0.018
2493.0,0.018
2492.0,0.018
2491.0,0.0179
2490.0,0.0179
2489.0,0.0178
2488.0,0.0178
2487.0,0.0178
2486.0,0.0177
2485.0,0.0177
2484.0,0.0177
2483.0,0.0177
2482.0,0.0176
2481.0,0.0176
2480.0,0.0175
2479.0,0.0175
2478.0,0.0175
2477.0,0.0175
2476.0,0.0175
2475.0,0.0175
2474.0,0.0175
2473.0,0.0175
2472.0,0.0174
2471.0,0.0173
2470.0,0.0173
2469.0,0.0173
2468.0,0.0172
2467.0,0.0172
2466.0,0.0172
2465.0,0.0172
2464.0,0.0172
2463.0,0.0172
2462.0,0.0172
2461.0,0.0172
2460.0,0.0171
2459.0,0.0171
2458.0,0.0171
2457.0,0.0171
2456.0,0.0171
2455.0,0.0171
2454.0,0.0171
2453.0,0.017
2452.0,0.017
2451.0,0.0169
2450.0,0.0169
2449.0,0.0169
2448.0,0.017
2447.0,0.017
2446.0,0.0169
2445.0,0.0169
2444.0,0.0168
2443.0,0.0168
2442.0,0.0168
2441.0,0.0168
2440.0,0.0167
2439.0,0.0168
2438.0,0.0168
2437.0,0.0169
2436.0,0.0169
2435.0,0.017
2434.0,0.017
2433.0,0.017
2432.0,0.017
2431.0,0.017
2430.0,0.017
2429.0,0.0171
2428.0,0.0171
2427.0,0.0172
2426.0,0.0172
2425.0,0.0172
2424.0,0.0172
2423.0,0.0172
2422.0,0.0172
2421.0,0.0172
2420.0,0.0172
2419.0,0.0172
2418.0,0.0172
2417.0,0.0172
2416.0,0.0173
2415.0,0.0173
2414.0,0.0174
2413.0,0.0174
2412.0,0.0175
2411.0,0.0175
2410.0,0.0175
2409.0,0.0175
2408.0,0.0175
2407.0,0.0174
2406.0,0.0174
2405.0,0.0174
2404.0,0.0174
2403.0,0.0174
2402.0,0.0175
2401.0,0.0175
2400.0,0.0176
2399.0,0.0176
2398.0,0.0176
2397.0,0.0176
2396.0,0.0176
2395.0,0.0177
2394.0,0.0177
2393.0,0.0176
2392.0,0.0176
2391.0,0.0176
2390.0,0.0176
2389.0,0.0174
2388.0,0.0173
2387.0,0.017
2386.0,0.0167
2385.0,0.0163
2384.0,0.0158
2383.0,0.0151
2382.0,0.0144
2381.0,0.0135
2380.0,0.0127
2379.0,0.0119
2378.0,0.0113
2377.0,0.0109
2376.0,0.0108
2375.0,0.0108
2374.0,0.0109
2373.0,0.0107
2372.0,0.0104
2371.0,0.01
2370.0,0.0094
2369.0,0.0088
2368.0,0.0084
2367.0,0.0086
2366.0,0.009
2365.0,0.0092
2364.0,0.0092
2363.0,0.0094
2362.0,0.0092
2361.0,0.0082
2360.0,0.0069
2359.0,0.0062
2358.0,0.0061
2357.0,0.0062
2356.0,0.0066
2355.0,0.007
2354.0,0.0068
2353.0,0.0059
2352.0,0.005
2351.0,0.0047
2350.0,0.0049
2349.0,0.0054
2348.0,0.0055
2347.0,0.0053
2346.0,0.0051
2345.0,0.005
2344.0,0.005
2343.0,0.0053
2342.0,0.0053
2341.0,0.0053
2340.0,0.0053
2339.0,0.0054
2338.0,0.0051
2337.0,0.0046
2336.0,0.0041
2335.0,0.0039
2334.0,0.004
2333.0,0.0043
2332.0,0.0045
2331.0,0.0047
2330.0,0.0048
2329.0,0.005
2328.0,0.0053
2327.0,0.0059
2326.0,0.0066
2325.0,0.0071
2324.0,0.0076
2323.0,0.0082
2322.0,0.0087
2321.0,0.0091
2320.0,0.0095
2319.0,0.0099
2318.0,0.0103
2317.0,0.0107
2316.0,0.0108
2315.0,0.0107
2314.0,0.0103
2313.0,0.0098
2312.0,0.0093
2311.0,0.009
2310.0,0.0088
2309.0,0.0089
2308.0,0.0092
2307.0,0.0097
2306.0,0.0101
2305.0,0.0104
2304.0,0.0106
2303.0,0.0108
2302.0,0.0109
2301.0,0.011
2300.0,0.0112
2299.0,0.0115
2298.0,0.0118
2297.0,0.0121
2296.0,0.0124
2295.0,0.0127
2294.0,0.0131
2293.0,0.0133
2292.0,0.0136
2291.0,0.0138
2290.0,0.0141
2289.0,0.0143
2288.0,0.0146
2287.0,0.0149
2286.0,0.0152
2285.0,0.0155
2284.0,0.0156
2283.0,0.0156
2282.0,0.0156
2281.0,0.0154
2280.0,0.0152
2279.0,0.0151
2278.0,0.015
2277.0,0.0148
2276.0,0.0147
2275.0,0.0146
2274.0,0.0145
2273.0,0.0145
2272.0,0.0144
2271.0,0.0144
2270.0,0.0144
2269.0,0.0144
2268.0,0.0144
2267.0,0.0144
2266.0,0.0145
2265.0,0.0144
2264.0,0.0144
2263.0,0.0144
2262.0,0.0144
2261.0,0.0145
2260.0,0.0146
2259.0,0.0147
2258.0,0.0148
2257.0,0.0147
2256.0,0.0147
2255.0,0.0147
2254.0,0.0146
2253.0,0.0147
2252.0,0.0147
2251.0,0.0147
2250.0,0.0147
2249.0,0.0147
2248.0,0.0148
2247.0,0.0148
2246.0,0.0149
2245.0,0.0149
2244.0,0.0149
2243.0,0.0149
2242.0,0.0149
2241.0,0.0149
2240.0,0.0149
2239.0,0.0149
2238.0,0.0148
2237.0,0.0148
2236.0,0.0148
2235.0,0.0147
2234.0,0.0147
2233.0,0.0146
2232.0,0.0146
2231.0,0.0146
2230.0,0.0146
2229.0,0.0146
2228.0,0.0146
2227.0,0.0146
2226.0,0.0146
2225.0,0.0146
2224.0,0.0146
2223.0,0.0146
2222.0,0.0146
2221.0,0.0146
2220.0,0.0145
2219.0,0.0145
2218.0,0.0145
2217.0,0.0144
2216.0,0.0144
2215.0,0.0144
2214.0,0.0144
2213.0,0.0143
2212.0,0.0143
2211.0,0.0143
2210.0,0.0143
2209.0,0.0143
2208.0,0.0143
2207.0,0.0142
2206.0,0.0142
2205.0,0.0142
2204.0,0.0142
2203.0,0.0142
2202.0,0.0142
2201.0,0.0141
2200.0,0.0141
2199.0,0.014
2198.0,0.014
2197.0,0.014
2196.0,0.0139
2195.0,0.0139
2194.0,0.0139
2193.0,0.0139
2192.0,0.0138
2191.0,0.0138
2190.0,0.0138
2189.0,0.0138
2188.0,0.0138
2187.0,0.0138
2186.0,0.0138
2185.0,0.0138
2184.0,0.0138
2183.0,0.0138
2182.0,0.0138
2181.0,0.0137
2180.0,0.0137
2179.0,0.0137
2178.0,0.0138
2177.0,0.0138
2176.0,0.0137
2175.0,0.0137
2174.0,0.0137
2173.0,0.0137
2172.0,0.0137
2171.0,0.0137
2170.0,0.0137
2169.0,0.0137
2168.0,0.0137
2167.0,0.0137
2166.0,0.0138
2165.0,0.0138
2164.0,0.0138
2163.0,0.0138
2162.0,0.0138
2161.0,0.0139
2160.0,0.0139
2159.0,0.0139
2158.0,0.0139
2157.0,0.0139
2156.0,0.0139
2155.0,0.0139
2154.0,0.0139
2153.0,0.0139
2152.0,0.0139
2151.0,0.014
2150.0,0.014
2149.0,0.014
2148.0,0.0141
2147.0,0.0141
2146.0,0.0141
2145.0,0.0141
2144.0,0.014
2143.0,0.014
2142.0,0.014
2141.0,0.014
2140.0,0.014
2139.0,0.0141
2138.0,0.0141
2137.0,0.0141
2136.0,0.0141
2135.0,0.0141
2134.0,0.014
2133.0,0.014
2132.0,0.0139
2131.0,0.0139
2130.0,0.0138
2129.0,0.0138
2128.0,0.0138
2127.0,0.0138
2126.0,0.0139
2125.0,0.0139
2124.0,0.0139
2123.0,0.0139
2122.0,0.0138
2121.0,0.0138
2120.0,0.0138
2119.0,0.0138
2118.0,0.0138
2117.0,0.0138
2116.0,0.0138
2115.0,0.0139
2114.0,0.0138
2113.0,0.0138
2112.0,0.0137
2111.0,0.0137
2110.0,0.0137
2109.0,0.0137
2108.0,0.0137
2107.0,0.0137
2106.0,0.0137
2105.0,0.0136
2104.0,0.0135
2103.0,0.0134
2102.0,0.0134
2101.0,0.0134
2100.0,0.0135
2099.0,0.0135
2098.0,0.0135
2097.0,0.0134
2096.0,0.0134
2095.0,0.0134
2094.0,0.0133
2093.0,0.0133
2092.0,0.0132
2091.0,0.0131
2090.0,0.0131
2089.0,0.0131
2088.0,0.0131
2087.0,0.0131
2086.0,0.013
2085.0,0.013
2084.0,0.0129
2083.0,0.0129
2082.0,0.0128
2081.0,0.0128
2080.0,0.0127
2079.0,0.0127
2078.0,0.0126
2077.0,0.0125
2076.0,0.0124
2075.0,0.0124
2074.0,0.0123
2073.0,0.0123
2072.0,0.0123
2071.0,0.0122
2070.0,0.0121
2069.0,0.012
2068.0,0.0119
2067.0,0.0119
2066.0,0.0118
2065.0,0.0118
2064.0,0.0118
2063.0,0.0117
2062.0,0.0117
2061.0,0.0116
2060.0,0.0115
2059.0,0.0114
2058.0,0.0114
2057.0,0.0113
2056.0,0.0113
2055.0,0.0113
2054.0,0.0112
2053.0,0.0111
2052.0,0.011
2051.0,0.0109
2050.0,0.0109
2049.0,0.0108
2048.0,0.0108
2047.0,0.0108
2046.0,0.0108
2045.0,0.0107
2044.0,0.0106
2043.0,0.0106
2042.0,0.0106
2041.0,0.0106
2040.0,0.0105
2039.0,0.0105
2038.0,0.0105
2037.0,0.0104
2036.0,0.0104
2035.0,0.0104
2034.0,0.0104
2033.0,0.0103
2032.0,0.0103
2031.0,0.0103
2030.0,0.0103
2029.0,0.0103
2028.0,0.0103
2027.0,0.0103
2026.0,0.0103
2025.0,0.0103
2024.0,0.0103
2023.0,0.0103
2022.0,0.0103
2021.0,0.0103
2020.0,0.0103
2019.0,0.0103
2018.0,0.0104
2017.0,0.0104
2016.0,0.0104
2015.0,0.0104
2014.0,0.0104
2013.0,0.0103
2012.0,0.0102
2011.0,0.0102
2010.0,0.0102
2009.0,0.0103
2008.0,0.0103
2007.0,0.0104
2006.0,0.0104
2005.0,0.0104
2004.0,0.0104
2003.0,0.0105
2002.0,0.0105
2001.0,0.0106
2000.0,0.0106
1999.0,0.0106
1998.0,0.0106
1997.0,0.0106
1996.0,0.0105
1995.0,0.0106
1994.0,0.0106
1993.0,0.0107
1992.0,0.0108
1991.0,0.011
1990.0,0.011
1989.0,0.0111
1988.0,0.0111
1987.0,0.0111
1986.0,0.0111
1985.0,0.011
1984.0,0.011
1983.0,0.011
1982.0,0.011
1981.0,0.011
1980.0,0.011
1979.0,0.0111
1978.0,0.0111
1977.0,0.0111
1976.0,0.0112
1975.0,0.0112
1974.0,0.0113
1973.0,0.0113
1972.0,0.0113
1971.0,0.0114
1970.0,0.0114
1969.0,0.0114
1968.0,0.0116
1967.0,0.0117
1966.0,0.0119
1965.0,0.012
1964.0,0.0121
1963.0,0.0122
1962.0,0.0123
1961.0,0.0124
1960.0,0.0125
1959.0,0.0126
1958.0,0.0126
1957.0,0.0127
1956.0,0.0129
1955.0,0.013
1954.0,0.0132
1953.0,0.0132
1952.0,0.0132
1951.0,0.0132
1950.0,0.0132
1949.0,0.0131
1948.0,0.013
1947.0,0.013
1946.0,0.0129
1945.0,0.0128
1944.0,0.0127
1943.0,0.0127
1942.0,0.0125
1941.0,0.0123
1940.0,0.0121
1939.0,0.0119
1938.0,0.0116
1937.0,0.0114
1936.0,0.0112
1935.0,0.011
1934.0,0.0108
1933.0,0.0106
1932.0,0.0104
1931.0,0.0103
1930.0,0.0101
1929.0,0.0099
1928.0,0.0098
1927.0,0.0096
1926.0,0.0095
1925.0,0.0093
1924.0,0.0092
1923.0,0.0092
1922.0,0.0091
1921.0,0.009
1920.0,0.0089
1919.0,0.0088
1918.0,0.0086
1917.0,0.0084
1916.0,0.0083
1915.0,0.0082
1914.0,0.008
1913.0,0.0078
1912.0,0.0076
1911.0,0.0075
1910.0,0.0075
1909.0,0.0074
1908.0,0.0073
1907.0,0.0072
1906.0,0.0071
1905.0,0.0069
1904.0,0.0067
1903.0,0.0066
1902.0,0.0066
1901.0,0.0065
1900.0,0.0064
1899.0,0.0063
1898.0,0.0062
1897.0,0.006
1896.0,0.0058
1895.0,0.0057
1894.0,0.0056
1893.0,0.0055
1892.0,0.0054
1891.0,0.0053
1890.0,0.0053
1889.0,0.0052
1888.0,0.0051
1887.0,0.005
1886.0,0.0049
1885.0,0.0047
1884.0,0.0046
1883.0,0.0044
1882.0,0.0043
1881.0,0.0043
1880.0,0.0042
1879.0,0.0041
1878.0,0.0041
1877.0,0.0039
1876.0,0.0038
1875.0,0.0037
1874.0,0.0036
1873.0,0.0035
1872.0,0.0034
1871.0,0.0034
1870.0,0.0034
1869.0,0.0034
1868.0,0.0034
1867.0,0.0034
1866.0,0.0034
1865.0,0.0032
1864.0,0.0031
1863.0,0.003
1862.0,0.0029
1861.0,0.0028
1860.0,0.0027
1859.0,0.0027
1858.0,0.0027
1857.0,0.0027
1856.0,0.0027
1855.0,0.0027
1854.0,0.0027
1853.0,0.0026
1852.0,0.0026
1851.0,0.0026
1850.0,0.0026
1849.0,0.0026
1848.0,0.0027
1847.0,0.0028
1846.0,0.003
1845.0,0.003
1844.0,0.0029
1843.0,0.003
1842.0,0.0031
1841.0,0.0032
1840.0,0.0032
1839.0,0.0031
1838.0,0.0031
1837.0,0.0031
1836.0,0.0031
1835.0,0.0032
1834.0,0.0032
1833.0,0.0032
1832.0,0.0032
1831.0,0.0033
1830.0,0.0034
1829.0,0.0033
1828.0,0.0033
1827.0,0.0034
1826.0,0.0034
1825.0,0.0034
1824.0,0.0032
1823.0,0.0032
1822.0,0.0031
1821.0,0.0029
1820.0,0.0027
1819.0,0.0025
1818.0,0.0024
1817.0,0.0022
1816.0,0.002
1815.0,0.0018
1814.0,0.0017
1813.0,0.0015
1812.0,0.0012
1811.0,0.0011
1810.0,0.0009
1809.0,0.0007
1808.0,0.0005
1807.0,0.0004
1806.0,0.0002
1805.0,-0.0001
1804.0,-0.0003
1803.0,-0.0003
1802.0,-0.0003
1801.0,-0.0005
1800.0,-0.0008
1799.0,-0.0011
1798.0,-0.0013
1797.0,-0.0015
1796.0,-0.0017
1795.0,-0.0017
1794.0,-0.0018
1793.0,-0.0021
1792.0,-0.0024
1791.0,-0.0025
1790.0,-0.0025
1789.0,-0.0027
1788.0,-0.0029
1787.0,-0.003
1786.0,-0.0031
1785.0,-0.0034
1784.0,-0.0036
1783.0,-0.0037
1782.0,-0.0037
1781.0,-0.0039
1780.0,-0.0041
1779.0,-0.004
1778.0,-0.004
1777.0,-0.0041
1776.0,-0.0042
1775.0,-0.0042
1774.0,-0.0042
1773.0,-0.0045
1772.0,-0.0048
1771.0,-0.0046
1770.0,-0.0042
1769.0,-0.0038
1768.0,-0.0036
1767.0,-0.0033
1766.0,-0.0031
1765.0,-0.0029
1764.0,-0.0025
1763.0,-0.0019
1762.0,-0.0012
1761.0,-0.0006
1760.0,0.0001
1759.0,0.0012
1758.0,0.0025
1757.0,0.0038
1756.0,0.0052
1755.0,0.0068
1754.0,0.0086
1753.0,0.0104
1752.0,0.0128
1751.0,0.0164
1750.0,0.0209
1749.0,0.0257
1748.0,0.0311
1747.0,0.037
1746.0,0.0436
1745.0,0.051
1744.0,0.0597
1743.0,0.0695
1742.0,0.0798
1741.0,0.0917
1740.0,0.1062
1739.0,0.1212
1738.0,0.1332
1737.0,0.1425
1736.0,0.1531
1735.0,0.1717
1734.0,0.198
1733.0,0.2198
1732.0,0.2352
1731.0,0.2509
1730.0,0.2691
1729.0,0.2882
1728.0,0.3063
1727.0,0.3239
1726.0,0.3422
1725.0,0.3622
1724.0,0.3839
1723.0,0.4055
1722.0,0.424
1721.0,0.4378
1720.0,0.4492
1719.0,0.4642
1718.0,0.486
1717.0,0.5047
1716.0,0.5122
1715.0,0.5128
1714.0,0.5086
1713.0,0.4982
1712.0,0.4819
1711.0,0.4617
1710.0,0.4391
1709.0,0.4149
1708.0,0.389
1707.0,0.3603
1706.0,0.3298
1705.0,0.3029
1704.0,0.2833
1703.0,0.2682
1702.0,0.2525
1701.0,0.2321
1700.0,0.2118
1699.0,0.1986
1698.0,0.1901
1697.0,0.1812
1696.0,0.1707
1695.0,0.1614
1694.0,0.1551
1693.0,0.1506
1692.0,0.1462
1691.0,0.1412
1690.0,0.1362
1689.0,0.1322
1688.0,0.1292
1687.0,0.1263
1686.0,0.1228
1685.0,0.1193
1684.0,0.1163
1683.0,0.1138
1682.0,0.1117
1681.0,0.1095
1680.0,0.1069
1679.0,0.1041
1678.0,0.1013
1677.0,0.0985
1676.0,0.0956
1675.0,0.0927
1674.0,0.0902
1673.0,0.0884
1672.0,0.0866
1671.0,0.0843
1670.0,0.0819
1669.0,0.0799
1668.0,0.0782
1667.0,0.0765
1666.0,0.0748
1665.0,0.073
1664.0,0.0711
1663.0,0.0691
1662.0,0.0674
1661.0,0.0661
1660.0,0.0649
1659.0,0.0635
1658.0,0.0621
1657.0,0.0607
1656.0,0.0595
1655.0,0.0582
1654.0,0.0572
1653.0,0.0567
1652.0,0.0559
1651.0,0.0551
1650.0,0.0546
1649.0,0.0541
1648.0,0.0534
1647.0,0.0526
1646.0,0.052
1645.0,0.0514
1644.0,0.0509
1643.0,0.0503
1642.0,0.0497
1641.0,0.0492
1640.0,0.0485
1639.0,0.0478
1638.0,0.0471
1637.0,0.0467
1636.0,0.0465
1635.0,0.0462
1634.0,0.0457
1633.0,0.0454
1632.0,0.045
1631.0,0.0444
1630.0,0.0438
1629.0,0.0433
1628.0,0.0429
1627.0,0.0425
1626.0,0.0421
1625.0,0.0418
1624.0,0.0416
1623.0,0.0414
1622.0,0.0415
1621.0,0.0416
1620.0,0.0418
1619.0,0.0421
1618.0,0.0428
1617.0,0.0443
1616.0,0.0458
1615.0,0.0464
1614.0,0.0465
1613.0,0.0462
1612.0,0.0455
1611.0,0.0445
1610.0,0.0433
1609.0,0.0422
1608.0,0.0412
1607.0,0.0401
1606.0,0.039
1605.0,0.038
1604.0,0.037
1603.0,0.0361
1602.0,0.0352
1601.0,0.0344
1600.0,0.0337
1599.0,0.033
1598.0,0.0323
1597.0,0.0318
1596.0,0.0314
1595.0,0.0311
1594.0,0.0309
1593.0,0.0308
1592.0,0.0308
1591.0,0.0308
1590.0,0.031
1589.0,0.0314
1588.0,0.0319
1587.0,0.0327
1586.0,0.0341
1585.0,0.0361
1584.0,0.0388
1583.0,0.0421
1582.0,0.0456
1581.0,0.0488
1580.0,0.0512
1579.0,0.0526
1578.0,0.0526
1577.0,0.0509
1576.0,0.048
1575.0,0.0451
1574.0,0.043
1573.0,0.0414
1572.0,0.0396
1571.0,0.0376
1570.0,0.0354
1569.0,0.0338
1568.0,0.0327
1567.0,0.032
1566.0,0.0311
1565.0,0.0303
1564.0,0.0294
1563.0,0.0288
1562.0,0.0282
1561.0,0.0275
1560.0,0.027
1559.0,0.027
1558.0,0.0266
1557.0,0.0263
1556.0,0.0261
1555.0,0.0258
1554.0,0.0254
1553.0,0.0249
1552.0,0.0245
1551.0,0.0242
1550.0,0.0239
1549.0,0.0236
1548.0,0.0233
1547.0,0.0229
1546.0,0.0225
1545.0,0.0223
1544.0,0.0222
1543.0,0.022
1542.0,0.0218
1541.0,0.0217
1540.0,0.0218
1539.0,0.0214
1538.0,0.0211
1537.0,0.0212
1536.0,0.0213
1535.0,0.0213
1534.0,0.0215
1533.0,0.0219
1532.0,0.0222
1531.0,0.0223
1530.0,0.0222
1529.0,0.0222
1528.0,0.0222
1527.0,0.0222
1526.0,0.0221
1525.0,0.0219
1524.0,0.0216
1523.0,0.0213
1522.0,0.021
1521.0,0.0209
1520.0,0.0208
1519.0,0.0206
1518.0,0.0205
1517.0,0.0206
1516.0,0.0207
1515.0,0.0208
1514.0,0.0211
1513.0,0.0218
1512.0,0.0229
1511.0,0.0243
1510.0,0.0263
1509.0,0.0294
1508.0,0.0362
1507.0,0.0469
1506.0,0.0536
1505.0,0.054
1504.0,0.0514
1503.0,0.0474
1502.0,0.0425
1501.0,0.0373
1500.0,0.0323
1499.0,0.0279
1498.0,0.0241
1497.0,0.0212
1496.0,0.0191
1495.0,0.0176
1494.0,0.0166
1493.0,0.0159
1492.0,0.0154
1491.0,0.0149
1490.0,0.0146
1489.0,0.0148
1488.0,0.0151
1487.0,0.0152
1486.0,0.0151
1485.0,0.0152
1484.0,0.0154
1483.0,0.0157
1482.0,0.016
1481.0,0.0166
1480.0,0.0171
1479.0,0.0176
1478.0,0.0179
1477.0,0.0184
1476.0,0.019
1475.0,0.0195
1474.0,0.0199
1473.0,0.0206
1472.0,0.0216
1471.0,0.0224
1470.0,0.023
1469.0,0.0239
1468.0,0.0249
1467.0,0.0263
1466.0,0.0283
1465.0,0.0314
1464.0,0.0347
1463.0,0.0374
1462.0,0.0396
1461.0,0.0417
1460.0,0.044
1459.0,0.0467
1458.0,0.0507
1457.0,0.0555
1456.0,0.0585
1455.0,0.0596
1454.0,0.0602
1453.0,0.0605
1452.0,0.0605
1451.0,0.0602
1450.0,0.0597
1449.0,0.0594
1448.0,0.0591
1447.0,0.0587
1446.0,0.0585
1445.0,0.0583
1444.0,0.0581
1443.0,0.0578
1442.0,0.0573
1441.0,0.0568
1440.0,0.056
1439.0,0.0548
1438.0,0.0529
1437.0,0.0502
1436.0,0.047
1435.0,0.044
1434.0,0.0412
1433.0,0.0383
1432.0,0.035
1431.0,0.0315
1430.0,0.0283
1429.0,0.0255
1428.0,0.0233
1427.0,0.0217
1426.0,0.0204
1425.0,0.0195
1424.0,0.019
1423.0,0.019
1422.0,0.0195
1421.0,0.0206
1420.0,0.0233
1419.0,0.0283
1418.0,0.0351
1417.0,0.0429
1416.0,0.0523
1415.0,0.0637
1414.0,0.0777
1413.0,0.0942
1412.0,0.1121
1411.0,0.1281
1410.0,0.1394
1409.0,0.1446
1408.0,0.144
1407.0,0.1379
1406.0,0.1278
1405.0,0.1162
1404.0,0.1055
1403.0,0.0969
1402.0,0.09
1401.0,0.0841
1400.0,0.0784
1399.0,0.073
1398.0,0.0686
1397.0,0.0652
1396.0,0.0619
1395.0,0.0583
1394.0,0.055
1393.0,0.0523
1392.0,0.05
1391.0,0.0479
1390.0,0.0458
1389.0,0.0439
1388.0,0.0422
1387.0,0.0409
1386.0,0.0401
1385.0,0.0398
1384.0,0.0399
1383.0,0.0404
1382.0,0.0413
1381.0,0.0427
1380.0,0.0447
1379.0,0.0471
1378.0,0.0496
1377.0,0.0522
1376.0,0.0551
1375.0,0.0585
1374.0,0.062
1373.0,0.0648
1372.0,0.0666
1371.0,0.0673
1370.0,0.0669
1369.0,0.0654
1368.0,0.0625
1367.0,0.0586
1366.0,0.054
1365.0,0.0489
1364.0,0.0432
1363.0,0.0373
1362.0,0.0321
1361.0,0.0281
1360.0,0.025
1359.0,0.0226
1358.0,0.0207
1357.0,0.0193
1356.0,0.0183
1355.0,0.0177
1354.0,0.0175
1353.0,0.0176
1352.0,0.0182
1351.0,0.0191
1350.0,0.0205
1349.0,0.0224
1348.0,0.0247
1347.0,0.0274
1346.0,0.0304
1345.0,0.0337
1344.0,0.037
1343.0,0.04
1342.0,0.0425
1341.0,0.0443
1340.0,0.045
1339.0,0.0443
1338.0,0.042
1337.0,0.0386
1336.0,0.0346
1335.0,0.0305
1334.0,0.0268
1333.0,0.0238
1332.0,0.0215
1331.0,0.0202
1330.0,0.0196
1329.0,0.0197
1328.0,0.0204
1327.0,0.0216
1326.0,0.0231
1325.0,0.025
1324.0,0.0272
1323.0,0.0294
1322.0,0.0318
1321.0,0.0342
1320.0,0.0367
1319.0,0.0393
1318.0,0.0418
1317.0,0.0443
1316.0,0.0468
1315.0,0.0494
1314.0,0.0522
1313.0,0.0553
1312.0,0.0586
1311.0,0.0621
1310.0,0.0656
1309.0,0.0693
1308.0,0.0731
1307.0,0.0768
1306.0,0.0805
1305.0,0.0841
1304.0,0.0881
1303.0,0.0925
1302.0,0.0977
1301.0,0.1039
1300.0,0.1111
1299.0,0.1191
1298.0,0.1277
1297.0,0.1369
1296.0,0.1465
1295.0,0.1561
1294.0,0.1655
1293.0,0.1749
1292.0,0.1843
1291.0,0.1934
1290.0,0.202
1289.0,0.2105
1288.0,0.2187
1287.0,0.2263
1286.0,0.2331
1285.0,0.2393
1284.0,0.2451
1283.0,0.2502
1282.0,0.2545
1281.0,0.2584
1280.0,0.2618
1279.0,0.2647
1278.0,0.2672
1277.0,0.27
1276.0,0.2735
1275.0,0.2779
1274.0,0.2834
1273.0,0.2907
1272.0,0.3001
1271.0,0.3113
1270.0,0.3241
1269.0,0.3385
1268.0,0.3543
1267.0,0.3706
1266.0,0.3872
1265.0,0.4038
1264.0,0.4202
1263.0,0.4353
1262.0,0.4486
1261.0,0.4601
1260.0,0.4698
1259.0,0.4768
1258.0,0.4814
1257.0,0.4849
1256.0,0.4883
1255.0,0.4916
1254.0,0.4953
1253.0,0.5004
1252.0,0.5072
1251.0,0.515
1250.0,0.5235
1249.0,0.5335
1248.0,0.5447
1247.0,0.556
1246.0,0.5669
1245.0,0.5777
1244.0,0.5882
1243.0,0.5967
1242.0,0.6022
1241.0,0.6051
1240.0,0.605
1239.0,0.6004
1238.0,0.591
1237.0,0.5776
1236.0,0.5606
1235.0,0.5396
1234.0,0.5157
1233.0,0.4906
1232.0,0.4654
1231.0,0.4402
1230.0,0.4157
1229.0,0.3926
1228.0,0.371
1227.0,0.3504
1226.0,0.3309
1225.0,0.3126
1224.0,0.2955
1223.0,0.2795
1222.0,0.2645
1221.0,0.2508
1220.0,0.2382
1219.0,0.2265
1218.0,0.2157
1217.0,0.206
1216.0,0.1971
1215.0,0.1888
1214.0,0.1812
1213.0,0.1742
1212.0,0.1679
1211.0,0.162
1210.0,0.1565
1209.0,0.1514
1208.0,0.1467
1207.0,0.1421
1206.0,0.1377
1205.0,0.1336
1204.0,0.1298
1203.0,0.1261
1202.0,0.1225
1201.0,0.119
1200.0,0.1157
1199.0,0.1124
1198.0,0.1092
1197.0,0.1061
1196.0,0.1031
1195.0,0.1002
1194.0,0.0974
1193.0,0.0947
1192.0,0.0922
1191.0,0.09
1190.0,0.088
1189.0,0.0863
1188.0,0.0851
1187.0,0.0842
1186.0,0.0839
1185.0,0.084
1184.0,0.0846
1183.0,0.0858
1182.0,0.0874
1181.0,0.0894
1180.0,0.0917
1179.0,0.094
1178.0,0.0962
1177.0,0.098
1176.0,0.0992
1175.0,0.0997
1174.0,0.0994
1173.0,0.0981
1172.0,0.0958
1171.0,0.0926
1170.0,0.0886
1169.0,0.0844
1168.0,0.0802
1167.0,0.0762
1166.0,0.0727
1165.0,0.0698
1164.0,0.0675
1163.0,0.0657
1162.0,0.0643
1161.0,0.0633
1160.0,0.0627
1159.0,0.0625
1158.0,0.0626
1157.0,0.0632
1156.0,0.0644
1155.0,0.066
1154.0,0.0683
1153.0,0.0713
1152.0,0.075
1151.0,0.0794
1150.0,0.0842
1149.0,0.0896
1148.0,0.0956
1147.0,0.1021
1146.0,0.109
1145.0,0.1163
1144.0,0.1238
1143.0,0.1314
1142.0,0.1388
1141.0,0.1461
1140.0,0.153
1139.0,0.1595
1138.0,0.1656
1137.0,0.1712
1136.0,0.1765
1135.0,0.1815
1134.0,0.1863
1133.0,0.1913
1132.0,0.1966
1131.0,0.2022
1130.0,0.2083
1129.0,0.2154
1128.0,0.2236
1127.0,0.2328
1126.0,0.243
1125.0,0.2541
1124.0,0.2659
1123.0,0.2778
1122.0,0.2892
1121.0,0.2998
1120.0,0.3091
1119.0,0.3161
1118.0,0.3204
1117.0,0.3222
1116.0,0.3214
1115.0,0.3181
1114.0,0.3133
1113.0,0.3084
1112.0,0.305
1111.0,0.3038
1110.0,0.3057
1109.0,0.3115
1108.0,0.3211
1107.0,0.3338
1106.0,0.3489
1105.0,0.3662
1104.0,0.3855
1103.0,0.4057
1102.0,0.4263
1101.0,0.4471
1100.0,0.4675
1099.0,0.4864
1098.0,0.5029
1097.0,0.517
1096.0,0.5285
1095.0,0.5364
1094.0,0.5404
1093.0,0.5413
1092.0,0.5392
1091.0,0.5338
1090.0,0.5254
1089.0,0.5154
1088.0,0.5042
1087.0,0.4914
1086.0,0.4773
1085.0,0.4624
1084.0,0.4469
1083.0,0.4302
1082.0,0.4123
1081.0,0.3939
1080.0,0.3753
1079.0,0.3561
1078.0,0.337
1077.0,0.3185
1076.0,0.3009
1075.0,0.2842
1074.0,0.2685
1073.0,0.2541
1072.0,0.2412
1071.0,0.2293
1070.0,0.2185
1069.0,0.209
1068.0,0.2005
1067.0,0.1929
1066.0,0.186
1065.0,0.1799
1064.0,0.1746
1063.0,0.1699
1062.0,0.1659
1061.0,0.1627
1060.0,0.1604
1059.0,0.1588
1058.0,0.1581
1057.0,0.1584
1056.0,0.1598
1055.0,0.1619
1054.0,0.1648
1053.0,0.1683
1052.0,0.1723
1051.0,0.1766
1050.0,0.181
1049.0,0.1855
1048.0,0.19
1047.0,0.1942
1046.0,0.1979
1045.0,0.201
1044.0,0.2035
1043.0,0.2051
1042.0,0.2057
1041.0,0.2055
1040.0,0.2047
1039.0,0.2032
1038.0,0.2012
1037.0,0.1989
1036.0,0.1965
1035.0,0.1941
1034.0,0.1916
1033.0,0.1894
1032.0,0.1873
1031.0,0.1851
1030.0,0.183
1029.0,0.181
1028.0,0.1796
1027.0,0.1789
1026.0,0.1797
1025.0,0.183
1024.0,0.1899
1023.0,0.2014
1022.0,0.2186
1021.0,0.2414
1020.0,0.2684
1019.0,0.296
1018.0,0.3192
1017.0,0.3323
1016.0,0.3312
1015.0,0.3158
1014.0,0.2905
1013.0,0.262
1012.0,0.2355
1011.0,0.2133
1010.0,0.1955
1009.0,0.1815
1008.0,0.1703
1007.0,0.1611
1006.0,0.1536
1005.0,0.1475
1004.0,0.1426
1003.0,0.1384
1002.0,0.1348
1001.0,0.1316
1000.0,0.1288
999.0,0.1263
998.0,0.124
997.0,0.1219
996.0,0.12
995.0,0.1183
994.0,0.1169
993.0,0.1156
992.0,0.1146
991.0,0.1137
990.0,0.1128
989.0,0.1122
988.0,0.1118
987.0,0.1115
986.0,0.1114
985.0,0.1114
984.0,0.1115
983.0,0.1116
982.0,0.1118
981.0,0.1119
980.0,0.1122
979.0,0.1123
978.0,0.1124
977.0,0.1125
976.0,0.1126
975.0,0.1125
974.0,0.1123
973.0,0.112
972.0,0.1114
971.0,0.1105
970.0,0.1093
969.0,0.108
968.0,0.1066
967.0,0.1051
966.0,0.1034
965.0,0.1016
964.0,0.0999
963.0,0.0982
962.0,0.0965
961.0,0.095
960.0,0.0936
959.0,0.0923
958.0,0.0911
957.0,0.09
956.0,0.0891
955.0,0.0882
954.0,0.0873
953.0,0.0866
952.0,0.0859
951.0,0.0852
950.0,0.0846
949.0,0.0842
948.0,0.0838
947.0,0.0834
946.0,0.0829
945.0,0.0823
944.0,0.0818
943.0,0.0813
942.0,0.0808
941.0,0.0805
940.0,0.0803
939.0,0.08
938.0,0.0797
937.0,0.0794
936.0,0.0791
935.0,0.0789
934.0,0.0786
933.0,0.0782
932.0,0.0779
931.0,0.0776
930.0,0.0772
929.0,0.0767
928.0,0.0763
927.0,0.0758
926.0,0.0752
925.0,0.0748
924.0,0.0744
923.0,0.074
922.0,0.0737
921.0,0.0734
920.0,0.0732
919.0,0.0731
918.0,0.0731
917.0,0.0732
916.0,0.0735
915.0,0.0741
914.0,0.075
913.0,0.0762
912.0,0.0779
911.0,0.0799
910.0,0.0822
909.0,0.0849
908.0,0.0881
907.0,0.0916
906.0,0.0952
905.0,0.0989
904.0,0.1025
903.0,0.1059
902.0,0.109
901.0,0.1117
900.0,0.1141
899.0,0.1159
898.0,0.1172
897.0,0.1182
896.0,0.1188
895.0,0.1192
894.0,0.1193
893.0,0.1194
892.0,0.1196
891.0,0.1199
890.0,0.1204
889.0,0.1213
888.0,0.1226
887.0,0.1242
886.0,0.1264
885.0,0.1291
884.0,0.1325
883.0,0.1365
882.0,0.1412
881.0,0.1468
880.0,0.1535
879.0,0.161
878.0,0.169
877.0,0.1773
876.0,0.1853
875.0,0.1921
874.0,0.1969
873.0,0.199
872.0,0.198
871.0,0.1938
870.0,0.1868
869.0,0.1782
868.0,0.1688
867.0,0.1595
866.0,0.1508
865.0,0.143
864.0,0.1365
863.0,0.1311
862.0,0.1269
861.0,0.1238
860.0,0.1215
859.0,0.1199
858.0,0.1186
857.0,0.1179
856.0,0.1174
855.0,0.1171
854.0,0.1169
853.0,0.1168
852.0,0.1168
851.0,0.1168
850.0,0.1168
849.0,0.1168
848.0,0.1167
847.0,0.1166
846.0,0.1164
845.0,0.1164
844.0,0.1165
843.0,0.1166
842.0,0.1165
841.0,0.1163
840.0,0.116
839.0,0.1154
838.0,0.1145
837.0,0.1135
836.0,0.1123
835.0,0.1109
834.0,0.1094
833.0,0.1079
832.0,0.1065
831.0,0.105
830.0,0.1037
829.0,0.1024
828.0,0.1014
827.0,0.1005
826.0,0.0996
825.0,0.0988
824.0,0.0981
823.0,0.0975
822.0,0.0969
821.0,0.0964
820.0,0.0961
819.0,0.0958
818.0,0.0956
817.0,0.0956
816.0,0.0957
815.0,0.0958
814.0,0.0959
813.0,0.0959
812.0,0.0959
811.0,0.0956
810.0,0.0953
809.0,0.095
808.0,0.0947
807.0,0.0944
806.0,0.094
805.0,0.0935
804.0,0.093
803.0,0.0924
802.0,0.0915
801.0,0.0908
800.0,0.0907
799.0,0.0918
798.0,0.0946
797.0,0.0993
796.0,0.105
795.0,0.1103
794.0,0.1139
793.0,0.1152
792.0,0.1143
791.0,0.1113
790.0,0.1071
789.0,0.1023
788.0,0.0975
787.0,0.0929
786.0,0.0885
785.0,0.0846
784.0,0.0813
783.0,0.0784
782.0,0.0759
781.0,0.0737
780.0,0.0718
779.0,0.07
778.0,0.0683
777.0,0.0667
776.0,0.0651
775.0,0.0637
774.0,0.0623
773.0,0.0611
772.0,0.0601
771.0,0.0589
770.0,0.0575
769.0,0.0561
768.0,0.0547
767.0,0.0534
766.0,0.052
765.0,0.0508
764.0,0.0495
763.0,0.0482
762.0,0.0467
761.0,0.0455
760.0,0.0443
759.0,0.0432
758.0,0.0419
757.0,0.0406
756.0,0.0394
755.0,0.038
754.0,0.0366
753.0,0.0354
752.0,0.0343
751.0,0.0333
750.0,0.0324
749.0,0.0319
748.0,0.0318
747.0,0.0324
746.0,0.0339
745.0,0.0366
744.0,0.0412
743.0,0.048
742.0,0.0577
741.0,0.0709
740.0,0.0879
739.0,0.1083
738.0,0.1313
737.0,0.1565
736.0,0.1832
735.0,0.2106
734.0,0.2388
733.0,0.2685
732.0,0.3007
731.0,0.3361
730.0,0.3752
729.0,0.4195
728.0,0.4689
727.0,0.5203
726.0,0.5676
725.0,0.6019
724.0,0.614
723.0,0.5981
722.0,0.5569
721.0,0.5003
720.0,0.441
719.0,0.3883
718.0,0.3454
717.0,0.3112
716.0,0.2838
715.0,0.2622
714.0,0.2457
713.0,0.2337
712.0,0.2248
711.0,0.2175
710.0,0.211
709.0,0.2049
708.0,0.199
707.0,0.1933
706.0,0.1878
705.0,0.1824
704.0,0.177
703.0,0.1715
702.0,0.1657
701.0,0.1595
700.0,0.1531
699.0,0.1467
698.0,0.1408
697.0,0.1355
696.0,0.1309
695.0,0.1269
694.0,0.1234
693.0,0.1206
692.0,0.1183
691.0,0.1164
690.0,0.1147
689.0,0.1133
688.0,0.112
687.0,0.1108
686.0,0.1096
685.0,0.1089
684.0,0.109
683.0,0.1094
682.0,0.1096
681.0,0.1092
680.0,0.1082
679.0,0.1066
678.0,0.1045
677.0,0.1025
676.0,0.1009
675.0,0.0992
674.0,0.098
673.0,0.0956
672.0,0.096
671.0,0.0955
670.0,0.0937
669.0,0.0937
668.0,0.0938
667.0,0.093
666.0,0.0915
665.0,0.0904
664.0,0.0895
663.0,0.0888
662.0,0.0881
661.0,0.0875
660.0,0.0872
659.0,0.0868
658.0,0.0871
657.0,0.0845
656.0,0.0827
655.0,0.0823
654.0,0.0812
653.0,0.0808
652.0,0.0806
651.0,0.0807
650.0,0.0805
649.0,0.0803
648.0,0.0799
647.0,0.0793
646.0,0.0787
645.0,0.0783
644.0,0.0781
643.0,0.0779
642.0,0.0778
641.0,0.078
640.0,0.0784
639.0,0.0789
638.0,0.0798
637.0,0.0818
636.0,0.0851
635.0,0.0895
634.0,0.0938
633.0,0.0965
632.0,0.0961
631.0,0.0928
630.0,0.0883
629.0,0.0847
628.0,0.0826
627.0,0.0812
626.0,0.0802
625.0,0.0794
624.0,0.0789
623.0,0.0786
622.0,0.0782
621.0,0.0777
620.0,0.0771
619.0,0.0763
618.0,0.0753
617.0,0.075
616.0,0.0756
615.0,0.0761
614.0,0.0761
613.0,0.0755
612.0,0.0749
611.0,0.0745
610.0,0.0743
609.0,0.0743
608.0,0.0743
607.0,0.0738
606.0,0.0728
605.0,0.072
604.0,0.0716
603.0,0.0715
602.0,0.0719
601.0,0.0727
600.0,0.0736
