cm-1,A
4000.0,0.0030944893043338695
3999.0,0.0030944893043338695
3998.0,0.0031382315093266833
3997.0,0.0031819781204844855
3996.0,0.0032694845648473247
3995.0,0.0033570086445275926
3994.0,0.0034445503666347133
3993.0,0.003488327845821315
3992.0,0.003488327845821315
3991.0,0.0034445503666347133
3990.0,0.0034007772998332353
3989.0,0.0033132443998284966
3988.0,0.0032694845648473247
3987.0,0.0032694845648473247
3986.0,0.0032694845648473247
3985.0,0.0032257291386954545
3984.0,0.0031819781204844855
3983.0,0.0031382315093266833
3982.0,0.0030944893043338695
3981.0,0.0031382315093266833
3980.0,0.0032257291386954545
3979.0,0.0032694845648473247
3978.0,0.0032694845648473247
3977.0,0.0032257291386954545
3976.0,0.0031382315093266833
3975.0,0.0030944893043338695
3974.0,0.0031382315093266833
3973.0,0.0031819781204844855
3972.0,0.0032694845648473247
3971.0,0.0033132443998284966
3970.0,0.0033132443998284966
3969.0,0.0032694845648473247
3968.0,0.0032257291386954545
3967.0,0.0031819781204844855
3966.0,0.0031382315093266833
3965.0,0.0030944893043338695
3964.0,0.003050751504618754
3963.0,0.003050751504618754
3962.0,0.0030944893043338695
3961.0,0.0031382315093266833
3960.0,0.0031819781204844855
3959.0,0.0031819781204844855
3958.0,0.0030944893043338695
3957.0,0.0030070181092942683
3956.0,0.0029632891174733444
3955.0,0.0029632891174733444
3954.0,0.0030070181092942683
3953.0,0.0030070181092942683
3952.0,0.0030070181092942683
3951.0,0.0029632891174733444
3950.0,0.0029632891174733444
3949.0,0.003050751504618754
3948.0,0.0030944893043338695
3947.0,0.0031819781204844855
3946.0,0.0031819781204844855
3945.0,0.0031819781204844855
3944.0,0.0031382315093266833
3943.0,0.0030944893043338695
3942.0,0.003050751504618754
3941.0,0.003050751504618754
3940.0,0.003050751504618754
3939.0,0.0030944893043338695
3938.0,0.0031382315093266833
3937.0,0.0031819781204844855
3936.0,0.0031382315093266833
3935.0,0.003050751504618754
3934.0,0.0029632891174733444
3933.0,0.0029195645282691363
3932.0,0.0029632891174733444
3931.0,0.003050751504618754
3930.0,0.0030944893043338695
3929.0,0.0030944893043338695
3928.0,0.003050751504618754
3927.0,0.0030070181092942683
3926.0,0.0030070181092942683
3925.0,0.003050751504618754
3924.0,0.0030944893043338695
3923.0,0.0031382315093266833
3922.0,0.0031382315093266833
3921.0,0.0031382315093266833
3920.0,0.0030944893043338695
3919.0,0.0030944893043338695
3918.0,0.0030944893043338695
3917.0,0.0031382315093266833
3916.0,0.0031819781204844855
3915.0,0.0033132443998284966
3914.0,0.0034007772998332353
3913.0,0.0035321097382827737
3912.0,0.0035758960449088217
3911.0,0.0035758960449088217
3910.0,0.0035321097382827737
3909.0,0.003488327845821315
3908.0,0.0034007772998332353
3907.0,0.0033570086445275926
3906.0,0.0032694845648473247
3905.0,0.0031819781204844855
3904.0,0.0031382315093266833
3903.0,0.0030944893043338695
3902.0,0.0030944893043338695
3901.0,0.0030944893043338695
3900.0,0.003050751504618754
3899.0,0.0030070181092942683
3898.0,0.003050751504618754
3897.0,0.0031382315093266833
3896.0,0.0032694845648473247
3895.0,0.0033132443998284966
3894.0,0.0034007772998332353
3893.0,0.0034445503666347133
3892.0,0.0034007772998332353
3891.0,0.0033132443998284966
3890.0,0.0031819781204844855
3889.0,0.0032257291386954545
3888.0,0.0033570086445275926
3887.0,0.0034445503666347133
3886.0,0.0034445503666347133
3885.0,0.0033570086445275926
3884.0,0.0032694845648473247
3883.0,0.0033132443998284966
3882.0,0.0033570086445275926
3881.0,0.0033132443998284966
3880.0,0.0032257291386954545
3879.0,0.0031382315093266833
3878.0,0.0031819781204844855
3877.0,0.0032694845648473247
3876.0,0.0033570086445275926
3875.0,0.0034007772998332353
3874.0,0.0033570086445275926
3873.0,0.0034445503666347133
3872.0,0.0035758960449088217
3871.0,0.003707281458678491
3870.0,0.0036634819042162814
3869.0,0.003488327845821315
3868.0,0.0034445503666347133
3867.0,0.0035321097382827737
3866.0,0.003488327845821315
3865.0,0.0033570086445275926
3864.0,0.0032257291386954545
3863.0,0.0031819781204844855
3862.0,0.0031819781204844855
3861.0,0.0032257291386954545
3860.0,0.0032257291386954545
3859.0,0.0032694845648473247
3858.0,0.0033570086445275926
3857.0,0.0034445503666347133
3856.0,0.003488327845821315
3855.0,0.0035758960449088217
3854.0,0.0035758960449088217
3853.0,0.0034007772998332353
3852.0,0.0032257291386954545
3851.0,0.0032694845648473247
3850.0,0.0033570086445275926
3849.0,0.0033132443998284966
3848.0,0.0032257291386954545
3847.0,0.0031382315093266833
3846.0,0.0031819781204844855
3845.0,0.0032257291386954545
3844.0,0.0033132443998284966
3843.0,0.0033570086445275926
3842.0,0.0033132443998284966
3841.0,0.0032694845648473247
3840.0,0.0032257291386954545
3839.0,0.0032257291386954545
3838.0,0.0032694845648473247
3837.0,0.0033132443998284966
3836.0,0.0033570086445275926
3835.0,0.0033570086445275926
3834.0,0.0034007772998332353
3833.0,0.0033570086445275926
3832.0,0.0033132443998284966
3831.0,0.0033132443998284966
3830.0,0.0033132443998284966
3829.0,0.0034007772998332353
3828.0,0.0034445503666347133
3827.0,0.0033570086445275926
3826.0,0.0031819781204844855
3825.0,0.0030070181092942683
3824.0,0.0029632891174733444
3823.0,0.003050751504618754
3822.0,0.0031819781204844855
3821.0,0.0032257291386954545
3820.0,0.0031819781204844855
3819.0,0.0032257291386954545
3818.0,0.0034007772998332353
3817.0,0.0034445503666347133
3816.0,0.0033570086445275926
3815.0,0.0032694845648473247
3814.0,0.0033570086445275926
3813.0,0.0034445503666347133
3812.0,0.003488327845821315
3811.0,0.0034445503666347133
3810.0,0.003488327845821315
3809.0,0.0036634819042162814
3808.0,0.0038387066319929275
3807.0,0.003794893821675638
3806.0,0.0035758960449088217
3805.0,0.0035321097382827737
3804.0,0.003619686766589858
3803.0,0.003707281458678491
3802.0,0.003707281458678491
3801.0,0.0035758960449088217
3800.0,0.003488327845821315
3799.0,0.0035758960449088217
3798.0,0.003707281458678491
3797.0,0.003707281458678491
3796.0,0.0035758960449088217
3795.0,0.0034445503666347133
3794.0,0.0034007772998332353
3793.0,0.0034007772998332353
3792.0,0.0033570086445275926
3791.0,0.0032694845648473247
3790.0,0.0031819781204844855
3789.0,0.0031382315093266833
3788.0,0.0031382315093266833
3787.0,0.0031382315093266833
3786.0,0.0030944893043338695
3785.0,0.003050751504618754
3784.0,0.0029632891174733444
3783.0,0.0029632891174733444
3782.0,0.0030070181092942683
3781.0,0.0031382315093266833
3780.0,0.0032257291386954545
3779.0,0.0032257291386954545
3778.0,0.0031819781204844855
3777.0,0.0031819781204844855
3776.0,0.0032257291386954545
3775.0,0.0032694845648473247
3774.0,0.0032694845648473247
3773.0,0.0033132443998284966
3772.0,0.0033132443998284966
3771.0,0.0032694845648473247
3770.0,0.0031819781204844855
3769.0,0.0031382315093266833
3768.0,0.0031382315093266833
3767.0,0.0031819781204844855
3766.0,0.0031819781204844855
3765.0,0.0030944893043338695
3764.0,0.0029632891174733444
3763.0,0.0029632891174733444
3762.0,0.0029632891174733444
3761.0,0.0029632891174733444
3760.0,0.0030070181092942683
3759.0,0.003050751504618754
3758.0,0.0030944893043338695
3757.0,0.0031382315093266833
3756.0,0.0031382315093266833
3755.0,0.0032257291386954545
3754.0,0.0033132443998284966
3753.0,0.0034445503666347133
3752.0,0.003619686766589858
3751.0,0.0037510854308679953
3750.0,0.003619686766589858
3749.0,0.0034007772998332353
3748.0,0.0033132443998284966
3747.0,0.0033570086445275926
3746.0,0.003488327845821315
3745.0,0.0034445503666347133
3744.0,0.0031819781204844855
3743.0,0.003050751504618754
3742.0,0.0031819781204844855
3741.0,0.0034007772998332353
3740.0,0.003488327845821315
3739.0,0.0035758960449088217
3738.0,0.003707281458678491
3737.0,0.0038825238627120395
3736.0,0.003970171588923321
3735.0,0.003970171588923321
3734.0,0.003970171588923321
3733.0,0.00401400208620073
3732.0,0.003926345514724705
3731.0,0.0037510854308679953
3730.0,0.003619686766589858
3729.0,0.0035321097382827737
3728.0,0.0034445503666347133
3727.0,0.0033132443998284966
3726.0,0.0032694845648473247
3725.0,0.0033132443998284966
3724.0,0.0034007772998332353
3723.0,0.0034445503666347133
3722.0,0.0034007772998332353
3721.0,0.0033570086445275926
3720.0,0.0033570086445275926
3719.0,0.0034445503666347133
3718.0,0.003488327845821315
3717.0,0.0035321097382827737
3716.0,0.0035321097382827737
3715.0,0.0035321097382827737
3714.0,0.0035758960449088217
3713.0,0.0036634819042162814
3712.0,0.0038387066319929275
3711.0,0.003926345514724705
3710.0,0.003926345514724705
3709.0,0.0038825238627120395
3708.0,0.0038387066319929275
3707.0,0.003794893821675638
3706.0,0.003794893821675638
3705.0,0.003794893821675638
3704.0,0.0038387066319929275
3703.0,0.0038387066319929275
3702.0,0.0038387066319929275
3701.0,0.0037510854308679953
3700.0,0.0036634819042162814
3699.0,0.0036634819042162814
3698.0,0.003707281458678491
3697.0,0.003707281458678491
3696.0,0.0036634819042162814
3695.0,0.0036634819042162814
3694.0,0.0035758960449088217
3693.0,0.0034007772998332353
3692.0,0.0032694845648473247
3691.0,0.0033132443998284966
3690.0,0.003488327845821315
3689.0,0.003619686766589858
3688.0,0.0035758960449088217
3687.0,0.0035321097382827737
3686.0,0.0035758960449088217
3685.0,0.0035758960449088217
3684.0,0.0035321097382827737
3683.0,0.0034007772998332353
3682.0,0.0033570086445275926
3681.0,0.0033570086445275926
3680.0,0.0033570086445275926
3679.0,0.0033570086445275926
3678.0,0.003488327845821315
3677.0,0.003707281458678491
3676.0,0.003926345514724705
3675.0,0.0038825238627120395
3674.0,0.0037510854308679953
3673.0,0.0037510854308679953
3672.0,0.0037510854308679953
3671.0,0.003707281458678491
3670.0,0.003619686766589858
3669.0,0.0035758960449088217
3668.0,0.0035758960449088217
3667.0,0.003707281458678491
3666.0,0.003794893821675638
3665.0,0.0038387066319929275
3664.0,0.0038825238627120395
3663.0,0.0038825238627120395
3662.0,0.0038825238627120395
3661.0,0.003794893821675638
3660.0,0.003707281458678491
3659.0,0.003707281458678491
3658.0,0.003794893821675638
3657.0,0.0038825238627120395
3656.0,0.0038825238627120395
3655.0,0.0038825238627120395
3654.0,0.003926345514724705
3653.0,0.00401400208620073
3652.0,0.0040578370074493275
3651.0,0.00401400208620073
3650.0,0.00401400208620073
3649.0,0.0040578370074493275
3648.0,0.004101676353562844
3647.0,0.004145520125434121
3646.0,0.004145520125434121
3645.0,0.004233220950025984
3644.0,0.004320939488377862
3643.0,0.0043648054024501
3642.0,0.004452550524862486
3641.0,0.004452550524862486
3640.0,0.0044964297349936455
3639.0,0.0044964297349936455
3638.0,0.0044964297349936455
3637.0,0.004540313378935901
3636.0,0.004540313378935901
3635.0,0.00458420145758498
3634.0,0.004540313378935901
3633.0,0.0044964297349936455
3632.0,0.0044964297349936455
3631.0,0.0044964297349936455
3630.0,0.004628093971837721
3629.0,0.00484762310854614
3628.0,0.00489154225525934
3627.0,0.004935465843858511
3626.0,0.005067263269958211
3625.0,0.005155150446602086
3624.0,0.005111204635089406
3623.0,0.005067263269958211
3622.0,0.005067263269958211
3621.0,0.005155150446602086
3620.0,0.005243055412371911
3619.0,0.0052870145684298375
3618.0,0.005243055412371911
3617.0,0.005243055412371911
3616.0,0.005330978174470591
3615.0,0.005462895701502157
3614.0,0.005550862985963967
3613.0,0.005594853310833647
3612.0,0.005594853310833647
3611.0,0.005682847330363394
3610.0,0.005858888873877532
3609.0,0.006079041198713275
3608.0,0.00625524344553785
3607.0,0.006387442061109638
3606.0,0.006431517210272464
3605.0,0.006431517210272464
3604.0,0.006387442061109638
3603.0,0.006343371384537999
3602.0,0.006299305179649828
3601.0,0.006299305179649828
3600.0,0.006343371384537999
3599.0,0.006431517210272464
3598.0,0.006519680930003435
3597.0,0.006519680930003435
3596.0,0.00656376950238835
3595.0,0.00656376950238835
3594.0,0.006607862550997545
3593.0,0.00656376950238835
3592.0,0.006519680930003435
3591.0,0.006387442061109638
3590.0,0.00625524344553785
3589.0,0.006167133386013823
3588.0,0.00625524344553785
3587.0,0.006431517210272464
3586.0,0.006607862550997545
3585.0,0.006784279525863024
3584.0,0.006872514894289861
3583.0,0.00696076819309055
3582.0,0.007049039429553483
3581.0,0.007137328610972382
3580.0,0.007225635744644521
3579.0,0.007313960837872058
3578.0,0.007269796045857202
3577.0,0.007225635744644521
3576.0,0.007181479933320523
3575.0,0.007181479933320523
3574.0,0.007225635744644521
3573.0,0.007313960837872058
3572.0,0.007358130121602358
3571.0,0.007313960837872058
3570.0,0.007269796045857202
3569.0,0.007269796045857202
3568.0,0.007402303897961815
3567.0,0.0075790439479759275
3566.0,0.007755855953228474
3565.0,0.007844288957383316
3564.0,0.007888512213050314
3563.0,0.007976972236149349
3562.0,0.008021209005416363
3561.0,0.008109696063975047
3560.0,0.008198201155356077
3559.0,0.008242460465651913
3558.0,0.008242460465651913
3557.0,0.008242460465651913
3556.0,0.008286724286910463
3555.0,0.008375265465994541
3554.0,0.00850811108984062
3553.0,0.008596697419959609
3552.0,0.008596697419959609
3551.0,0.008596697419959609
3550.0,0.008552401996197112
3549.0,0.008596697419959609
3548.0,0.008773924307505121
3547.0,0.009039900317800775
3546.0,0.009261671492462709
3545.0,0.009306039320248427
3544.0,0.009172949432521227
3543.0,0.009039900317800775
3542.0,0.008951223547323472
3541.0,0.008906891951112605
3540.0,0.008951223547323472
3539.0,0.009039900317800775
3538.0,0.009172949432521227
3537.0,0.009306039320248427
3536.0,0.009439170005980158
3535.0,0.009572341514736404
3534.0,0.00966114521239847
3533.0,0.009705553871561357
3532.0,0.00966114521239847
3531.0,0.009572341514736404
3530.0,0.009439170005980158
3529.0,0.00939478857608056
3528.0,0.009483555971770974
3527.0,0.009616741093766423
3526.0,0.00974996707218323
3525.0,0.009883233932095559
3524.0,0.009883233932095559
3523.0,0.009838807101520963
3522.0,0.009838807101520963
3521.0,0.009838807101520963
3520.0,0.009972101229705377
3519.0,0.010194349063173958
3518.0,0.010416710688994968
3517.0,0.010594681998483901
3516.0,0.010594681998483901
3515.0,0.010505687227290839
3514.0,0.010327752376126709
3513.0,0.010194349063173958
3512.0,0.010149890396819572
3511.0,0.010149890396819572
3510.0,0.010149890396819572
3509.0,0.010149890396819572
3508.0,0.010194349063173958
3507.0,0.01023881228122181
3506.0,0.01037222925484893
3505.0,0.010550182333308289
3504.0,0.01077272626946324
3503.0,0.010950843561779777
3502.0,0.011039929609661936
3501.0,0.011039929609661936
3500.0,0.011039929609661936
3499.0,0.010995384301463185
3498.0,0.011039929609661936
3497.0,0.011084479487313281
3496.0,0.01117359295472431
3495.0,0.011218156546359825
3494.0,0.011218156546359825
3493.0,0.01117359295472431
3492.0,0.01117359295472431
3491.0,0.011218156546359825
3490.0,0.011307297450183107
3489.0,0.011441043121384498
3488.0,0.011485634166333858
3487.0,0.011485634166333858
3486.0,0.011485634166333858
3485.0,0.011485634166333858
3484.0,0.011574829993696856
3483.0,0.011664044143949504
3482.0,0.011797899741219142
3481.0,0.011931796607364653
3480.0,0.012021084124518078
3479.0,0.012110390002254778
3478.0,0.01215504982870197
3477.0,0.012110390002254778
3476.0,0.012065734767841452
3475.0,0.011931796607364653
3474.0,0.011887159731648111
3473.0,0.011887159731648111
3472.0,0.0119764380713403
3471.0,0.012021084124518078
3470.0,0.012065734767841452
3469.0,0.01215504982870197
3468.0,0.012244383261476699
3467.0,0.012289056869694281
3466.0,0.012289056869694281
3465.0,0.012199714248127602
3464.0,0.012110390002254778
3463.0,0.012110390002254778
3462.0,0.012199714248127602
3461.0,0.012289056869694281
3460.0,0.012378417874516323
3459.0,0.012423105273012602
3458.0,0.012423105273012602
3457.0,0.012423105273012602
3456.0,0.012423105273012602
3455.0,0.012378417874516323
3454.0,0.012378417874516323
3453.0,0.012378417874516323
3452.0,0.012423105273012602
3451.0,0.012557195064198723
3450.0,0.012691326268817527
3449.0,0.012825498912458322
3448.0,0.012959713020733288
3447.0,0.013004460275618523
3446.0,0.013004460275618523
3445.0,0.013049212141483357
3444.0,0.013049212141483357
3443.0,0.013049212141483357
3442.0,0.013049212141483357
3441.0,0.013004460275618523
3440.0,0.012959713020733288
3439.0,0.012914970375878188
3438.0,0.012914970375878188
3437.0,0.012870232340102872
3436.0,0.012870232340102872
3435.0,0.012914970375878188
3434.0,0.013004460275618523
3433.0,0.013049212141483357
3432.0,0.013138729709955221
3431.0,0.01318349541446362
3430.0,0.013273040668781544
3429.0,0.013317820220494436
3428.0,0.013362604389846044
3427.0,0.013407393177789162
3426.0,0.013407393177789162
3425.0,0.013407393177789162
3424.0,0.013362604389846044
3423.0,0.013407393177789162
3422.0,0.013452186585275916
3421.0,0.013496984613259544
3420.0,0.013496984613259544
3419.0,0.013496984613259544
3418.0,0.013452186585275916
3417.0,0.013407393177789162
3416.0,0.013452186585275916
3415.0,0.013496984613259544
3414.0,0.013631406429727155
3413.0,0.01372104409400876
3412.0,0.01372104409400876
3411.0,0.013631406429727155
3410.0,0.013496984613259544
3409.0,0.013362604389846044
3408.0,0.013317820220494436
3407.0,0.013362604389846044
3406.0,0.013496984613259544
3405.0,0.013676222949234651
3404.0,0.01381070026317599
3403.0,0.013900374944870508
3402.0,0.013900374944870508
3401.0,0.013900374944870508
3400.0,0.013900374944870508
3399.0,0.013900374944870508
3398.0,0.013900374944870508
3397.0,0.013900374944870508
3396.0,0.013900374944870508
3395.0,0.013900374944870508
3394.0,0.013900374944870508
3393.0,0.013945219230304673
3392.0,0.014079779876432497
3391.0,0.014214382227394795
3390.0,0.014304140310157809
3389.0,0.014304140310157809
3388.0,0.014214382227394795
3387.0,0.014079779876432497
3386.0,0.01403492169512921
3385.0,0.014079779876432497
3384.0,0.014169510141607944
3383.0,0.014259258949925524
3382.0,0.014304140310157809
3381.0,0.014304140310157809
3380.0,0.014304140310157809
3379.0,0.014304140310157809
3378.0,0.014349026309051105
3377.0,0.014304140310157809
3376.0,0.014304140310157809
3375.0,0.014259258949925524
3374.0,0.014259258949925524
3373.0,0.014259258949925524
3372.0,0.014214382227394795
3371.0,0.014169510141607944
3370.0,0.014124642691606404
3369.0,0.014079779876432497
3368.0,0.014169510141607944
3367.0,0.014304140310157809
3366.0,0.014438812226654996
3365.0,0.01452861671041239
3364.0,0.01452861671041239
3363.0,0.014438812226654996
3362.0,0.014349026309051105
3361.0,0.014304140310157809
3360.0,0.014214382227394795
3359.0,0.014169510141607944
3358.0,0.014169510141607944
3357.0,0.014214382227394795
3356.0,0.014259258949925524
3355.0,0.014349026309051105
3354.0,0.014438812226654996
3353.0,0.01452861671041239
3352.0,0.014573525916998342
3351.0,0.014573525916998342
3350.0,0.014573525916998342
3349.0,0.01452861671041239
3348.0,0.01452861671041239
3347.0,0.01452861671041239
3346.0,0.014573525916998342
3345.0,0.014573525916998342
3344.0,0.01452861671041239
3343.0,0.014438812226654996
3342.0,0.014393916947563534
3341.0,0.014393916947563534
3340.0,0.014393916947563534
3339.0,0.014349026309051105
3338.0,0.014304140310157809
3337.0,0.014259258949925524
3336.0,0.014214382227394795
3335.0,0.014214382227394795
3334.0,0.014214382227394795
3333.0,0.014124642691606404
3332.0,0.014079779876432497
3331.0,0.014079779876432497
3330.0,0.014124642691606404
3329.0,0.014214382227394795
3328.0,0.014259258949925524
3327.0,0.014259258949925524
3326.0,0.014259258949925524
3325.0,0.014304140310157809
3324.0,0.014304140310157809
3323.0,0.014393916947563534
3322.0,0.014438812226654996
3321.0,0.0144837121472845
3320.0,0.014438812226654996
3319.0,0.014349026309051105
3318.0,0.014304140310157809
3317.0,0.014259258949925524
3316.0,0.014304140310157809
3315.0,0.014304140310157809
3314.0,0.014349026309051105
3313.0,0.014349026309051105
3312.0,0.014304140310157809
3311.0,0.014259258949925524
3310.0,0.014169510141607944
3309.0,0.014124642691606404
3308.0,0.014169510141607944
3307.0,0.014259258949925524
3306.0,0.014393916947563534
3305.0,0.01452861671041239
3304.0,0.014618439768003144
3303.0,0.014618439768003144
3302.0,0.014573525916998342
3301.0,0.0144837121472845
3300.0,0.014304140310157809
3299.0,0.014169510141607944
3298.0,0.01403492169512921
3297.0,0.013990068146738865
3296.0,0.01403492169512921
3295.0,0.014079779876432497
3294.0,0.014214382227394795
3293.0,0.014349026309051105
3292.0,0.0144837121472845
3291.0,0.0144837121472845
3290.0,0.014438812226654996
3289.0,0.014349026309051105
3288.0,0.014259258949925524
3287.0,0.014304140310157809
3286.0,0.014393916947563534
3285.0,0.0144837121472845
3284.0,0.014573525916998342
3283.0,0.01452861671041239
3282.0,0.0144837121472845
3281.0,0.014438812226654996
3280.0,0.014393916947563534
3279.0,0.014349026309051105
3278.0,0.014393916947563534
3277.0,0.014349026309051105
3276.0,0.014214382227394795
3275.0,0.01403492169512921
3274.0,0.01385553528947936
3273.0,0.01385553528947936
3272.0,0.013945219230304673
3271.0,0.014124642691606404
3270.0,0.014304140310157809
3269.0,0.014393916947563534
3268.0,0.014393916947563534
3267.0,0.014349026309051105
3266.0,0.014259258949925524
3265.0,0.014169510141607944
3264.0,0.01403492169512921
3263.0,0.013945219230304673
3262.0,0.013900374944870508
3261.0,0.013900374944870508
3260.0,0.01385553528947936
3259.0,0.013765869865004277
3258.0,0.013676222949234651
3257.0,0.013586594534531482
3256.0,0.013631406429727155
3255.0,0.013765869865004277
3254.0,0.013900374944870508
3253.0,0.013945219230304673
3252.0,0.013945219230304673
3251.0,0.013900374944870508
3250.0,0.01385553528947936
3249.0,0.01381070026317599
3248.0,0.01372104409400876
3247.0,0.013676222949234651
3246.0,0.013631406429727155
3245.0,0.013631406429727155
3244.0,0.013631406429727155
3243.0,0.013586594534531482
3242.0,0.013631406429727155
3241.0,0.013676222949234651
3240.0,0.01372104409400876
3239.0,0.01372104409400876
3238.0,0.013676222949234651
3237.0,0.013586594534531482
3236.0,0.013541787262693505
3235.0,0.013586594534531482
3234.0,0.013631406429727155
3233.0,0.013631406429727155
3232.0,0.013676222949234651
3231.0,0.013631406429727155
3230.0,0.013541787262693505
3229.0,0.013407393177789162
3228.0,0.013317820220494436
3227.0,0.01322826573375524
3226.0,0.01322826573375524
3225.0,0.013273040668781544
3224.0,0.013273040668781544
3223.0,0.013273040668781544
3222.0,0.01322826573375524
3221.0,0.01322826573375524
3220.0,0.013317820220494436
3219.0,0.013407393177789162
3218.0,0.013452186585275916
3217.0,0.013407393177789162
3216.0,0.013362604389846044
3215.0,0.013362604389846044
3214.0,0.013317820220494436
3213.0,0.01322826573375524
3212.0,0.013138729709955221
3211.0,0.013049212141483357
3210.0,0.013004460275618523
3209.0,0.012959713020733288
3208.0,0.012959713020733288
3207.0,0.012959713020733288
3206.0,0.012914970375878188
3205.0,0.012825498912458322
3204.0,0.012691326268817527
3203.0,0.01260190086298274
3202.0,0.01260190086298274
3201.0,0.01264661126420652
3200.0,0.012780770091995297
3199.0,0.012825498912458322
3198.0,0.012825498912458322
3197.0,0.012691326268817527
3196.0,0.012557195064198723
3195.0,0.012423105273012602
3194.0,0.012378417874516323
3193.0,0.012333735073725371
3192.0,0.012333735073725371
3191.0,0.012333735073725371
3190.0,0.012333735073725371
3189.0,0.012378417874516323
3188.0,0.012333735073725371
3187.0,0.012289056869694281
3186.0,0.01215504982870197
3185.0,0.012065734767841452
3184.0,0.0119764380713403
3183.0,0.011931796607364653
3182.0,0.011931796607364653
3181.0,0.011931796607364653
3180.0,0.011931796607364653
3179.0,0.011931796607364653
3178.0,0.012021084124518078
3177.0,0.012065734767841452
3176.0,0.012110390002254778
3175.0,0.012110390002254778
3174.0,0.012110390002254778
3173.0,0.012110390002254778
3172.0,0.012110390002254778
3171.0,0.0119764380713403
3170.0,0.011842527443247208
3169.0,0.011708658092512314
3168.0,0.011619434777991433
3167.0,0.011619434777991433
3166.0,0.011664044143949504
3165.0,0.011619434777991433
3164.0,0.011574829993696856
3163.0,0.011441043121384498
3162.0,0.011307297450183107
3161.0,0.01117359295472431
3160.0,0.011084479487313281
3159.0,0.011039929609661936
3158.0,0.010950843561779777
3157.0,0.010906307389674463
3156.0,0.010906307389674463
3155.0,0.010906307389674463
3154.0,0.010995384301463185
3153.0,0.010995384301463185
3152.0,0.010950843561779777
3151.0,0.01086177578421088
3150.0,0.010728208358306901
3149.0,0.010683695010048622
3148.0,0.010683695010048622
3147.0,0.010728208358306901
3146.0,0.010683695010048622
3145.0,0.010594681998483901
3144.0,0.01046119667949763
3143.0,0.010327752376126709
3142.0,0.010283280051895272
3141.0,0.01023881228122181
3140.0,0.01023881228122181
3139.0,0.01023881228122181
3138.0,0.010194349063173958
3137.0,0.010194349063173958
3136.0,0.010194349063173958
3135.0,0.010194349063173958
3134.0,0.010194349063173958
3133.0,0.010194349063173958
3132.0,0.010149890396819572
3131.0,0.01001654169860089
3130.0,0.009927665307847056
3129.0,0.009838807101520963
3128.0,0.009794384815193347
3127.0,0.00974996707218323
3126.0,0.009705553871561357
3125.0,0.009616741093766423
3124.0,0.009527946474380489
3123.0,0.009483555971770974
3122.0,0.009483555971770974
3121.0,0.009483555971770974
3120.0,0.009483555971770974
3119.0,0.009572341514736404
3118.0,0.009616741093766423
3117.0,0.009572341514736404
3116.0,0.009483555971770974
3115.0,0.009350411681145587
3114.0,0.009261671492462709
3113.0,0.009217308196862062
3112.0,0.009128595198514056
3111.0,0.00908424549391551
3110.0,0.009039900317800775
3109.0,0.009039900317800775
3108.0,0.00908424549391551
3107.0,0.009128595198514056
3106.0,0.009217308196862062
3105.0,0.009217308196862062
3104.0,0.009217308196862062
3103.0,0.009172949432521227
3102.0,0.009128595198514056
3101.0,0.009128595198514056
3100.0,0.00908424549391551
3099.0,0.009039900317800775
3098.0,0.008995559669244813
3097.0,0.008951223547323472
3096.0,0.008906891951112605
3095.0,0.008906891951112605
3094.0,0.008906891951112605
3093.0,0.008906891951112605
3092.0,0.008951223547323472
3091.0,0.009039900317800775
3090.0,0.009128595198514056
3089.0,0.009217308196862062
3088.0,0.009217308196862062
3087.0,0.009172949432521227
3086.0,0.009039900317800775
3085.0,0.008951223547323472
3084.0,0.008818242332126802
3083.0,0.0087296108049002
3082.0,0.008640997362049818
3081.0,0.008596697419959609
3080.0,0.00850811108984062
3079.0,0.008419542825660153
3078.0,0.008330992620051436
3077.0,0.008330992620051436
3076.0,0.008330992620051436
3075.0,0.008375265465994541
3074.0,0.008330992620051436
3073.0,0.008286724286910463
3072.0,0.008198201155356077
3071.0,0.008198201155356077
3070.0,0.008286724286910463
3069.0,0.008286724286910463
3068.0,0.008242460465651913
3067.0,0.008065450281052211
3066.0,0.007932739972333236
3065.0,0.007888512213050314
3064.0,0.007932739972333236
3063.0,0.007976972236149349
3062.0,0.008021209005416363
3061.0,0.008065450281052211
3060.0,0.008065450281052211
3059.0,0.008065450281052211
3058.0,0.008021209005416363
3057.0,0.007976972236149349
3056.0,0.007888512213050314
3055.0,0.007800070204414977
3054.0,0.007667440952535687
3053.0,0.0075790439479759275
3052.0,0.00762324020119709
3051.0,0.007667440952535687
3050.0,0.007667440952535687
3049.0,0.007667440952535687
3048.0,0.00762324020119709
3047.0,0.0075790439479759275
3046.0,0.007534852191956709
3045.0,0.007490664932224611
3044.0,0.0074464821678643656
3043.0,0.007490664932224611
3042.0,0.007534852191956709
3041.0,0.0075790439479759275
3040.0,0.00762324020119709
3039.0,0.007667440952535687
3038.0,0.00762324020119709
3037.0,0.0075790439479759275
3036.0,0.007490664932224611
3035.0,0.0074464821678643656
3034.0,0.007402303897961815
3033.0,0.007313960837872058
3032.0,0.007269796045857202
3031.0,0.007181479933320523
3030.0,0.007137328610972382
3029.0,0.007049039429553483
3028.0,0.006916639301937977
3027.0,0.006828394969235152
3026.0,0.006740168563263094
3025.0,0.006696062080525422
3024.0,0.006607862550997545
3023.0,0.00656376950238835
3022.0,0.006475596832934416
3021.0,0.006387442061109638
3020.0,0.006343371384537999
3019.0,0.006343371384537999
3018.0,0.006299305179649828
3017.0,0.006299305179649828
3016.0,0.00625524344553785
3015.0,0.006167133386013823
3014.0,0.006079041198713275
3013.0,0.005946936412324799
3012.0,0.00590291041179003
3011.0,0.00590291041179003
3010.0,0.005946936412324799
3009.0,0.005990966876386672
3008.0,0.005946936412324799
3007.0,0.005858888873877532
3006.0,0.00577085918230158
3005.0,0.005638848091999105
3004.0,0.005550862985963967
3003.0,0.005506877116487674
3002.0,0.005506877116487674
3001.0,0.005550862985963967
3000.0,0.005594853310833647
2999.0,0.005594853310833647
2998.0,0.005550862985963967
2997.0,0.005506877116487674
2996.0,0.005462895701502157
2995.0,0.005506877116487674
2994.0,0.005550862985963967
2993.0,0.005638848091999105
2992.0,0.005638848091999105
2991.0,0.005682847330363394
2990.0,0.005682847330363394
2989.0,0.00577085918230158
2988.0,0.005814871797682919
2987.0,0.00590291041179003
2986.0,0.006035001804881146
2985.0,0.00621118618129457
2984.0,0.006431517210272464
2983.0,0.006696062080525422
2982.0,0.00696076819309055
2981.0,0.007269796045857202
2980.0,0.0075790439479759275
2979.0,0.007932739972333236
2978.0,0.008286724286910463
2977.0,0.008640997362049818
2976.0,0.008995559669244813
2975.0,0.009439170005980158
2974.0,0.009927665307847056
2973.0,0.010550182333308289
2972.0,0.011262724711199823
2971.0,0.012065734767841452
2970.0,0.012914970375878188
2969.0,0.01381070026317599
2968.0,0.014708281407112
2967.0,0.015607721475734415
2966.0,0.01646391839700767
2965.0,0.017367005605150476
2964.0,0.018271974638383703
2963.0,0.019133445417920836
2962.0,0.019996628416253603
2961.0,0.020770406977844713
2960.0,0.021499930688540836
2959.0,0.022139270735302752
2958.0,0.022642270454698687
2957.0,0.023100049017062307
2956.0,0.02351246269481
2955.0,0.023925268380126097
2954.0,0.024338466818941473
2953.0,0.024706084643793647
2952.0,0.02498200236711723
2951.0,0.025350165561278004
2950.0,0.025902996205869
2949.0,0.026687379547098322
2948.0,0.027797161620935595
2947.0,0.029141943003497595
2946.0,0.03081714076773867
2945.0,0.03277974021703267
2944.0,0.03503362516890207
2943.0,0.03763066432997886
2942.0,0.04057697805689475
2941.0,0.04387961360698034
2940.0,0.04744970610179822
2939.0,0.05129369109514803
2938.0,0.05536929814372171
2937.0,0.05968277842578207
2936.0,0.06429125215733666
2935.0,0.06925467168888666
2934.0,0.07463633264589853
2933.0,0.08039897621588898
2932.0,0.08661005636824437
2931.0,0.09339562827501968
2930.0,0.10067205012234592
2929.0,0.10851829616048003
2928.0,0.11702034596270106
2927.0,0.12621453918179926
2926.0,0.1363797797296844
2925.0,0.14764201633217278
2924.0,0.16020781555467067
2923.0,0.17411970106382046
2922.0,0.18936429972446267
2921.0,0.20572113427860006
2920.0,0.2225731776106885
2919.0,0.23874892569133732
2918.0,0.25266589038409504
2917.0,0.2620920766253614
2916.0,0.2654401784205238
2915.0,0.2622509261084429
2914.0,0.25352149006996894
2913.0,0.2414665777627134
2912.0,0.22819212100089437
2911.0,0.21516882187553077
2910.0,0.20307892466983124
2909.0,0.19219446772937543
2908.0,0.18269912160667867
2907.0,0.17444406770964305
2906.0,0.1673633724032968
2905.0,0.16115090926274478
2904.0,0.15570925674565683
2903.0,0.15082636690117335
2902.0,0.14648430324307138
2901.0,0.14266750356873148
2900.0,0.13924287691845794
2899.0,0.1360826230421397
2898.0,0.13306318226836056
2897.0,0.13006458935314003
2896.0,0.12702836926155658
2895.0,0.12401322857151209
2894.0,0.12096149476276286
2893.0,0.11793105556385153
2892.0,0.11492161585077598
2891.0,0.11176432672943282
2890.0,0.10846254232743546
2889.0,0.10513034325474746
2888.0,0.10182351650232357
2887.0,0.09848719087006019
2886.0,0.09523037409340485
2885.0,0.0919977988274463
2884.0,0.08878910686244668
2883.0,0.08560394787021397
2882.0,0.08249449044745338
2881.0,0.0794071379151915
2880.0,0.07644514193245056
2879.0,0.07355465218161061
2878.0,0.07088774334533943
2877.0,0.06844043290919477
2876.0,0.06625970050306473
2875.0,0.06444235490698613
2874.0,0.06283329628496737
2873.0,0.06148027482350815
2872.0,0.06028111764589528
2871.0,0.05918479134919874
2870.0,0.05824018618530458
2869.0,0.0575950591438934
2868.0,0.05729763111133224
2867.0,0.05744631966579017
2866.0,0.05809122563440061
2865.0,0.05933412752417122
2864.0,0.06128018521761747
2863.0,0.06398920428479049
2862.0,0.06752623532284674
2861.0,0.0720140529005715
2860.0,0.07743023101428781
2859.0,0.08402008585977572
2858.0,0.0919441259012328
2857.0,0.10149421446564144
2856.0,0.1130019543289007
2855.0,0.12702836926155658
2854.0,0.14393604666690019
2853.0,0.16386585053462532
2852.0,0.18615224577114575
2851.0,0.2088709992727138
2850.0,0.22841251911874472
2849.0,0.24063437834407142
2848.0,0.24283180778572744
2847.0,0.23500240071511946
2846.0,0.22004294875309416
2845.0,0.20169471797802352
2844.0,0.18302996224270052
2843.0,0.16557929631846746
2842.0,0.15015080439474215
2841.0,0.13673663634951905
2840.0,0.1252863112422209
2839.0,0.11554450392951199
2838.0,0.10718217569042365
2837.0,0.10001543745060903
2836.0,0.09382663635595145
2835.0,0.08841629901892434
2834.0,0.08380934001946239
2833.0,0.07987667370927598
2832.0,0.0763933569825408
2831.0,0.07329750581735506
2830.0,0.07052998382251041
2829.0,0.06798309356579857
2828.0,0.06570359318059427
2827.0,0.06363708040225546
2826.0,0.061780582187257016
2825.0,0.06003170944866376
2824.0,0.0583891978463662
2823.0,0.05685187064143715
2822.0,0.05541863577307371
2821.0,0.054088483180726676
2820.0,0.05286048235717078
2819.0,0.051684859310652254
2818.0,0.05056119896349576
2817.0,0.04948910701400333
2816.0,0.04851676924770687
2815.0,0.047643522676209304
2814.0,0.04677202844014605
2813.0,0.04599883231842972
2812.0,0.04527520902093718
2811.0,0.04460091336073302
2810.0,0.04397571771932274
2809.0,0.04325545471730896
2808.0,0.04253638427006878
2807.0,0.04181850243505214
2806.0,0.041197296600497646
2805.0,0.04057697805689475
2804.0,0.03995754427315856
2803.0,0.03938654235209116
2802.0,0.03886378261277468
2801.0,0.03838909190871931
2800.0,0.03796231343498735
2799.0,0.03753595394209874
2798.0,0.03701541568300293
2797.0,0.03644826642590382
2796.0,0.03592902944204468
2795.0,0.03541041251009669
2794.0,0.03498654972775217
2793.0,0.034516075754861264
2792.0,0.03409308450480819
2791.0,0.03367050483612166
2790.0,0.0332483359486222
2789.0,0.032920265855503006
2788.0,0.032545631817259224
2787.0,0.03217132066984485
2786.0,0.03170388495374454
2785.0,0.03128362253321426
2784.0,0.03081714076773867
2783.0,0.030444315779156517
2782.0,0.030071810571884017
2781.0,0.029792641193145286
2780.0,0.029513651152349718
2779.0,0.029188389127482228
2778.0,0.02890978686288448
2777.0,0.02863136320857662
2776.0,0.028445846553939003
2775.0,0.028214062120885508
2774.0,0.02798240132598462
2773.0,0.027658283674251827
2772.0,0.027334407733889066
2771.0,0.027010773144651168
2770.0,0.026733563891471412
2769.0,0.02654885597506529
2768.0,0.02636422658259252
2767.0,0.026271941311972746
2766.0,0.02613355016462182
2765.0,0.025995203102585407
2764.0,0.025810808881832736
2763.0,0.025672564576383117
2762.0,0.02553436426275746
2761.0,0.025350165561278004
2760.0,0.02516604495145991
2759.0,0.02498200236711723
2758.0,0.02475205875931885
2757.0,0.024568191490736968
2756.0,0.024430342106337877
2755.0,0.024292536462819925
2754.0,0.024108863598207186
2753.0,0.023971159908874107
2752.0,0.023833499868024743
2751.0,0.023695883447997224
2750.0,0.023604163388120325
2749.0,0.02351246269481
2748.0,0.02342078135989012
2747.0,0.023283295636617574
2746.0,0.023100049017062307
2745.0,0.02296266477531872
2744.0,0.022871099419317753
2743.0,0.02282532397981263
2742.0,0.02282532397981263
2741.0,0.02277955336461468
2740.0,0.022688026603074007
2739.0,0.02255077261765881
2738.0,0.02245929405346514
2737.0,0.022367834754000393
2736.0,0.02227639471115217
2735.0,0.0221849739168134
2734.0,0.022093572362881675
2733.0,0.02200219004126036
2732.0,0.021910826943857264
2731.0,0.021773818325474092
2730.0,0.02168250325324883
2729.0,0.02159120737696063
2728.0,0.021545566634771474
2727.0,0.0214542995372613
2726.0,0.021317434843055594
2725.0,0.021135015652343103
2724.0,0.020952673052035298
2723.0,0.02081596632558158
2722.0,0.020724852408976924
2721.0,0.02067930261797568
2720.0,0.020633757603838898
2719.0,0.020633757603838898
2718.0,0.02058821736556471
2717.0,0.020497151212598652
2716.0,0.02036058777709271
2715.0,0.02026956933771462
2714.0,0.020178569969774962
2713.0,0.02013307743509718
2712.0,0.020087589665283012
2711.0,0.02004210665933459
2710.0,0.01995115493504329
2709.0,0.019860222254245663
2708.0,0.019723858922159776
2707.0,0.01958753839310856
2706.0,0.019451260640229506
2705.0,0.019360432556262852
2704.0,0.019269623464054586
2703.0,0.019133445417920836
2702.0,0.019042683770379876
2701.0,0.018951941086827073
2700.0,0.018951941086827073
2699.0,0.018951941086827073
2698.0,0.018951941086827073
2697.0,0.018906576854070378
2696.0,0.018861217359339655
2695.0,0.018770512579999288
2694.0,0.018725167293411005
2693.0,0.018634490921455527
2692.0,0.018634490921455527
2691.0,0.01858915983411169
2690.0,0.018498511851753108
2689.0,0.01845319495476394
2688.0,0.01845319495476394
2687.0,0.01845319495476394
2686.0,0.01845319495476394
2685.0,0.01840788278591865
2684.0,0.01831727262871463
2683.0,0.018271974638383703
2682.0,0.018271974638383703
2681.0,0.01831727262871463
2680.0,0.018362575344230914
2679.0,0.018362575344230914
2678.0,0.01831727262871463
2677.0,0.018226681372252695
2676.0,0.018136109008649592
2675.0,0.01809082990920774
2674.0,0.018136109008649592
2673.0,0.018136109008649592
2672.0,0.018136109008649592
2671.0,0.018136109008649592
2670.0,0.018181392829336396
2669.0,0.018226681372252695
2668.0,0.018271974638383703
2667.0,0.018271974638383703
2666.0,0.018226681372252695
2665.0,0.01809082990920774
2664.0,0.01800028587012159
2663.0,0.017864505196230507
2662.0,0.017728766960431575
2661.0,0.017638298366853045
2660.0,0.01759307113620534
2659.0,0.01759307113620534
2658.0,0.017638298366853045
2657.0,0.017638298366853045
2656.0,0.01768353030793479
2655.0,0.01768353030793479
2654.0,0.01768353030793479
2653.0,0.017638298366853045
2652.0,0.017638298366853045
2651.0,0.01759307113620534
2650.0,0.01759307113620534
2649.0,0.01759307113620534
2648.0,0.01759307113620534
2647.0,0.017547848615010242
2646.0,0.017502630802287644
2645.0,0.017457417697056554
2644.0,0.017457417697056554
2643.0,0.017412209298337533
2642.0,0.017321806616515723
2641.0,0.017231422748988034
2640.0,0.017186237868137555
2639.0,0.017141057687924732
2638.0,0.017141057687924732
2637.0,0.017141057687924732
2636.0,0.017141057687924732
2635.0,0.017050711425501408
2634.0,0.016960383953898095
2633.0,0.016870075265299933
2632.0,0.016870075265299933
2631.0,0.016870075265299933
2630.0,0.016870075265299933
2629.0,0.01677978535189717
2628.0,0.016644385668211692
2627.0,0.016554142658660398
2626.0,0.016509028184833463
2625.0,0.01646391839700767
2624.0,0.016418813294209356
2623.0,0.01632861713980338
2622.0,0.016193358021584725
2621.0,0.016148281008528276
2620.0,0.016103208673694303
2619.0,0.016103208673694303
2618.0,0.016103208673694303
2617.0,0.016013078034810446
2616.0,0.01596801972881945
2615.0,0.015877917138889863
2614.0,0.01578783323856614
2613.0,0.015697768020096703
2612.0,0.015607721475734415
2611.0,0.015562705203923999
2610.0,0.01547268665620738
2609.0,0.015427684378367834
2608.0,0.01538268676325183
2607.0,0.015292705517326866
2606.0,0.015202742910707112
2605.0,0.015067833932588037
2604.0,0.015022873584506602
2603.0,0.014977917890464765
2602.0,0.014932966849499074
2601.0,0.014888020460646079
2600.0,0.014843078722943437
2599.0,0.014798141635428141
2598.0,0.014798141635428141
2597.0,0.014798141635428141
2596.0,0.014843078722943437
2595.0,0.014888020460646079
2594.0,0.014843078722943437
2593.0,0.014753209197138295
2592.0,0.014618439768003144
2591.0,0.01452861671041239
2590.0,0.014393916947563534
2589.0,0.014259258949925524
2588.0,0.014169510141607944
2587.0,0.014124642691606404
2586.0,0.014079779876432497
2585.0,0.01403492169512921
2584.0,0.01403492169512921
2583.0,0.014079779876432497
2582.0,0.014079779876432497
2581.0,0.01403492169512921
2580.0,0.013945219230304673
2579.0,0.01385553528947936
2578.0,0.01372104409400876
2577.0,0.013676222949234651
2576.0,0.013631406429727155
2575.0,0.013631406429727155
2574.0,0.013676222949234651
2573.0,0.013676222949234651
2572.0,0.013631406429727155
2571.0,0.013541787262693505
2570.0,0.013541787262693505
2569.0,0.013586594534531482
2568.0,0.013541787262693505
2567.0,0.013496984613259544
2566.0,0.013362604389846044
2565.0,0.01322826573375524
2564.0,0.013138729709955221
2563.0,0.013093968619278806
2562.0,0.013093968619278806
2561.0,0.013049212141483357
2560.0,0.013049212141483357
2559.0,0.013004460275618523
2558.0,0.013004460275618523
2557.0,0.012959713020733288
2556.0,0.012959713020733288
2555.0,0.012870232340102872
2554.0,0.012825498912458322
2553.0,0.012780770091995297
2552.0,0.012736045877764557
2551.0,0.012780770091995297
2550.0,0.012736045877764557
2549.0,0.012736045877764557
2548.0,0.012691326268817527
2547.0,0.01264661126420652
2546.0,0.01264661126420652
2545.0,0.01264661126420652
2544.0,0.01264661126420652
2543.0,0.01260190086298274
2542.0,0.012512493866907004
2541.0,0.012423105273012602
2540.0,0.012378417874516323
2539.0,0.012378417874516323
2538.0,0.012423105273012602
2537.0,0.012423105273012602
2536.0,0.012333735073725371
2535.0,0.012244383261476699
2534.0,0.01215504982870197
2533.0,0.01215504982870197
2532.0,0.012199714248127602
2531.0,0.012244383261476699
2530.0,0.012333735073725371
2529.0,0.012333735073725371
2528.0,0.012289056869694281
2527.0,0.012199714248127602
2526.0,0.012110390002254778
2525.0,0.012021084124518078
2524.0,0.011931796607364653
2523.0,0.011842527443247208
2522.0,0.011797899741219142
2521.0,0.011797899741219142
2520.0,0.011797899741219142
2519.0,0.011797899741219142
2518.0,0.011708658092512314
2517.0,0.011664044143949504
2516.0,0.011619434777991433
2515.0,0.011574829993696856
2514.0,0.011574829993696856
2513.0,0.011530229790124524
2512.0,0.011530229790124524
2511.0,0.011530229790124524
2510.0,0.011485634166333858
2509.0,0.011485634166333858
2508.0,0.011530229790124524
2507.0,0.011574829993696856
2506.0,0.011574829993696856
2505.0,0.011619434777991433
2504.0,0.011574829993696856
2503.0,0.011530229790124524
2502.0,0.011441043121384498
2501.0,0.011351874764248926
2500.0,0.011307297450183107
2499.0,0.011262724711199823
2498.0,0.011262724711199823
2497.0,0.011262724711199823
2496.0,0.011262724711199823
2495.0,0.011262724711199823
2494.0,0.011218156546359825
2493.0,0.01117359295472431
2492.0,0.01117359295472431
2491.0,0.011129033935354915
2490.0,0.011084479487313281
2489.0,0.011084479487313281
2488.0,0.011129033935354915
2487.0,0.01117359295472431
2486.0,0.011218156546359825
2485.0,0.011218156546359825
2484.0,0.01117359295472431
2483.0,0.011129033935354915
2482.0,0.011039929609661936
2481.0,0.010995384301463185
2480.0,0.010950843561779777
2479.0,0.010995384301463185
2478.0,0.010995384301463185
2477.0,0.010995384301463185
2476.0,0.010995384301463185
2475.0,0.010950843561779777
2474.0,0.010950843561779777
2473.0,0.010950843561779777
2472.0,0.010950843561779777
2471.0,0.010906307389674463
2470.0,0.010906307389674463
2469.0,0.010817248744452446
2468.0,0.010817248744452446
2467.0,0.01086177578421088
2466.0,0.01086177578421088
2465.0,0.010817248744452446
2464.0,0.01077272626946324
2463.0,0.010683695010048622
2462.0,0.010639186223752484
2461.0,0.010594681998483901
2460.0,0.010550182333308289
2459.0,0.010550182333308289
2458.0,0.010550182333308289
2457.0,0.010550182333308289
2456.0,0.010550182333308289
2455.0,0.010505687227290839
2454.0,0.01046119667949763
2453.0,0.010416710688994968
2452.0,0.01037222925484893
2451.0,0.010327752376126709
2450.0,0.010327752376126709
2449.0,0.01037222925484893
2448.0,0.010416710688994968
2447.0,0.010416710688994968
2446.0,0.010327752376126709
2445.0,0.010327752376126709
2444.0,0.010327752376126709
2443.0,0.010327752376126709
2442.0,0.010327752376126709
2441.0,0.01037222925484893
2440.0,0.01037222925484893
2439.0,0.01037222925484893
2438.0,0.01037222925484893
2437.0,0.010327752376126709
2436.0,0.010327752376126709
2435.0,0.010283280051895272
2434.0,0.01023881228122181
2433.0,0.010194349063173958
2432.0,0.010194349063173958
2431.0,0.01023881228122181
2430.0,0.01023881228122181
2429.0,0.01023881228122181
2428.0,0.01023881228122181
2427.0,0.01023881228122181
2426.0,0.01023881228122181
2425.0,0.010283280051895272
2424.0,0.010283280051895272
2423.0,0.010194349063173958
2422.0,0.010105436281226954
2421.0,0.01001654169860089
2420.0,0.01001654169860089
2419.0,0.01001654169860089
2418.0,0.010105436281226954
2417.0,0.010194349063173958
2416.0,0.010283280051895272
2415.0,0.01037222925484893
2414.0,0.010327752376126709
2413.0,0.01023881228122181
2412.0,0.010149890396819572
2411.0,0.010105436281226954
2410.0,0.010060986715464404
2409.0,0.010105436281226954
2408.0,0.010105436281226954
2407.0,0.010105436281226954
2406.0,0.010105436281226954
2405.0,0.010105436281226954
2404.0,0.010149890396819572
2403.0,0.010194349063173958
2402.0,0.010194349063173958
2401.0,0.010149890396819572
2400.0,0.010149890396819572
2399.0,0.010149890396819572
2398.0,0.010194349063173958
2397.0,0.01023881228122181
2396.0,0.01023881228122181
2395.0,0.010194349063173958
2394.0,0.010149890396819572
2393.0,0.010060986715464404
2392.0,0.01001654169860089
2391.0,0.009972101229705377
2390.0,0.009972101229705377
2389.0,0.009972101229705377
2388.0,0.010060986715464404
2387.0,0.010105436281226954
2386.0,0.010194349063173958
2385.0,0.010283280051895272
2384.0,0.01037222925484893
2383.0,0.01046119667949763
2382.0,0.010505687227290839
2381.0,0.010505687227290839
2380.0,0.01046119667949763
2379.0,0.01046119667949763
2378.0,0.010505687227290839
2377.0,0.010505687227290839
2376.0,0.010505687227290839
2375.0,0.01037222925484893
2374.0,0.010194349063173958
2373.0,0.010149890396819572
2372.0,0.01037222925484893
2371.0,0.01077272626946324
2370.0,0.011129033935354915
2369.0,0.01117359295472431
2368.0,0.011039929609661936
2367.0,0.01117359295472431
2366.0,0.011708658092512314
2365.0,0.012110390002254778
2364.0,0.011530229790124524
2363.0,0.010149890396819572
2362.0,0.00908424549391551
2361.0,0.009039900317800775
2360.0,0.009972101229705377
2359.0,0.010950843561779777
2358.0,0.011307297450183107
2357.0,0.011084479487313281
2356.0,0.01077272626946324
2355.0,0.010639186223752484
2354.0,0.01077272626946324
2353.0,0.010906307389674463
2352.0,0.011039929609661936
2351.0,0.011129033935354915
2350.0,0.01117359295472431
2349.0,0.011084479487313281
2348.0,0.010906307389674463
2347.0,0.01077272626946324
2346.0,0.010906307389674463
2345.0,0.011307297450183107
2344.0,0.011664044143949504
2343.0,0.011753276624621556
2342.0,0.011708658092512314
2341.0,0.011574829993696856
2340.0,0.011396456654336085
2339.0,0.011218156546359825
2338.0,0.011084479487313281
2337.0,0.010995384301463185
2336.0,0.011039929609661936
2335.0,0.011351874764248926
2334.0,0.011530229790124524
2333.0,0.011307297450183107
2332.0,0.010594681998483901
2331.0,0.009927665307847056
2330.0,0.009794384815193347
2329.0,0.010194349063173958
2328.0,0.010683695010048622
2327.0,0.011039929609661936
2326.0,0.011262724711199823
2325.0,0.011396456654336085
2324.0,0.011396456654336085
2323.0,0.011262724711199823
2322.0,0.01117359295472431
2321.0,0.011129033935354915
2320.0,0.011039929609661936
2319.0,0.010950843561779777
2318.0,0.010906307389674463
2317.0,0.01086177578421088
2316.0,0.010906307389674463
2315.0,0.010950843561779777
2314.0,0.010995384301463185
2313.0,0.011084479487313281
2312.0,0.011218156546359825
2311.0,0.011351874764248926
2310.0,0.011441043121384498
2309.0,0.011530229790124524
2308.0,0.011574829993696856
2307.0,0.011530229790124524
2306.0,0.011441043121384498
2305.0,0.011307297450183107
2304.0,0.01117359295472431
2303.0,0.011039929609661936
2302.0,0.010950843561779777
2301.0,0.010950843561779777
2300.0,0.010950843561779777
2299.0,0.010950843561779777
2298.0,0.010906307389674463
2297.0,0.010817248744452446
2296.0,0.010639186223752484
2295.0,0.010550182333308289
2294.0,0.010416710688994968
2293.0,0.01037222925484893
2292.0,0.010283280051895272
2291.0,0.01023881228122181
2290.0,0.010194349063173958
2289.0,0.010105436281226954
2288.0,0.010060986715464404
2287.0,0.01001654169860089
2286.0,0.01001654169860089
2285.0,0.009972101229705377
2284.0,0.009927665307847056
2283.0,0.009883233932095559
2282.0,0.009883233932095559
2281.0,0.009838807101520963
2280.0,0.009838807101520963
2279.0,0.009838807101520963
2278.0,0.009838807101520963
2277.0,0.009838807101520963
2276.0,0.009794384815193347
2275.0,0.009705553871561357
2274.0,0.009616741093766423
2273.0,0.009527946474380489
2272.0,0.009483555971770974
2271.0,0.009439170005980158
2270.0,0.00939478857608056
2269.0,0.00939478857608056
2268.0,0.009439170005980158
2267.0,0.009527946474380489
2266.0,0.009616741093766423
2265.0,0.009705553871561357
2264.0,0.009705553871561357
2263.0,0.009616741093766423
2262.0,0.009527946474380489
2261.0,0.00939478857608056
2260.0,0.009306039320248427
2259.0,0.009172949432521227
2258.0,0.00908424549391551
2257.0,0.009128595198514056
2256.0,0.009172949432521227
2255.0,0.009261671492462709
2254.0,0.009306039320248427
2253.0,0.009306039320248427
2252.0,0.009261671492462709
2251.0,0.009217308196862062
2250.0,0.009217308196862062
2249.0,0.009172949432521227
2248.0,0.009172949432521227
2247.0,0.009172949432521227
2246.0,0.009172949432521227
2245.0,0.009172949432521227
2244.0,0.009217308196862062
2243.0,0.009261671492462709
2242.0,0.009261671492462709
2241.0,0.009261671492462709
2240.0,0.009217308196862062
2239.0,0.009172949432521227
2238.0,0.009128595198514056
2237.0,0.00908424549391551
2236.0,0.00908424549391551
2235.0,0.00908424549391551
2234.0,0.009128595198514056
2233.0,0.00908424549391551
2232.0,0.009039900317800775
2231.0,0.008951223547323472
2230.0,0.008951223547323472
2229.0,0.008951223547323472
2228.0,0.009039900317800775
2227.0,0.00908424549391551
2226.0,0.009128595198514056
2225.0,0.009128595198514056
2224.0,0.009128595198514056
2223.0,0.009128595198514056
2222.0,0.009128595198514056
2221.0,0.009128595198514056
2220.0,0.009172949432521227
2219.0,0.009172949432521227
2218.0,0.009128595198514056
2217.0,0.00908424549391551
2216.0,0.009039900317800775
2215.0,0.008995559669244813
2214.0,0.008995559669244813
2213.0,0.008995559669244813
2212.0,0.009039900317800775
2211.0,0.009039900317800775
2210.0,0.008951223547323472
2209.0,0.008906891951112605
2208.0,0.008906891951112605
2207.0,0.008906891951112605
2206.0,0.008995559669244813
2205.0,0.00908424549391551
2204.0,0.009128595198514056
2203.0,0.00908424549391551
2202.0,0.009039900317800775
2201.0,0.008951223547323472
2200.0,0.008906891951112605
2199.0,0.008862564879688284
2198.0,0.008906891951112605
2197.0,0.008995559669244813
2196.0,0.009039900317800775
2195.0,0.009128595198514056
2194.0,0.009128595198514056
2193.0,0.00908424549391551
2192.0,0.009039900317800775
2191.0,0.008951223547323472
2190.0,0.008906891951112605
2189.0,0.008906891951112605
2188.0,0.008906891951112605
2187.0,0.008906891951112605
2186.0,0.008906891951112605
2185.0,0.008951223547323472
2184.0,0.008995559669244813
2183.0,0.008995559669244813
2182.0,0.008995559669244813
2181.0,0.008995559669244813
2180.0,0.008995559669244813
2179.0,0.008951223547323472
2178.0,0.008951223547323472
2177.0,0.008906891951112605
2176.0,0.008906891951112605
2175.0,0.008906891951112605
2174.0,0.008906891951112605
2173.0,0.008951223547323472
2172.0,0.008951223547323472
2171.0,0.008951223547323472
2170.0,0.008906891951112605
2169.0,0.008906891951112605
2168.0,0.008906891951112605
2167.0,0.008906891951112605
2166.0,0.008951223547323472
2165.0,0.008951223547323472
2164.0,0.008951223547323472
2163.0,0.008951223547323472
2162.0,0.008951223547323472
2161.0,0.008995559669244813
2160.0,0.009039900317800775
2159.0,0.00908424549391551
2158.0,0.009039900317800775
2157.0,0.008995559669244813
2156.0,0.008995559669244813
2155.0,0.009039900317800775
2154.0,0.00908424549391551
2153.0,0.009128595198514056
2152.0,0.009128595198514056
2151.0,0.009128595198514056
2150.0,0.00908424549391551
2149.0,0.009039900317800775
2148.0,0.008995559669244813
2147.0,0.008951223547323472
2146.0,0.008906891951112605
2145.0,0.008862564879688284
2144.0,0.008773924307505121
2143.0,0.0087296108049002
2142.0,0.0087296108049002
2141.0,0.008685301823389224
2140.0,0.0087296108049002
2139.0,0.0087296108049002
2138.0,0.008773924307505121
2137.0,0.008773924307505121
2136.0,0.008773924307505121
2135.0,0.008773924307505121
2134.0,0.0087296108049002
2133.0,0.0087296108049002
2132.0,0.008773924307505121
2131.0,0.008773924307505121
2130.0,0.008818242332126802
2129.0,0.008818242332126802
2128.0,0.008773924307505121
2127.0,0.0087296108049002
2126.0,0.0087296108049002
2125.0,0.008773924307505121
2124.0,0.008773924307505121
2123.0,0.008773924307505121
2122.0,0.008773924307505121
2121.0,0.008773924307505121
2120.0,0.0087296108049002
2119.0,0.0087296108049002
2118.0,0.0087296108049002
2117.0,0.0087296108049002
2116.0,0.008773924307505121
2115.0,0.008773924307505121
2114.0,0.008685301823389224
2113.0,0.008596697419959609
2112.0,0.008552401996197112
2111.0,0.008596697419959609
2110.0,0.008640997362049818
2109.0,0.008640997362049818
2108.0,0.008640997362049818
2107.0,0.008596697419959609
2106.0,0.008552401996197112
2105.0,0.008552401996197112
2104.0,0.008596697419959609
2103.0,0.008640997362049818
2102.0,0.008685301823389224
2101.0,0.0087296108049002
2100.0,0.008773924307505121
2099.0,0.0087296108049002
2098.0,0.0087296108049002
2097.0,0.008685301823389224
2096.0,0.008685301823389224
2095.0,0.008685301823389224
2094.0,0.008685301823389224
2093.0,0.008685301823389224
2092.0,0.008640997362049818
2091.0,0.008685301823389224
2090.0,0.0087296108049002
2089.0,0.008773924307505121
2088.0,0.008773924307505121
2087.0,0.0087296108049002
2086.0,0.008685301823389224
2085.0,0.008685301823389224
2084.0,0.0087296108049002
2083.0,0.008773924307505121
2082.0,0.008773924307505121
2081.0,0.008773924307505121
2080.0,0.008773924307505121
2079.0,0.008773924307505121
2078.0,0.008818242332126802
2077.0,0.008818242332126802
2076.0,0.008818242332126802
2075.0,0.008818242332126802
2074.0,0.008773924307505121
2073.0,0.0087296108049002
2072.0,0.0087296108049002
2071.0,0.008685301823389224
2070.0,0.008685301823389224
2069.0,0.008685301823389224
2068.0,0.008685301823389224
2067.0,0.008685301823389224
2066.0,0.0087296108049002
2065.0,0.008773924307505121
2064.0,0.008818242332126802
2063.0,0.008818242332126802
2062.0,0.008818242332126802
2061.0,0.008818242332126802
2060.0,0.008818242332126802
2059.0,0.008862564879688284
2058.0,0.008906891951112605
2057.0,0.008906891951112605
2056.0,0.008906891951112605
2055.0,0.008862564879688284
2054.0,0.008906891951112605
2053.0,0.008906891951112605
2052.0,0.008906891951112605
2051.0,0.008862564879688284
2050.0,0.008862564879688284
2049.0,0.008906891951112605
2048.0,0.008951223547323472
2047.0,0.009039900317800775
2046.0,0.00908424549391551
2045.0,0.00908424549391551
2044.0,0.009039900317800775
2043.0,0.008951223547323472
2042.0,0.008906891951112605
2041.0,0.008906891951112605
2040.0,0.008906891951112605
2039.0,0.008951223547323472
2038.0,0.008995559669244813
2037.0,0.009039900317800775
2036.0,0.009039900317800775
2035.0,0.008995559669244813
2034.0,0.008951223547323472
2033.0,0.008862564879688284
2032.0,0.008862564879688284
2031.0,0.008818242332126802
2030.0,0.008862564879688284
2029.0,0.008862564879688284
2028.0,0.008906891951112605
2027.0,0.008951223547323472
2026.0,0.008995559669244813
2025.0,0.00908424549391551
2024.0,0.009128595198514056
2023.0,0.009172949432521227
2022.0,0.009172949432521227
2021.0,0.009128595198514056
2020.0,0.009128595198514056
2019.0,0.009128595198514056
2018.0,0.009172949432521227
2017.0,0.009261671492462709
2016.0,0.009261671492462709
2015.0,0.009217308196862062
2014.0,0.009128595198514056
2013.0,0.009039900317800775
2012.0,0.008995559669244813
2011.0,0.008951223547323472
2010.0,0.008906891951112605
2009.0,0.008862564879688284
2008.0,0.008818242332126802
2007.0,0.008773924307505121
2006.0,0.0087296108049002
2005.0,0.0087296108049002
2004.0,0.008685301823389224
2003.0,0.008640997362049818
2002.0,0.008640997362049818
2001.0,0.008640997362049818
2000.0,0.008596697419959609
1999.0,0.008596697419959609
1998.0,0.008552401996197112
1997.0,0.008596697419959609
1996.0,0.008596697419959609
1995.0,0.008640997362049818
1994.0,0.008640997362049818
1993.0,0.008596697419959609
1992.0,0.008596697419959609
1991.0,0.008640997362049818
1990.0,0.008640997362049818
1989.0,0.008685301823389224
1988.0,0.008640997362049818
1987.0,0.008640997362049818
1986.0,0.008640997362049818
1985.0,0.008685301823389224
1984.0,0.0087296108049002
1983.0,0.0087296108049002
1982.0,0.0087296108049002
1981.0,0.0087296108049002
1980.0,0.008685301823389224
1979.0,0.008640997362049818
1978.0,0.008596697419959609
1977.0,0.00850811108984062
1976.0,0.00850811108984062
1975.0,0.00850811108984062
1974.0,0.008552401996197112
1973.0,0.008596697419959609
1972.0,0.008640997362049818
1971.0,0.008685301823389224
1970.0,0.008685301823389224
1969.0,0.008685301823389224
1968.0,0.008685301823389224
1967.0,0.008640997362049818
1966.0,0.008640997362049818
1965.0,0.008640997362049818
1964.0,0.008640997362049818
1963.0,0.008596697419959609
1962.0,0.00850811108984062
1961.0,0.008463824699968647
1960.0,0.008463824699968647
1959.0,0.008419542825660153
1958.0,0.008463824699968647
1957.0,0.008463824699968647
1956.0,0.00850811108984062
1955.0,0.008552401996197112
1954.0,0.00850811108984062
1953.0,0.00850811108984062
1952.0,0.00850811108984062
1951.0,0.00850811108984062
1950.0,0.00850811108984062
1949.0,0.00850811108984062
1948.0,0.00850811108984062
1947.0,0.00850811108984062
1946.0,0.00850811108984062
1945.0,0.008463824699968647
1944.0,0.008375265465994541
1943.0,0.008286724286910463
1942.0,0.008242460465651913
1941.0,0.008242460465651913
1940.0,0.008330992620051436
1939.0,0.008375265465994541
1938.0,0.008419542825660153
1937.0,0.008419542825660153
1936.0,0.008463824699968647
1935.0,0.008463824699968647
1934.0,0.008463824699968647
1933.0,0.008419542825660153
1932.0,0.008419542825660153
1931.0,0.008419542825660153
1930.0,0.008463824699968647
1929.0,0.00850811108984062
1928.0,0.008552401996197112
1927.0,0.008552401996197112
1926.0,0.008552401996197112
1925.0,0.008552401996197112
1924.0,0.008552401996197112
1923.0,0.00850811108984062
1922.0,0.00850811108984062
1921.0,0.00850811108984062
1920.0,0.008552401996197112
1919.0,0.008596697419959609
1918.0,0.008596697419959609
1917.0,0.008552401996197112
1916.0,0.008552401996197112
1915.0,0.008552401996197112
1914.0,0.00850811108984062
1913.0,0.00850811108984062
1912.0,0.00850811108984062
1911.0,0.00850811108984062
1910.0,0.00850811108984062
1909.0,0.008552401996197112
1908.0,0.008596697419959609
1907.0,0.008640997362049818
1906.0,0.008640997362049818
1905.0,0.008640997362049818
1904.0,0.008596697419959609
1903.0,0.008596697419959609
1902.0,0.008640997362049818
1901.0,0.008685301823389224
1900.0,0.008773924307505121
1899.0,0.008773924307505121
1898.0,0.0087296108049002
1897.0,0.008773924307505121
1896.0,0.008773924307505121
1895.0,0.008818242332126802
1894.0,0.008773924307505121
1893.0,0.008773924307505121
1892.0,0.008773924307505121
1891.0,0.0087296108049002
1890.0,0.008685301823389224
1889.0,0.008596697419959609
1888.0,0.00850811108984062
1887.0,0.008419542825660153
1886.0,0.008375265465994541
1885.0,0.008330992620051436
1884.0,0.008286724286910463
1883.0,0.008286724286910463
1882.0,0.008286724286910463
1881.0,0.008330992620051436
1880.0,0.008375265465994541
1879.0,0.008375265465994541
1878.0,0.008419542825660153
1877.0,0.008419542825660153
1876.0,0.008419542825660153
1875.0,0.008375265465994541
1874.0,0.008330992620051436
1873.0,0.008242460465651913
1872.0,0.008198201155356077
1871.0,0.008153946355103248
1870.0,0.008065450281052211
1869.0,0.008021209005416363
1868.0,0.008021209005416363
1867.0,0.008065450281052211
1866.0,0.008109696063975047
1865.0,0.008153946355103248
1864.0,0.008153946355103248
1863.0,0.008109696063975047
1862.0,0.008065450281052211
1861.0,0.008065450281052211
1860.0,0.008065450281052211
1859.0,0.008109696063975047
1858.0,0.008153946355103248
1857.0,0.008198201155356077
1856.0,0.008198201155356077
1855.0,0.008198201155356077
1854.0,0.008153946355103248
1853.0,0.008153946355103248
1852.0,0.008198201155356077
1851.0,0.008198201155356077
1850.0,0.008198201155356077
1849.0,0.008153946355103248
1848.0,0.008198201155356077
1847.0,0.008242460465651913
1846.0,0.008330992620051436
1845.0,0.008375265465994541
1844.0,0.008330992620051436
1843.0,0.008242460465651913
1842.0,0.008198201155356077
1841.0,0.008153946355103248
1840.0,0.008109696063975047
1839.0,0.008065450281052211
1838.0,0.008021209005416363
1837.0,0.007976972236149349
1836.0,0.007976972236149349
1835.0,0.007932739972333236
1834.0,0.007976972236149349
1833.0,0.008021209005416363
1832.0,0.008109696063975047
1831.0,0.008109696063975047
1830.0,0.008065450281052211
1829.0,0.007976972236149349
1828.0,0.007976972236149349
1827.0,0.008021209005416363
1826.0,0.008065450281052211
1825.0,0.008109696063975047
1824.0,0.008109696063975047
1823.0,0.008109696063975047
1822.0,0.008109696063975047
1821.0,0.008109696063975047
1820.0,0.008109696063975047
1819.0,0.008065450281052211
1818.0,0.008065450281052211
1817.0,0.008065450281052211
1816.0,0.008065450281052211
1815.0,0.008065450281052211
1814.0,0.008109696063975047
1813.0,0.008109696063975047
1812.0,0.008109696063975047
1811.0,0.008021209005416363
1810.0,0.007932739972333236
1809.0,0.007932739972333236
1808.0,0.007976972236149349
1807.0,0.008021209005416363
1806.0,0.008065450281052211
1805.0,0.008109696063975047
1804.0,0.008109696063975047
1803.0,0.008153946355103248
1802.0,0.008153946355103248
1801.0,0.008198201155356077
1800.0,0.008242460465651913
1799.0,0.008242460465651913
1798.0,0.008242460465651913
1797.0,0.008286724286910463
1796.0,0.008375265465994541
1795.0,0.008419542825660153
1794.0,0.00850811108984062
1793.0,0.008596697419959609
1792.0,0.008640997362049818
1791.0,0.008596697419959609
1790.0,0.008552401996197112
1789.0,0.008552401996197112
1788.0,0.008596697419959609
1787.0,0.008640997362049818
1786.0,0.008685301823389224
1785.0,0.0087296108049002
1784.0,0.008685301823389224
1783.0,0.008640997362049818
1782.0,0.008552401996197112
1781.0,0.008552401996197112
1780.0,0.008640997362049818
1779.0,0.008685301823389224
1778.0,0.008685301823389224
1777.0,0.008640997362049818
1776.0,0.008640997362049818
1775.0,0.008640997362049818
1774.0,0.008685301823389224
1773.0,0.008640997362049818
1772.0,0.008596697419959609
1771.0,0.008596697419959609
1770.0,0.008685301823389224
1769.0,0.008862564879688284
1768.0,0.008951223547323472
1767.0,0.008995559669244813
1766.0,0.008995559669244813
1765.0,0.008995559669244813
1764.0,0.008995559669244813
1763.0,0.008951223547323472
1762.0,0.008951223547323472
1761.0,0.008995559669244813
1760.0,0.009128595198514056
1759.0,0.009261671492462709
1758.0,0.00939478857608056
1757.0,0.009439170005980158
1756.0,0.009483555971770974
1755.0,0.009572341514736404
1754.0,0.00966114521239847
1753.0,0.009794384815193347
1752.0,0.009927665307847056
1751.0,0.01001654169860089
1750.0,0.01001654169860089
1749.0,0.010060986715464404
1748.0,0.010149890396819572
1747.0,0.010283280051895272
1746.0,0.01037222925484893
1745.0,0.010505687227290839
1744.0,0.010639186223752484
1743.0,0.010728208358306901
1742.0,0.010817248744452446
1741.0,0.010906307389674463
1740.0,0.010995384301463185
1739.0,0.011084479487313281
1738.0,0.011129033935354915
1737.0,0.011262724711199823
1736.0,0.011396456654336085
1735.0,0.011530229790124524
1734.0,0.011664044143949504
1733.0,0.011797899741219142
1732.0,0.011931796607364653
1731.0,0.012021084124518078
1730.0,0.01215504982870197
1729.0,0.012289056869694281
1728.0,0.012512493866907004
1727.0,0.012780770091995297
1726.0,0.013093968619278806
1725.0,0.013452186585275916
1724.0,0.01381070026317599
1723.0,0.014124642691606404
1722.0,0.014393916947563534
1721.0,0.014618439768003144
1720.0,0.014843078722943437
1719.0,0.014932966849499074
1718.0,0.015022873584506602
1717.0,0.015067833932588037
1716.0,0.015157768594724175
1715.0,0.015202742910707112
1714.0,0.015247721884586563
1713.0,0.015292705517326866
1712.0,0.015202742910707112
1711.0,0.015112798935672522
1710.0,0.015022873584506602
1709.0,0.014888020460646079
1708.0,0.014753209197138295
1707.0,0.0144837121472845
1706.0,0.014169510141607944
1705.0,0.013900374944870508
1704.0,0.01381070026317599
1703.0,0.013900374944870508
1702.0,0.013945219230304673
1701.0,0.01403492169512921
1700.0,0.013945219230304673
1699.0,0.01381070026317599
1698.0,0.01372104409400876
1697.0,0.013765869865004277
1696.0,0.01372104409400876
1695.0,0.013631406429727155
1694.0,0.013586594534531482
1693.0,0.013676222949234651
1692.0,0.01372104409400876
1691.0,0.013676222949234651
1690.0,0.013676222949234651
1689.0,0.013676222949234651
1688.0,0.01372104409400876
1687.0,0.013765869865004277
1686.0,0.013765869865004277
1685.0,0.013900374944870508
1684.0,0.014169510141607944
1683.0,0.014304140310157809
1682.0,0.014438812226654996
1681.0,0.014573525916998342
1680.0,0.014708281407112
1679.0,0.014843078722943437
1678.0,0.014932966849499074
1677.0,0.015022873584506602
1676.0,0.015157768594724175
1675.0,0.015247721884586563
1674.0,0.015247721884586563
1673.0,0.015292705517326866
1672.0,0.015337693809893471
1671.0,0.015427684378367834
1670.0,0.015562705203923999
1669.0,0.015742798294583915
1668.0,0.015877917138889863
1667.0,0.01596801972881945
1666.0,0.016013078034810446
1665.0,0.016058141016111804
1664.0,0.016103208673694303
1663.0,0.016193358021584725
1662.0,0.016238439713835096
1661.0,0.01628352608625061
1660.0,0.01628352608625061
1659.0,0.01628352608625061
1658.0,0.016193358021584725
1657.0,0.016148281008528276
1656.0,0.016148281008528276
1655.0,0.016103208673694303
1654.0,0.016148281008528276
1653.0,0.01632861713980338
1652.0,0.016238439713835096
1651.0,0.016193358021584725
1650.0,0.016148281008528276
1649.0,0.016058141016111804
1648.0,0.016013078034810446
1647.0,0.016013078034810446
1646.0,0.016013078034810446
1645.0,0.016013078034810446
1644.0,0.01596801972881945
1643.0,0.015922966097169144
1642.0,0.015877917138889863
1641.0,0.01578783323856614
1640.0,0.015697768020096703
1639.0,0.015607721475734415
1638.0,0.015517693597737248
1637.0,0.01547268665620738
1636.0,0.015517693597737248
1635.0,0.015427684378367834
1634.0,0.015292705517326866
1633.0,0.015292705517326866
1632.0,0.015247721884586563
1631.0,0.015202742910707112
1630.0,0.015157768594724175
1629.0,0.015067833932588037
1628.0,0.014977917890464765
1627.0,0.014843078722943437
1626.0,0.014663358264387139
1625.0,0.014573525916998342
1624.0,0.0144837121472845
1623.0,0.014438812226654996
1622.0,0.014304140310157809
1621.0,0.014259258949925524
1620.0,0.014214382227394795
1619.0,0.014214382227394795
1618.0,0.014124642691606404
1617.0,0.01403492169512921
1616.0,0.01385553528947936
1615.0,0.01372104409400876
1614.0,0.013676222949234651
1613.0,0.013631406429727155
1612.0,0.013586594534531482
1611.0,0.013541787262693505
1610.0,0.013496984613259544
1609.0,0.013496984613259544
1608.0,0.013496984613259544
1607.0,0.013452186585275916
1606.0,0.013452186585275916
1605.0,0.013407393177789162
1604.0,0.013317820220494436
1603.0,0.013273040668781544
1602.0,0.01322826573375524
1601.0,0.01318349541446362
1600.0,0.013138729709955221
1599.0,0.013049212141483357
1598.0,0.013004460275618523
1597.0,0.012959713020733288
1596.0,0.012914970375878188
1595.0,0.012825498912458322
1594.0,0.012780770091995297
1593.0,0.012691326268817527
1592.0,0.012691326268817527
1591.0,0.012691326268817527
1590.0,0.012691326268817527
1589.0,0.012736045877764557
1588.0,0.012691326268817527
1587.0,0.01260190086298274
1586.0,0.012557195064198723
1585.0,0.012512493866907004
1584.0,0.012512493866907004
1583.0,0.012467797270160563
1582.0,0.012378417874516323
1581.0,0.012244383261476699
1580.0,0.012199714248127602
1579.0,0.01215504982870197
1578.0,0.01215504982870197
1577.0,0.012199714248127602
1576.0,0.012110390002254778
1575.0,0.011931796607364653
1574.0,0.011842527443247208
1573.0,0.011842527443247208
1572.0,0.011887159731648111
1571.0,0.011842527443247208
1570.0,0.011753276624621556
1569.0,0.011708658092512314
1568.0,0.011708658092512314
1567.0,0.011753276624621556
1566.0,0.011797899741219142
1565.0,0.011842527443247208
1564.0,0.011842527443247208
1563.0,0.011887159731648111
1562.0,0.011931796607364653
1561.0,0.011842527443247208
1560.0,0.011708658092512314
1559.0,0.011753276624621556
1558.0,0.011708658092512314
1557.0,0.011842527443247208
1556.0,0.012065734767841452
1555.0,0.01215504982870197
1554.0,0.012110390002254778
1553.0,0.012065734767841452
1552.0,0.012110390002254778
1551.0,0.012110390002254778
1550.0,0.012110390002254778
1549.0,0.012065734767841452
1548.0,0.012065734767841452
1547.0,0.0119764380713403
1546.0,0.011842527443247208
1545.0,0.011797899741219142
1544.0,0.011887159731648111
1543.0,0.0119764380713403
1542.0,0.0119764380713403
1541.0,0.012021084124518078
1540.0,0.011887159731648111
1539.0,0.011574829993696856
1538.0,0.011396456654336085
1537.0,0.011441043121384498
1536.0,0.011485634166333858
1535.0,0.011441043121384498
1534.0,0.011307297450183107
1533.0,0.011218156546359825
1532.0,0.01117359295472431
1531.0,0.011129033935354915
1530.0,0.011084479487313281
1529.0,0.011039929609661936
1528.0,0.011084479487313281
1527.0,0.011129033935354915
1526.0,0.011084479487313281
1525.0,0.011084479487313281
1524.0,0.011084479487313281
1523.0,0.011039929609661936
1522.0,0.010950843561779777
1521.0,0.010995384301463185
1520.0,0.010995384301463185
1519.0,0.010906307389674463
1518.0,0.01077272626946324
1517.0,0.010728208358306901
1516.0,0.01077272626946324
1515.0,0.010728208358306901
1514.0,0.010639186223752484
1513.0,0.010550182333308289
1512.0,0.01046119667949763
1511.0,0.010283280051895272
1510.0,0.01023881228122181
1509.0,0.010283280051895272
1508.0,0.01046119667949763
1507.0,0.01046119667949763
1506.0,0.010194349063173958
1505.0,0.010194349063173958
1504.0,0.01037222925484893
1503.0,0.01046119667949763
1502.0,0.010505687227290839
1501.0,0.010594681998483901
1500.0,0.010683695010048622
1499.0,0.010683695010048622
1498.0,0.010639186223752484
1497.0,0.010683695010048622
1496.0,0.010817248744452446
1495.0,0.010817248744452446
1494.0,0.01086177578421088
1493.0,0.011039929609661936
1492.0,0.011262724711199823
1491.0,0.011307297450183107
1490.0,0.011307297450183107
1489.0,0.011485634166333858
1488.0,0.011664044143949504
1487.0,0.011753276624621556
1486.0,0.011842527443247208
1485.0,0.01215504982870197
1484.0,0.012557195064198723
1483.0,0.012914970375878188
1482.0,0.013407393177789162
1481.0,0.014304140310157809
1480.0,0.015562705203923999
1479.0,0.017321806616515723
1478.0,0.020542681902151694
1477.0,0.02677975314776626
1476.0,0.03663723389626394
1475.0,0.04944043838819989
1474.0,0.06383825908884244
1473.0,0.07556563645676939
1472.0,0.0794592834975203
1471.0,0.07743023101428781
1470.0,0.07504911108438939
1469.0,0.07427547306393745
1468.0,0.07494587968815725
1467.0,0.07737832847680104
1466.0,0.08333553545860273
1465.0,0.09296504751658308
1464.0,0.10160395406999112
1463.0,0.10435649517592083
1462.0,0.10083635852278117
1461.0,0.09328794305703592
1460.0,0.0838620168928248
1459.0,0.07463633264589853
1458.0,0.06742477650170953
1457.0,0.0627329277885873
1456.0,0.0595831353183347
1455.0,0.05685187064143715
1454.0,0.054186873412661596
1453.0,0.05134256785867963
1452.0,0.0486139051197072
1451.0,0.04633693625290869
1450.0,0.04455278942230456
1449.0,0.0431115453499229
1448.0,0.041914151478914974
1447.0,0.041006334969674096
1446.0,0.040243327009005014
1445.0,0.03952922246570112
1444.0,0.038816290187564384
1443.0,0.038199360808321536
1442.0,0.03767802727041558
1441.0,0.0371573187987575
1440.0,0.036542739883292485
1439.0,0.03602339000339416
1438.0,0.03555179208333925
1437.0,0.03503362516890207
1436.0,0.034469056377139484
1435.0,0.03385826726096752
1434.0,0.03310770413286357
1433.0,0.03235843591698884
1432.0,0.03151705144606498
1431.0,0.0307239045110681
1430.0,0.029978734171634214
1429.0,0.029234840219232394
1428.0,0.028538594975413334
1427.0,0.02798240132598462
1426.0,0.027426919073445077
1425.0,0.02691835039863255
1424.0,0.026456531467510258
1423.0,0.02617967564731627
1422.0,0.025949097207122573
1421.0,0.025718641122169483
1420.0,0.02558042614771394
1419.0,0.02562649291857677
1418.0,0.025718641122169483
1417.0,0.025672564576383117
1416.0,0.02558042614771394
1415.0,0.025488307262671706
1414.0,0.025350165561278004
1413.0,0.02516604495145991
1412.0,0.024936003904763915
1411.0,0.024798037742147727
1410.0,0.02461415101053266
1409.0,0.02438440203310499
1408.0,0.024108863598207186
1407.0,0.023971159908874107
1406.0,0.023879381700184332
1405.0,0.023741750742954926
1404.0,0.02365002099672653
1403.0,0.02355831062115543
1402.0,0.02342078135989012
1401.0,0.023237476732539397
1400.0,0.023100049017062307
1399.0,0.023054249440757957
1398.0,0.02300845469384938
1397.0,0.022871099419317753
1396.0,0.02277955336461468
1395.0,0.02282532397981263
1394.0,0.02300845469384938
1393.0,0.02314585342378117
1392.0,0.023237476732539397
1391.0,0.023374947949272418
1390.0,0.023466619608062178
1389.0,0.023604163388120325
1388.0,0.023695883447997224
1387.0,0.023879381700184332
1386.0,0.023971159908874107
1385.0,0.024017056287453542
1384.0,0.024154774532432866
1383.0,0.024522236834125355
1382.0,0.02512002699306959
1381.0,0.025810808881832736
1380.0,0.026595025589939425
1379.0,0.027195677663422346
1378.0,0.027426919073445077
1377.0,0.027195677663422346
1376.0,0.026687379547098322
1375.0,0.026041313893296225
1374.0,0.02553436426275746
1373.0,0.02516604495145991
1372.0,0.024890010313838973
1371.0,0.02475205875931885
1370.0,0.02461415101053266
1369.0,0.024430342106337877
1368.0,0.024108863598207186
1367.0,0.023695883447997224
1366.0,0.023283295636617574
1365.0,0.02282532397981263
1364.0,0.022322112326006227
1363.0,0.021865152601710403
1362.0,0.021499930688540836
1361.0,0.021135015652343103
1360.0,0.020770406977844713
1359.0,0.02045162529590483
1358.0,0.02022406727031445
1357.0,0.02004210665933459
1356.0,0.01995115493504329
1355.0,0.019860222254245663
1354.0,0.019769308608968306
1353.0,0.019632973815224997
1352.0,0.019451260640229506
1351.0,0.019269623464054586
1350.0,0.019042683770379876
1349.0,0.018815862601645694
1348.0,0.01858915983411169
1347.0,0.018362575344230914
1346.0,0.018136109008649592
1345.0,0.017909760704207134
1344.0,0.01768353030793479
1343.0,0.017457417697056554
1342.0,0.017186237868137555
1341.0,0.016960383953898095
1340.0,0.016689514205884493
1339.0,0.01646391839700767
1338.0,0.01628352608625061
1337.0,0.016058141016111804
1336.0,0.01578783323856614
1335.0,0.015607721475734415
1334.0,0.01538268676325183
1333.0,0.015202742910707112
1332.0,0.015067833932588037
1331.0,0.014977917890464765
1330.0,0.014977917890464765
1329.0,0.014932966849499074
1328.0,0.014932966849499074
1327.0,0.014932966849499074
1326.0,0.014932966849499074
1325.0,0.014977917890464765
1324.0,0.014977917890464765
1323.0,0.014977917890464765
1322.0,0.015067833932588037
1321.0,0.015157768594724175
1320.0,0.015247721884586563
1319.0,0.01538268676325183
1318.0,0.01547268665620738
1317.0,0.01547268665620738
1316.0,0.01547268665620738
1315.0,0.015517693597737248
1314.0,0.015652742414136167
1313.0,0.01578783323856614
1312.0,0.015877917138889863
1311.0,0.016013078034810446
1310.0,0.016058141016111804
1309.0,0.016148281008528276
1308.0,0.016148281008528276
1307.0,0.016148281008528276
1306.0,0.016148281008528276
1305.0,0.016148281008528276
1304.0,0.016103208673694303
1303.0,0.016103208673694303
1302.0,0.016058141016111804
1301.0,0.016013078034810446
1300.0,0.01596801972881945
1299.0,0.015922966097169144
1298.0,0.015877917138889863
1297.0,0.01578783323856614
1296.0,0.015652742414136167
1295.0,0.015517693597737248
1294.0,0.015427684378367834
1293.0,0.015292705517326866
1292.0,0.015157768594724175
1291.0,0.015067833932588037
1290.0,0.014977917890464765
1289.0,0.014932966849499074
1288.0,0.014888020460646079
1287.0,0.014798141635428141
1286.0,0.014708281407112
1285.0,0.014573525916998342
1284.0,0.0144837121472845
1283.0,0.014393916947563534
1282.0,0.014393916947563534
1281.0,0.014393916947563534
1280.0,0.014393916947563534
1279.0,0.014349026309051105
1278.0,0.014349026309051105
1277.0,0.014304140310157809
1276.0,0.014259258949925524
1275.0,0.014304140310157809
1274.0,0.014349026309051105
1273.0,0.014349026309051105
1272.0,0.014349026309051105
1271.0,0.014349026309051105
1270.0,0.014349026309051105
1269.0,0.014304140310157809
1268.0,0.014304140310157809
1267.0,0.014214382227394795
1266.0,0.014169510141607944
1265.0,0.014124642691606404
1264.0,0.014124642691606404
1263.0,0.014079779876432497
1262.0,0.014079779876432497
1261.0,0.013990068146738865
1260.0,0.013945219230304673
1259.0,0.013900374944870508
1258.0,0.013900374944870508
1257.0,0.01381070026317599
1256.0,0.01372104409400876
1255.0,0.013631406429727155
1254.0,0.013586594534531482
1253.0,0.013586594534531482
1252.0,0.013631406429727155
1251.0,0.013676222949234651
1250.0,0.01372104409400876
1249.0,0.013765869865004277
1248.0,0.013765869865004277
1247.0,0.01381070026317599
1246.0,0.01385553528947936
1245.0,0.01381070026317599
1244.0,0.01372104409400876
1243.0,0.013631406429727155
1242.0,0.013631406429727155
1241.0,0.013676222949234651
1240.0,0.01372104409400876
1239.0,0.013765869865004277
1238.0,0.013765869865004277
1237.0,0.01372104409400876
1236.0,0.013631406429727155
1235.0,0.013631406429727155
1234.0,0.013631406429727155
1233.0,0.013631406429727155
1232.0,0.013586594534531482
1231.0,0.013496984613259544
1230.0,0.013452186585275916
1229.0,0.013452186585275916
1228.0,0.013452186585275916
1227.0,0.013496984613259544
1226.0,0.013541787262693505
1225.0,0.013541787262693505
1224.0,0.013496984613259544
1223.0,0.013541787262693505
1222.0,0.013586594534531482
1221.0,0.013676222949234651
1220.0,0.013676222949234651
1219.0,0.013631406429727155
1218.0,0.013586594534531482
1217.0,0.013541787262693505
1216.0,0.013496984613259544
1215.0,0.013496984613259544
1214.0,0.013496984613259544
1213.0,0.013496984613259544
1212.0,0.013496984613259544
1211.0,0.013452186585275916
1210.0,0.013407393177789162
1209.0,0.013362604389846044
1208.0,0.013317820220494436
1207.0,0.013317820220494436
1206.0,0.013317820220494436
1205.0,0.013317820220494436
1204.0,0.013317820220494436
1203.0,0.013362604389846044
1202.0,0.013362604389846044
1201.0,0.013362604389846044
1200.0,0.013362604389846044
1199.0,0.013362604389846044
1198.0,0.013362604389846044
1197.0,0.013362604389846044
1196.0,0.013362604389846044
1195.0,0.013317820220494436
1194.0,0.013273040668781544
1193.0,0.01322826573375524
1192.0,0.01318349541446362
1191.0,0.01318349541446362
1190.0,0.013273040668781544
1189.0,0.013317820220494436
1188.0,0.013362604389846044
1187.0,0.013407393177789162
1186.0,0.013452186585275916
1185.0,0.013541787262693505
1184.0,0.013586594534531482
1183.0,0.013631406429727155
1182.0,0.013676222949234651
1181.0,0.01372104409400876
1180.0,0.01372104409400876
1179.0,0.01372104409400876
1178.0,0.01372104409400876
1177.0,0.013765869865004277
1176.0,0.013765869865004277
1175.0,0.01381070026317599
1174.0,0.01381070026317599
1173.0,0.01381070026317599
1172.0,0.01385553528947936
1171.0,0.013945219230304673
1170.0,0.01403492169512921
1169.0,0.014124642691606404
1168.0,0.014169510141607944
1167.0,0.014214382227394795
1166.0,0.014214382227394795
1165.0,0.014169510141607944
1164.0,0.014169510141607944
1163.0,0.014214382227394795
1162.0,0.014259258949925524
1161.0,0.014304140310157809
1160.0,0.014259258949925524
1159.0,0.014259258949925524
1158.0,0.014259258949925524
1157.0,0.014169510141607944
1156.0,0.014124642691606404
1155.0,0.014079779876432497
1154.0,0.014079779876432497
1153.0,0.014124642691606404
1152.0,0.014124642691606404
1151.0,0.014169510141607944
1150.0,0.014214382227394795
1149.0,0.014214382227394795
1148.0,0.014169510141607944
1147.0,0.014124642691606404
1146.0,0.014079779876432497
1145.0,0.01403492169512921
1144.0,0.01403492169512921
1143.0,0.01403492169512921
1142.0,0.014124642691606404
1141.0,0.014214382227394795
1140.0,0.014214382227394795
1139.0,0.014214382227394795
1138.0,0.014169510141607944
1137.0,0.014079779876432497
1136.0,0.013990068146738865
1135.0,0.013945219230304673
1134.0,0.013990068146738865
1133.0,0.01403492169512921
1132.0,0.014124642691606404
1131.0,0.014169510141607944
1130.0,0.014214382227394795
1129.0,0.014259258949925524
1128.0,0.014259258949925524
1127.0,0.014349026309051105
1126.0,0.014438812226654996
1125.0,0.01452861671041239
1124.0,0.014573525916998342
1123.0,0.014663358264387139
1122.0,0.014753209197138295
1121.0,0.014753209197138295
1120.0,0.014753209197138295
1119.0,0.014753209197138295
1118.0,0.014798141635428141
1117.0,0.014932966849499074
1116.0,0.015022873584506602
1115.0,0.015112798935672522
1114.0,0.015112798935672522
1113.0,0.015112798935672522
1112.0,0.015112798935672522
1111.0,0.015157768594724175
1110.0,0.015247721884586563
1109.0,0.015247721884586563
1108.0,0.015247721884586563
1107.0,0.015247721884586563
1106.0,0.015247721884586563
1105.0,0.015247721884586563
1104.0,0.015292705517326866
1103.0,0.015337693809893471
1102.0,0.01538268676325183
1101.0,0.01538268676325183
1100.0,0.01547268665620738
1099.0,0.015607721475734415
1098.0,0.015742798294583915
1097.0,0.015832872853011715
1096.0,0.015877917138889863
1095.0,0.015877917138889863
1094.0,0.015832872853011715
1093.0,0.015832872853011715
1092.0,0.015742798294583915
1091.0,0.015697768020096703
1090.0,0.015697768020096703
1089.0,0.015697768020096703
1088.0,0.015697768020096703
1087.0,0.015697768020096703
1086.0,0.015697768020096703
1085.0,0.015652742414136167
1084.0,0.015607721475734415
1083.0,0.015562705203923999
1082.0,0.015562705203923999
1081.0,0.01547268665620738
1080.0,0.01538268676325183
1079.0,0.015247721884586563
1078.0,0.015112798935672522
1077.0,0.014977917890464765
1076.0,0.014843078722943437
1075.0,0.014753209197138295
1074.0,0.014708281407112
1073.0,0.014663358264387139
1072.0,0.014663358264387139
1071.0,0.014618439768003144
1070.0,0.014573525916998342
1069.0,0.0144837121472845
1068.0,0.014349026309051105
1067.0,0.014349026309051105
1066.0,0.014393916947563534
1065.0,0.014438812226654996
1064.0,0.0144837121472845
1063.0,0.014438812226654996
1062.0,0.014349026309051105
1061.0,0.014214382227394795
1060.0,0.014079779876432497
1059.0,0.01403492169512921
1058.0,0.013990068146738865
1057.0,0.013945219230304673
1056.0,0.01385553528947936
1055.0,0.013676222949234651
1054.0,0.013586594534531482
1053.0,0.013586594534531482
1052.0,0.013631406429727155
1051.0,0.01372104409400876
1050.0,0.01381070026317599
1049.0,0.01385553528947936
1048.0,0.01385553528947936
1047.0,0.01385553528947936
1046.0,0.01381070026317599
1045.0,0.01381070026317599
1044.0,0.013765869865004277
1043.0,0.013676222949234651
1042.0,0.013631406429727155
1041.0,0.013586594534531482
1040.0,0.013586594534531482
1039.0,0.013586594534531482
1038.0,0.013631406429727155
1037.0,0.013676222949234651
1036.0,0.01372104409400876
1035.0,0.01381070026317599
1034.0,0.013945219230304673
1033.0,0.013990068146738865
1032.0,0.01403492169512921
1031.0,0.014079779876432497
1030.0,0.014079779876432497
1029.0,0.01403492169512921
1028.0,0.013990068146738865
1027.0,0.013945219230304673
1026.0,0.013945219230304673
1025.0,0.013945219230304673
1024.0,0.013945219230304673
1023.0,0.013945219230304673
1022.0,0.01385553528947936
1021.0,0.01381070026317599
1020.0,0.01381070026317599
1019.0,0.013765869865004277
1018.0,0.013631406429727155
1017.0,0.013362604389846044
1016.0,0.013138729709955221
1015.0,0.013004460275618523
1014.0,0.012959713020733288
1013.0,0.013004460275618523
1012.0,0.013004460275618523
1011.0,0.012959713020733288
1010.0,0.012914970375878188
1009.0,0.012825498912458322
1008.0,0.012736045877764557
1007.0,0.012691326268817527
1006.0,0.012691326268817527
1005.0,0.01264661126420652
1004.0,0.012512493866907004
1003.0,0.012378417874516323
1002.0,0.012244383261476699
1001.0,0.012110390002254778
1000.0,0.012065734767841452
999.0,0.012110390002254778
998.0,0.012244383261476699
997.0,0.012289056869694281
996.0,0.012199714248127602
995.0,0.012110390002254778
994.0,0.012065734767841452
993.0,0.012065734767841452
992.0,0.012021084124518078
991.0,0.011887159731648111
990.0,0.011753276624621556
989.0,0.011619434777991433
988.0,0.011574829993696856
987.0,0.011574829993696856
986.0,0.011574829993696856
985.0,0.011530229790124524
984.0,0.011485634166333858
983.0,0.011396456654336085
982.0,0.011262724711199823
981.0,0.011129033935354915
980.0,0.011084479487313281
979.0,0.01117359295472431
978.0,0.011307297450183107
977.0,0.011351874764248926
976.0,0.011262724711199823
975.0,0.011084479487313281
974.0,0.010817248744452446
973.0,0.010639186223752484
972.0,0.010594681998483901
971.0,0.010639186223752484
970.0,0.010728208358306901
969.0,0.010728208358306901
968.0,0.010683695010048622
967.0,0.010594681998483901
966.0,0.010594681998483901
965.0,0.010639186223752484
964.0,0.010639186223752484
963.0,0.010639186223752484
962.0,0.010550182333308289
961.0,0.010505687227290839
960.0,0.01046119667949763
959.0,0.01046119667949763
958.0,0.010416710688994968
957.0,0.01037222925484893
956.0,0.010327752376126709
955.0,0.010283280051895272
954.0,0.010194349063173958
953.0,0.010149890396819572
952.0,0.010149890396819572
951.0,0.010194349063173958
950.0,0.010283280051895272
949.0,0.010283280051895272
948.0,0.010283280051895272
947.0,0.010194349063173958
946.0,0.010149890396819572
945.0,0.010149890396819572
944.0,0.01023881228122181
943.0,0.01037222925484893
942.0,0.010505687227290839
941.0,0.010505687227290839
940.0,0.010416710688994968
939.0,0.010327752376126709
938.0,0.010283280051895272
937.0,0.010283280051895272
936.0,0.010327752376126709
935.0,0.010416710688994968
934.0,0.010505687227290839
933.0,0.010505687227290839
932.0,0.01046119667949763
931.0,0.010416710688994968
930.0,0.010416710688994968
929.0,0.010505687227290839
928.0,0.010639186223752484
927.0,0.01077272626946324
926.0,0.01086177578421088
925.0,0.01086177578421088
924.0,0.010817248744452446
923.0,0.01077272626946324
922.0,0.01077272626946324
921.0,0.010728208358306901
920.0,0.010639186223752484
919.0,0.010594681998483901
918.0,0.010639186223752484
917.0,0.010639186223752484
916.0,0.010639186223752484
915.0,0.010683695010048622
914.0,0.010728208358306901
913.0,0.01086177578421088
912.0,0.010950843561779777
911.0,0.010995384301463185
910.0,0.010995384301463185
909.0,0.010950843561779777
908.0,0.01086177578421088
907.0,0.01077272626946324
906.0,0.010728208358306901
905.0,0.010728208358306901
904.0,0.010728208358306901
903.0,0.010683695010048622
902.0,0.010550182333308289
901.0,0.01037222925484893
900.0,0.010149890396819572
899.0,0.010060986715464404
898.0,0.009972101229705377
897.0,0.009883233932095559
896.0,0.009838807101520963
895.0,0.009838807101520963
894.0,0.009927665307847056
893.0,0.01001654169860089
892.0,0.01001654169860089
891.0,0.009972101229705377
890.0,0.009972101229705377
889.0,0.01001654169860089
888.0,0.010060986715464404
887.0,0.010060986715464404
886.0,0.010060986715464404
885.0,0.010194349063173958
884.0,0.010505687227290839
883.0,0.010995384301463185
882.0,0.011530229790124524
881.0,0.01215504982870197
880.0,0.012780770091995297
879.0,0.013586594534531482
878.0,0.0144837121472845
877.0,0.01547268665620738
876.0,0.016373712875465518
875.0,0.017050711425501408
874.0,0.017231422748988034
873.0,0.016824927962187042
872.0,0.01596801972881945
871.0,0.014798141635428141
870.0,0.013676222949234651
869.0,0.012825498912458322
868.0,0.012289056869694281
867.0,0.012021084124518078
866.0,0.011887159731648111
865.0,0.011797899741219142
864.0,0.011619434777991433
863.0,0.011485634166333858
862.0,0.011396456654336085
861.0,0.011351874764248926
860.0,0.011307297450183107
859.0,0.011262724711199823
858.0,0.01117359295472431
857.0,0.011129033935354915
856.0,0.011129033935354915
855.0,0.011129033935354915
854.0,0.011084479487313281
853.0,0.010950843561779777
852.0,0.01086177578421088
851.0,0.01077272626946324
850.0,0.01077272626946324
849.0,0.010817248744452446
848.0,0.01086177578421088
847.0,0.010906307389674463
846.0,0.01086177578421088
845.0,0.01077272626946324
844.0,0.010639186223752484
843.0,0.010639186223752484
842.0,0.010728208358306901
841.0,0.01077272626946324
840.0,0.01077272626946324
839.0,0.010639186223752484
838.0,0.01046119667949763
837.0,0.010327752376126709
836.0,0.010194349063173958
835.0,0.010060986715464404
834.0,0.009883233932095559
833.0,0.00974996707218323
832.0,0.009572341514736404
831.0,0.009527946474380489
830.0,0.009572341514736404
829.0,0.00966114521239847
828.0,0.00974996707218323
827.0,0.009705553871561357
826.0,0.00966114521239847
825.0,0.00966114521239847
824.0,0.009705553871561357
823.0,0.009838807101520963
822.0,0.009927665307847056
821.0,0.009883233932095559
820.0,0.009838807101520963
819.0,0.009883233932095559
818.0,0.009972101229705377
817.0,0.010105436281226954
816.0,0.010149890396819572
815.0,0.01023881228122181
814.0,0.010327752376126709
813.0,0.010505687227290839
812.0,0.01077272626946324
811.0,0.011039929609661936
810.0,0.011218156546359825
809.0,0.011351874764248926
808.0,0.011441043121384498
807.0,0.011530229790124524
806.0,0.011574829993696856
805.0,0.011574829993696856
804.0,0.011485634166333858
803.0,0.011441043121384498
802.0,0.011441043121384498
801.0,0.011485634166333858
800.0,0.011530229790124524
799.0,0.011485634166333858
798.0,0.011485634166333858
797.0,0.011485634166333858
796.0,0.011619434777991433
795.0,0.011797899741219142
794.0,0.011931796607364653
793.0,0.0119764380713403
792.0,0.0119764380713403
791.0,0.012065734767841452
790.0,0.012244383261476699
789.0,0.012423105273012602
788.0,0.012378417874516323
787.0,0.01215504982870197
786.0,0.0119764380713403
785.0,0.011842527443247208
784.0,0.011753276624621556
783.0,0.011664044143949504
782.0,0.011574829993696856
781.0,0.011530229790124524
780.0,0.011530229790124524
779.0,0.011485634166333858
778.0,0.011396456654336085
777.0,0.011307297450183107
776.0,0.011351874764248926
775.0,0.011441043121384498
774.0,0.011530229790124524
773.0,0.011396456654336085
772.0,0.01117359295472431
771.0,0.010950843561779777
770.0,0.010728208358306901
769.0,0.010594681998483901
768.0,0.010594681998483901
767.0,0.01077272626946324
766.0,0.011039929609661936
765.0,0.011307297450183107
764.0,0.011441043121384498
763.0,0.011396456654336085
762.0,0.011307297450183107
761.0,0.011262724711199823
760.0,0.011262724711199823
759.0,0.011307297450183107
758.0,0.011485634166333858
757.0,0.011753276624621556
756.0,0.012021084124518078
755.0,0.01215504982870197
754.0,0.012065734767841452
753.0,0.0119764380713403
752.0,0.012021084124518078
751.0,0.012244383261476699
750.0,0.01264661126420652
749.0,0.013004460275618523
748.0,0.013407393177789162
747.0,0.01385553528947936
746.0,0.014349026309051105
745.0,0.014843078722943437
744.0,0.015157768594724175
743.0,0.015427684378367834
742.0,0.015742798294583915
741.0,0.016193358021584725
740.0,0.016734647433454652
739.0,0.017412209298337533
738.0,0.018362575344230914
737.0,0.019723858922159776
736.0,0.021728158389364705
735.0,0.02516604495145991
734.0,0.03133029827960798
733.0,0.04105406750606355
732.0,0.05330216275425803
731.0,0.06439198148213077
730.0,0.0702746216219956
729.0,0.06956040523329987
728.0,0.06474471821595262
727.0,0.05968277842578207
726.0,0.057000406633959555
725.0,0.057396751157843484
724.0,0.06083032037482261
723.0,0.06777998612288094
722.0,0.07893810920972144
721.0,0.09301884677114591
720.0,0.10529634739076998
719.0,0.10946720807225518
718.0,0.10374943753836186
717.0,0.0916222275676053
716.0,0.07784567476894111
715.0,0.06550154875643233
714.0,0.055566682299785564
713.0,0.04778894189133087
712.0,0.041579471947481794
711.0,0.03668448861388862
710.0,0.032920265855503006
709.0,0.030118356253500123
708.0,0.028214062120885508
707.0,0.027010773144651168
706.0,0.026041313893296225
705.0,0.025028005701930978
704.0,0.024017056287453542
703.0,0.02314585342378117
702.0,0.02245929405346514
701.0,0.021819483062586187
700.0,0.021271822861508305
699.0,0.020907099361673565
698.0,0.02058821736556471
697.0,0.02013307743509718
696.0,0.019632973815224997
695.0,0.019269623464054586
694.0,0.019042683770379876
693.0,0.018725167293411005
692.0,0.018136109008649592
691.0,0.01759307113620534
690.0,0.017412209298337533
689.0,0.017638298366853045
688.0,0.018136109008649592
687.0,0.018543833477873584
686.0,0.018634490921455527
685.0,0.01840788278591865
684.0,0.018136109008649592
683.0,0.017909760704207134
682.0,0.01768353030793479
681.0,0.017412209298337533
680.0,0.017095882207371904
679.0,0.017095882207371904
678.0,0.017457417697056554
677.0,0.017864505196230507
676.0,0.01800028587012159
675.0,0.01781925440359733
674.0,0.017321806616515723
673.0,0.016689514205884493
672.0,0.016058141016111804
671.0,0.015247721884586563
670.0,0.01381070026317599
669.0,0.011574829993696856
668.0,0.009350411681145587
667.0,0.009039900317800775
666.0,0.01037222925484893
665.0,0.011931796607364653
664.0,0.01318349541446362
663.0,0.014124642691606404
662.0,0.014843078722943437
661.0,0.015202742910707112
660.0,0.015157768594724175
659.0,0.014753209197138295
658.0,0.01403492169512921
657.0,0.013317820220494436
656.0,0.012870232340102872
655.0,0.012914970375878188
654.0,0.01322826573375524
653.0,0.013496984613259544
652.0,0.013631406429727155
651.0,0.013945219230304673
650.0,0.014393916947563534
649.0,0.014798141635428141
648.0,0.015022873584506602
647.0,0.015202742910707112
646.0,0.015202742910707112
645.0,0.014977917890464765
644.0,0.014663358264387139
643.0,0.0144837121472845
642.0,0.014663358264387139
641.0,0.014888020460646079
640.0,0.015112798935672522
639.0,0.015337693809893471
638.0,0.01578783323856614
637.0,0.016734647433454652
636.0,0.018181392829336396
635.0,0.019769308608968306
634.0,0.02081596632558158
633.0,0.020770406977844713
632.0,0.01995115493504329
631.0,0.0190880622231564
630.0,0.01858915983411169
629.0,0.01845319495476394
628.0,0.01840788278591865
627.0,0.01831727262871463
626.0,0.018271974638383703
625.0,0.018271974638383703
624.0,0.01831727262871463
623.0,0.018136109008649592
622.0,0.017774008325325275
621.0,0.017638298366853045
620.0,0.018045555530026514
619.0,0.018815862601645694
618.0,0.018906576854070378
617.0,0.01759307113620534
616.0,0.015562705203923999
615.0,0.014124642691606404
614.0,0.01403492169512921
613.0,0.014843078722943437
612.0,0.01578783323856614
611.0,0.01628352608625061
610.0,0.016418813294209356
609.0,0.016644385668211692
608.0,0.017412209298337533
607.0,0.01845319495476394
606.0,0.0192242260373785
605.0,0.01954210772389997
604.0,0.01954210772389997
603.0,0.01954210772389997
602.0,0.019632973815224997
601.0,0.02004210665933459
600.0,0.02067930261797568
