cm-1,A
4000.0,0.0218
3999.0,0.0218
3998.0,0.0218
3997.0,0.0218
3996.0,0.0218
3995.0,0.0219
3994.0,0.0219
3993.0,0.0218
3992.0,0.0217
3991.0,0.0216
3990.0,0.0215
3989.0,0.0215
3988.0,0.0216
3987.0,0.0217
3986.0,0.0218
3985.0,0.0218
3984.0,0.0218
3983.0,0.0217
3982.0,0.0216
3981.0,0.0215
3980.0,0.0215
3979.0,0.0215
3978.0,0.0216
3977.0,0.0217
3976.0,0.0217
3975.0,0.0217
3974.0,0.0218
3973.0,0.0218
3972.0,0.0219
3971.0,0.0219
3970.0,0.0219
3969.0,0.022
3968.0,0.022
3967.0,0.022
3966.0,0.0219
3965.0,0.0219
3964.0,0.0218
3963.0,0.0218
3962.0,0.0217
3961.0,0.0218
3960.0,0.0218
3959.0,0.0219
3958.0,0.0219
3957.0,0.0219
3956.0,0.022
3955.0,0.022
3954.0,0.022
3953.0,0.0219
3952.0,0.0218
3951.0,0.0217
3950.0,0.0216
3949.0,0.0216
3948.0,0.0216
3947.0,0.0216
3946.0,0.0217
3945.0,0.0217
3944.0,0.0217
3943.0,0.0217
3942.0,0.0218
3941.0,0.0219
3940.0,0.022
3939.0,0.0221
3938.0,0.0221
3937.0,0.022
3936.0,0.022
3935.0,0.022
3934.0,0.022
3933.0,0.022
3932.0,0.022
3931.0,0.022
3930.0,0.022
3929.0,0.022
3928.0,0.0221
3927.0,0.022
3926.0,0.022
3925.0,0.0219
3924.0,0.022
3923.0,0.0221
3922.0,0.0221
3921.0,0.0221
3920.0,0.022
3919.0,0.0219
3918.0,0.0218
3917.0,0.0217
3916.0,0.0217
3915.0,0.0218
3914.0,0.022
3913.0,0.0221
3912.0,0.0222
3911.0,0.0223
3910.0,0.0223
3909.0,0.0222
3908.0,0.0222
3907.0,0.0221
3906.0,0.0221
3905.0,0.0222
3904.0,0.0222
3903.0,0.0222
3902.0,0.0221
3901.0,0.022
3900.0,0.022
3899.0,0.0219
3898.0,0.022
3897.0,0.0221
3896.0,0.0222
3895.0,0.0223
3894.0,0.0224
3893.0,0.0224
3892.0,0.0224
3891.0,0.0224
3890.0,0.0224
3889.0,0.0225
3888.0,0.0225
3887.0,0.0225
3886.0,0.0225
3885.0,0.0226
3884.0,0.0228
3883.0,0.0228
3882.0,0.0226
3881.0,0.0224
3880.0,0.0223
3879.0,0.0223
3878.0,0.0225
3877.0,0.0226
3876.0,0.0225
3875.0,0.0225
3874.0,0.0225
3873.0,0.0226
3872.0,0.0227
3871.0,0.0227
3870.0,0.0226
3869.0,0.0225
3868.0,0.0225
3867.0,0.0225
3866.0,0.0224
3865.0,0.0223
3864.0,0.0223
3863.0,0.0223
3862.0,0.0224
3861.0,0.0225
3860.0,0.0226
3859.0,0.0227
3858.0,0.0228
3857.0,0.0229
3856.0,0.023
3855.0,0.0232
3854.0,0.0232
3853.0,0.023
3852.0,0.023
3851.0,0.0231
3850.0,0.0232
3849.0,0.0232
3848.0,0.0232
3847.0,0.0232
3846.0,0.0231
3845.0,0.0231
3844.0,0.023
3843.0,0.023
3842.0,0.023
3841.0,0.0229
3840.0,0.0228
3839.0,0.0228
3838.0,0.0228
3837.0,0.0229
3836.0,0.0231
3835.0,0.0233
3834.0,0.0234
3833.0,0.0233
3832.0,0.0232
3831.0,0.0231
3830.0,0.023
3829.0,0.0229
3828.0,0.0229
3827.0,0.0229
3826.0,0.023
3825.0,0.0231
3824.0,0.0232
3823.0,0.0232
3822.0,0.0232
3821.0,0.0231
3820.0,0.0232
3819.0,0.0234
3818.0,0.0235
3817.0,0.0234
3816.0,0.0232
3815.0,0.0232
3814.0,0.0232
3813.0,0.0233
3812.0,0.0232
3811.0,0.0232
3810.0,0.0234
3809.0,0.0235
3808.0,0.0236
3807.0,0.0236
3806.0,0.0236
3805.0,0.0237
3804.0,0.0237
3803.0,0.0237
3802.0,0.0235
3801.0,0.0234
3800.0,0.0233
3799.0,0.0234
3798.0,0.0233
3797.0,0.0233
3796.0,0.0233
3795.0,0.0233
3794.0,0.0233
3793.0,0.0232
3792.0,0.0232
3791.0,0.0232
3790.0,0.0233
3789.0,0.0234
3788.0,0.0235
3787.0,0.0235
3786.0,0.0234
3785.0,0.0232
3784.0,0.0231
3783.0,0.023
3782.0,0.0231
3781.0,0.0232
3780.0,0.0233
3779.0,0.0234
3778.0,0.0235
3777.0,0.0235
3776.0,0.0235
3775.0,0.0234
3774.0,0.0234
3773.0,0.0234
3772.0,0.0234
3771.0,0.0233
3770.0,0.0233
3769.0,0.0233
3768.0,0.0234
3767.0,0.0235
3766.0,0.0235
3765.0,0.0235
3764.0,0.0236
3763.0,0.0237
3762.0,0.0237
3761.0,0.0237
3760.0,0.0237
3759.0,0.0236
3758.0,0.0234
3757.0,0.0233
3756.0,0.0233
3755.0,0.0234
3754.0,0.0237
3753.0,0.0241
3752.0,0.0247
3751.0,0.0251
3750.0,0.025
3749.0,0.0248
3748.0,0.0247
3747.0,0.0246
3746.0,0.0245
3745.0,0.0242
3744.0,0.0241
3743.0,0.0242
3742.0,0.0243
3741.0,0.0242
3740.0,0.0242
3739.0,0.0242
3738.0,0.0243
3737.0,0.0244
3736.0,0.0245
3735.0,0.0245
3734.0,0.0245
3733.0,0.0246
3732.0,0.0246
3731.0,0.0246
3730.0,0.0247
3729.0,0.0246
3728.0,0.0246
3727.0,0.0245
3726.0,0.0244
3725.0,0.0242
3724.0,0.0241
3723.0,0.024
3722.0,0.024
3721.0,0.024
3720.0,0.024
3719.0,0.0241
3718.0,0.0241
3717.0,0.0242
3716.0,0.0242
3715.0,0.0243
3714.0,0.0243
3713.0,0.0244
3712.0,0.0247
3711.0,0.0248
3710.0,0.0249
3709.0,0.0249
3708.0,0.0249
3707.0,0.0248
3706.0,0.0248
3705.0,0.0248
3704.0,0.0247
3703.0,0.0245
3702.0,0.0244
3701.0,0.0243
3700.0,0.0244
3699.0,0.0244
3698.0,0.0245
3697.0,0.0245
3696.0,0.0246
3695.0,0.0248
3694.0,0.025
3693.0,0.0252
3692.0,0.0254
3691.0,0.0255
3690.0,0.0255
3689.0,0.0252
3688.0,0.0251
3687.0,0.0251
3686.0,0.0251
3685.0,0.0251
3684.0,0.025
3683.0,0.0249
3682.0,0.0249
3681.0,0.025
3680.0,0.0251
3679.0,0.0252
3678.0,0.0253
3677.0,0.0253
3676.0,0.0252
3675.0,0.0253
3674.0,0.0256
3673.0,0.0259
3672.0,0.026
3671.0,0.026
3670.0,0.0257
3669.0,0.0256
3668.0,0.0256
3667.0,0.0256
3666.0,0.0256
3665.0,0.0257
3664.0,0.0257
3663.0,0.0258
3662.0,0.0258
3661.0,0.0258
3660.0,0.0258
3659.0,0.0258
3658.0,0.0258
3657.0,0.0258
3656.0,0.0259
3655.0,0.026
3654.0,0.0262
3653.0,0.0263
3652.0,0.0263
3651.0,0.0265
3650.0,0.0269
3649.0,0.0268
3648.0,0.0266
3647.0,0.0266
3646.0,0.0268
3645.0,0.027
3644.0,0.0271
3643.0,0.0272
3642.0,0.0272
3641.0,0.0273
3640.0,0.0275
3639.0,0.0277
3638.0,0.0278
3637.0,0.028
3636.0,0.0281
3635.0,0.0282
3634.0,0.0284
3633.0,0.0285
3632.0,0.0287
3631.0,0.0288
3630.0,0.029
3629.0,0.0293
3628.0,0.0294
3627.0,0.0295
3626.0,0.0295
3625.0,0.0295
3624.0,0.0294
3623.0,0.0295
3622.0,0.0295
3621.0,0.0296
3620.0,0.0297
3619.0,0.0299
3618.0,0.0301
3617.0,0.0303
3616.0,0.0305
3615.0,0.0306
3614.0,0.0308
3613.0,0.0312
3612.0,0.0315
3611.0,0.0317
3610.0,0.0317
3609.0,0.0317
3608.0,0.0316
3607.0,0.0317
3606.0,0.0317
3605.0,0.0319
3604.0,0.032
3603.0,0.0323
3602.0,0.0326
3601.0,0.0328
3600.0,0.0329
3599.0,0.033
3598.0,0.033
3597.0,0.0331
3596.0,0.0332
3595.0,0.0333
3594.0,0.0334
3593.0,0.0333
3592.0,0.0333
3591.0,0.0333
3590.0,0.0333
3589.0,0.0335
3588.0,0.0338
3587.0,0.034
3586.0,0.0343
3585.0,0.0346
3584.0,0.0348
3583.0,0.035
3582.0,0.0351
3581.0,0.0352
3580.0,0.0354
3579.0,0.0356
3578.0,0.0357
3577.0,0.0358
3576.0,0.036
3575.0,0.0361
3574.0,0.0363
3573.0,0.0364
3572.0,0.0364
3571.0,0.0363
3570.0,0.0362
3569.0,0.0362
3568.0,0.0362
3567.0,0.0362
3566.0,0.0364
3565.0,0.0366
3564.0,0.0369
3563.0,0.0371
3562.0,0.0372
3561.0,0.0373
3560.0,0.0375
3559.0,0.0377
3558.0,0.0379
3557.0,0.0381
3556.0,0.0383
3555.0,0.0385
3554.0,0.0386
3553.0,0.0387
3552.0,0.0387
3551.0,0.0386
3550.0,0.0386
3549.0,0.0385
3548.0,0.0384
3547.0,0.0385
3546.0,0.0387
3545.0,0.039
3544.0,0.0392
3543.0,0.0395
3542.0,0.0397
3541.0,0.0399
3540.0,0.0401
3539.0,0.0402
3538.0,0.0403
3537.0,0.0404
3536.0,0.0405
3535.0,0.0406
3534.0,0.0407
3533.0,0.0407
3532.0,0.0408
3531.0,0.0409
3530.0,0.041
3529.0,0.0412
3528.0,0.0413
3527.0,0.0414
3526.0,0.0413
3525.0,0.0413
3524.0,0.0415
3523.0,0.0417
3522.0,0.042
3521.0,0.0423
3520.0,0.0424
3519.0,0.0425
3518.0,0.0426
3517.0,0.0427
3516.0,0.0427
3515.0,0.0428
3514.0,0.0428
3513.0,0.0429
3512.0,0.043
3511.0,0.0431
3510.0,0.0432
3509.0,0.0433
3508.0,0.0434
3507.0,0.0435
3506.0,0.0435
3505.0,0.0436
3504.0,0.0438
3503.0,0.044
3502.0,0.0441
3501.0,0.0442
3500.0,0.0442
3499.0,0.0443
3498.0,0.0445
3497.0,0.0447
3496.0,0.0449
3495.0,0.045
3494.0,0.0452
3493.0,0.0453
3492.0,0.0454
3491.0,0.0455
3490.0,0.0456
3489.0,0.0458
3488.0,0.046
3487.0,0.0463
3486.0,0.0464
3485.0,0.0466
3484.0,0.0467
3483.0,0.0469
3482.0,0.0469
3481.0,0.047
3480.0,0.047
3479.0,0.047
3478.0,0.0472
3477.0,0.0474
3476.0,0.0476
3475.0,0.0479
3474.0,0.048
3473.0,0.048
3472.0,0.048
3471.0,0.0481
3470.0,0.0483
3469.0,0.0485
3468.0,0.0487
3467.0,0.0489
3466.0,0.0491
3465.0,0.0492
3464.0,0.0493
3463.0,0.0495
3462.0,0.0496
3461.0,0.0498
3460.0,0.0499
3459.0,0.05
3458.0,0.05
3457.0,0.05
3456.0,0.0501
3455.0,0.0503
3454.0,0.0504
3453.0,0.0506
3452.0,0.0508
3451.0,0.0509
3450.0,0.051
3449.0,0.0511
3448.0,0.0512
3447.0,0.0513
3446.0,0.0514
3445.0,0.0516
3444.0,0.0517
3443.0,0.0518
3442.0,0.0519
3441.0,0.0521
3440.0,0.0524
3439.0,0.0527
3438.0,0.0529
3437.0,0.053
3436.0,0.053
3435.0,0.0529
3434.0,0.0529
3433.0,0.053
3432.0,0.0531
3431.0,0.0533
3430.0,0.0536
3429.0,0.0538
3428.0,0.054
3427.0,0.0541
3426.0,0.0542
3425.0,0.0543
3424.0,0.0544
3423.0,0.0545
3422.0,0.0546
3421.0,0.0547
3420.0,0.0547
3419.0,0.0547
3418.0,0.0547
3417.0,0.0546
3416.0,0.0546
3415.0,0.0547
3414.0,0.0549
3413.0,0.0551
3412.0,0.0553
3411.0,0.0555
3410.0,0.0557
3409.0,0.0557
3408.0,0.0557
3407.0,0.0558
3406.0,0.0558
3405.0,0.0559
3404.0,0.0561
3403.0,0.0563
3402.0,0.0565
3401.0,0.0565
3400.0,0.0565
3399.0,0.0564
3398.0,0.0563
3397.0,0.0563
3396.0,0.0563
3395.0,0.0563
3394.0,0.0563
3393.0,0.0564
3392.0,0.0564
3391.0,0.0565
3390.0,0.0566
3389.0,0.0566
3388.0,0.0565
3387.0,0.0564
3386.0,0.0564
3385.0,0.0565
3384.0,0.0565
3383.0,0.0566
3382.0,0.0565
3381.0,0.0564
3380.0,0.0563
3379.0,0.0562
3378.0,0.0561
3377.0,0.0561
3376.0,0.0561
3375.0,0.0562
3374.0,0.0563
3373.0,0.0563
3372.0,0.0562
3371.0,0.0561
3370.0,0.056
3369.0,0.0559
3368.0,0.0559
3367.0,0.0557
3366.0,0.0555
3365.0,0.0554
3364.0,0.0553
3363.0,0.0553
3362.0,0.0554
3361.0,0.0555
3360.0,0.0555
3359.0,0.0554
3358.0,0.0553
3357.0,0.0551
3356.0,0.0551
3355.0,0.0551
3354.0,0.0551
3353.0,0.055
3352.0,0.0549
3351.0,0.0547
3350.0,0.0546
3349.0,0.0545
3348.0,0.0544
3347.0,0.0544
3346.0,0.0543
3345.0,0.0543
3344.0,0.0542
3343.0,0.0541
3342.0,0.054
3341.0,0.054
3340.0,0.0539
3339.0,0.0539
3338.0,0.0538
3337.0,0.0537
3336.0,0.0535
3335.0,0.0534
3334.0,0.0534
3333.0,0.0533
3332.0,0.0533
3331.0,0.0531
3330.0,0.053
3329.0,0.053
3328.0,0.053
3327.0,0.0529
3326.0,0.0528
3325.0,0.0527
3324.0,0.0526
3323.0,0.0525
3322.0,0.0525
3321.0,0.0524
3320.0,0.0523
3319.0,0.0523
3318.0,0.0522
3317.0,0.0521
3316.0,0.0521
3315.0,0.0521
3314.0,0.052
3313.0,0.0519
3312.0,0.0517
3311.0,0.0516
3310.0,0.0514
3309.0,0.0512
3308.0,0.0511
3307.0,0.0511
3306.0,0.0512
3305.0,0.0512
3304.0,0.0512
3303.0,0.0511
3302.0,0.0511
3301.0,0.051
3300.0,0.0509
3299.0,0.0508
3298.0,0.0506
3297.0,0.0505
3296.0,0.0504
3295.0,0.0503
3294.0,0.0502
3293.0,0.0502
3292.0,0.0501
3291.0,0.05
3290.0,0.05
3289.0,0.05
3288.0,0.0499
3287.0,0.0498
3286.0,0.0497
3285.0,0.0496
3284.0,0.0496
3283.0,0.0496
3282.0,0.0495
3281.0,0.0495
3280.0,0.0495
3279.0,0.0494
3278.0,0.0493
3277.0,0.0492
3276.0,0.0491
3275.0,0.0491
3274.0,0.0491
3273.0,0.0492
3272.0,0.0491
3271.0,0.0491
3270.0,0.049
3269.0,0.049
3268.0,0.0489
3267.0,0.0489
3266.0,0.0489
3265.0,0.0489
3264.0,0.0488
3263.0,0.0487
3262.0,0.0486
3261.0,0.0485
3260.0,0.0484
3259.0,0.0482
3258.0,0.0481
3257.0,0.048
3256.0,0.048
3255.0,0.0481
3254.0,0.0483
3253.0,0.0484
3252.0,0.0485
3251.0,0.0485
3250.0,0.0484
3249.0,0.0482
3248.0,0.0482
3247.0,0.0481
3246.0,0.0481
3245.0,0.048
3244.0,0.048
3243.0,0.048
3242.0,0.0479
3241.0,0.0479
3240.0,0.0478
3239.0,0.0476
3238.0,0.0475
3237.0,0.0472
3236.0,0.0471
3235.0,0.0469
3234.0,0.0469
3233.0,0.0468
3232.0,0.0468
3231.0,0.0467
3230.0,0.0466
3229.0,0.0466
3228.0,0.0465
3227.0,0.0464
3226.0,0.0463
3225.0,0.0461
3224.0,0.046
3223.0,0.0459
3222.0,0.0459
3221.0,0.0459
3220.0,0.0458
3219.0,0.0458
3218.0,0.0458
3217.0,0.0457
3216.0,0.0455
3215.0,0.0453
3214.0,0.0452
3213.0,0.0451
3212.0,0.0449
3211.0,0.0448
3210.0,0.0447
3209.0,0.0445
3208.0,0.0444
3207.0,0.0443
3206.0,0.0442
3205.0,0.0441
3204.0,0.044
3203.0,0.0439
3202.0,0.0438
3201.0,0.0438
3200.0,0.0437
3199.0,0.0437
3198.0,0.0436
3197.0,0.0435
3196.0,0.0433
3195.0,0.0431
3194.0,0.043
3193.0,0.043
3192.0,0.0429
3191.0,0.0428
3190.0,0.0427
3189.0,0.0427
3188.0,0.0427
3187.0,0.0427
3186.0,0.0425
3185.0,0.0424
3184.0,0.0422
3183.0,0.042
3182.0,0.0418
3181.0,0.0417
3180.0,0.0416
3179.0,0.0416
3178.0,0.0415
3177.0,0.0415
3176.0,0.0414
3175.0,0.0414
3174.0,0.0413
3173.0,0.0412
3172.0,0.041
3171.0,0.0409
3170.0,0.0407
3169.0,0.0407
3168.0,0.0406
3167.0,0.0406
3166.0,0.0406
3165.0,0.0405
3164.0,0.0403
3163.0,0.0401
3162.0,0.04
3161.0,0.0398
3160.0,0.0397
3159.0,0.0396
3158.0,0.0395
3157.0,0.0395
3156.0,0.0394
3155.0,0.0393
3154.0,0.0391
3153.0,0.0389
3152.0,0.0388
3151.0,0.0387
3150.0,0.0387
3149.0,0.0387
3148.0,0.0387
3147.0,0.0386
3146.0,0.0385
3145.0,0.0384
3144.0,0.0383
3143.0,0.0382
3142.0,0.038
3141.0,0.0379
3140.0,0.0378
3139.0,0.0377
3138.0,0.0376
3137.0,0.0375
3136.0,0.0375
3135.0,0.0375
3134.0,0.0374
3133.0,0.0374
3132.0,0.0372
3131.0,0.0371
3130.0,0.037
3129.0,0.0369
3128.0,0.0368
3127.0,0.0367
3126.0,0.0365
3125.0,0.0363
3124.0,0.0362
3123.0,0.0361
3122.0,0.036
3121.0,0.036
3120.0,0.0359
3119.0,0.0359
3118.0,0.0358
3117.0,0.0358
3116.0,0.0357
3115.0,0.0356
3114.0,0.0356
3113.0,0.0356
3112.0,0.0357
3111.0,0.0358
3110.0,0.0359
3109.0,0.036
3108.0,0.0362
3107.0,0.0363
3106.0,0.0364
3105.0,0.0364
3104.0,0.0363
3103.0,0.0362
3102.0,0.0361
3101.0,0.036
3100.0,0.0358
3099.0,0.0357
3098.0,0.0356
3097.0,0.0354
3096.0,0.0354
3095.0,0.0354
3094.0,0.0354
3093.0,0.0355
3092.0,0.0357
3091.0,0.036
3090.0,0.0363
3089.0,0.0367
3088.0,0.0372
3087.0,0.0378
3086.0,0.0384
3085.0,0.039
3084.0,0.0395
3083.0,0.0398
3082.0,0.0399
3081.0,0.0398
3080.0,0.0396
3079.0,0.0392
3078.0,0.0387
3077.0,0.0382
3076.0,0.0379
3075.0,0.0376
3074.0,0.0374
3073.0,0.0373
3072.0,0.0373
3071.0,0.0373
3070.0,0.0375
3069.0,0.0377
3068.0,0.0381
3067.0,0.0387
3066.0,0.0393
3065.0,0.04
3064.0,0.0408
3063.0,0.0415
3062.0,0.0422
3061.0,0.0427
3060.0,0.0429
3059.0,0.0428
3058.0,0.0425
3057.0,0.042
3056.0,0.0413
3055.0,0.0406
3054.0,0.0399
3053.0,0.0394
3052.0,0.0388
3051.0,0.0383
3050.0,0.0378
3049.0,0.0374
3048.0,0.037
3047.0,0.0368
3046.0,0.0366
3045.0,0.0364
3044.0,0.0363
3043.0,0.0362
3042.0,0.0362
3041.0,0.0363
3040.0,0.0364
3039.0,0.0366
3038.0,0.0369
3037.0,0.0374
3036.0,0.0381
3035.0,0.039
3034.0,0.0401
3033.0,0.0415
3032.0,0.0431
3031.0,0.0449
3030.0,0.0467
3029.0,0.0485
3028.0,0.0502
3027.0,0.0515
3026.0,0.0524
3025.0,0.0527
3024.0,0.0524
3023.0,0.0516
3022.0,0.0503
3021.0,0.0488
3020.0,0.0472
3019.0,0.0456
3018.0,0.0442
3017.0,0.0429
3016.0,0.0418
3015.0,0.0408
3014.0,0.0399
3013.0,0.0392
3012.0,0.0386
3011.0,0.0381
3010.0,0.0379
3009.0,0.0377
3008.0,0.0376
3007.0,0.0375
3006.0,0.0375
3005.0,0.0376
3004.0,0.0377
3003.0,0.0378
3002.0,0.0378
3001.0,0.0377
3000.0,0.0375
2999.0,0.0372
2998.0,0.0369
2997.0,0.0364
2996.0,0.036
2995.0,0.0355
2994.0,0.0351
2993.0,0.0348
2992.0,0.0345
2991.0,0.0343
2990.0,0.034
2989.0,0.0339
2988.0,0.0337
2987.0,0.0336
2986.0,0.0334
2985.0,0.0331
2984.0,0.0329
2983.0,0.0328
2982.0,0.0327
2981.0,0.0326
2980.0,0.0326
2979.0,0.0327
2978.0,0.0327
2977.0,0.0328
2976.0,0.0328
2975.0,0.0327
2974.0,0.0326
2973.0,0.0325
2972.0,0.0326
2971.0,0.0326
2970.0,0.0327
2969.0,0.0328
2968.0,0.0328
2967.0,0.0328
2966.0,0.0329
2965.0,0.0329
2964.0,0.0331
2963.0,0.0333
2962.0,0.0335
2961.0,0.0338
2960.0,0.034
2959.0,0.0342
2958.0,0.0343
2957.0,0.0345
2956.0,0.0347
2955.0,0.0348
2954.0,0.0349
2953.0,0.0351
2952.0,0.0354
2951.0,0.0357
2950.0,0.036
2949.0,0.0362
2948.0,0.0365
2947.0,0.037
2946.0,0.0375
2945.0,0.038
2944.0,0.0386
2943.0,0.0391
2942.0,0.0397
2941.0,0.0404
2940.0,0.0413
2939.0,0.0423
2938.0,0.0433
2937.0,0.0444
2936.0,0.0456
2935.0,0.0468
2934.0,0.0482
2933.0,0.0495
2932.0,0.0508
2931.0,0.0521
2930.0,0.0534
2929.0,0.0545
2928.0,0.0556
2927.0,0.0566
2926.0,0.0576
2925.0,0.0583
2924.0,0.059
2923.0,0.0595
2922.0,0.0599
2921.0,0.0602
2920.0,0.0603
2919.0,0.0603
2918.0,0.0601
2917.0,0.0599
2916.0,0.0595
2915.0,0.0591
2914.0,0.0586
2913.0,0.0581
2912.0,0.0576
2911.0,0.0569
2910.0,0.0562
2909.0,0.0554
2908.0,0.0547
2907.0,0.0541
2906.0,0.0535
2905.0,0.0529
2904.0,0.0524
2903.0,0.0517
2902.0,0.0511
2901.0,0.0504
2900.0,0.0498
2899.0,0.0492
2898.0,0.0486
2897.0,0.048
2896.0,0.0474
2895.0,0.0469
2894.0,0.0464
2893.0,0.0459
2892.0,0.0454
2891.0,0.045
2890.0,0.0447
2889.0,0.0445
2888.0,0.0442
2887.0,0.0439
2886.0,0.0435
2885.0,0.0432
2884.0,0.0429
2883.0,0.0426
2882.0,0.0424
2881.0,0.0421
2880.0,0.0418
2879.0,0.0416
2878.0,0.0415
2877.0,0.0414
2876.0,0.0412
2875.0,0.0409
2874.0,0.0407
2873.0,0.0405
2872.0,0.0404
2871.0,0.0403
2870.0,0.0403
2869.0,0.0402
2868.0,0.0402
2867.0,0.0402
2866.0,0.0403
2865.0,0.0404
2864.0,0.0406
2863.0,0.0409
2862.0,0.0412
2861.0,0.0416
2860.0,0.0421
2859.0,0.0426
2858.0,0.0432
2857.0,0.0438
2856.0,0.0444
2855.0,0.045
2854.0,0.0456
2853.0,0.0462
2852.0,0.0467
2851.0,0.047
2850.0,0.0471
2849.0,0.0471
2848.0,0.0468
2847.0,0.0465
2846.0,0.0461
2845.0,0.0456
2844.0,0.0451
2843.0,0.0444
2842.0,0.0438
2841.0,0.043
2840.0,0.0422
2839.0,0.0414
2838.0,0.0406
2837.0,0.0399
2836.0,0.0394
2835.0,0.0389
2834.0,0.0385
2833.0,0.0382
2832.0,0.0378
2831.0,0.0374
2830.0,0.0372
2829.0,0.0369
2828.0,0.0367
2827.0,0.0365
2826.0,0.0362
2825.0,0.036
2824.0,0.0358
2823.0,0.0357
2822.0,0.0357
2821.0,0.0357
2820.0,0.0356
2819.0,0.0355
2818.0,0.0354
2817.0,0.0352
2816.0,0.0351
2815.0,0.0351
2814.0,0.035
2813.0,0.0349
2812.0,0.0348
2811.0,0.0347
2810.0,0.0347
2809.0,0.0346
2808.0,0.0346
2807.0,0.0345
2806.0,0.0344
2805.0,0.0344
2804.0,0.0344
2803.0,0.0344
2802.0,0.0344
2801.0,0.0343
2800.0,0.0342
2799.0,0.0341
2798.0,0.0341
2797.0,0.034
2796.0,0.0339
2795.0,0.0338
2794.0,0.0338
2793.0,0.0337
2792.0,0.0336
2791.0,0.0336
2790.0,0.0335
2789.0,0.0335
2788.0,0.0334
2787.0,0.0334
2786.0,0.0334
2785.0,0.0335
2784.0,0.0335
2783.0,0.0334
2782.0,0.0333
2781.0,0.0332
2780.0,0.0332
2779.0,0.0331
2778.0,0.0331
2777.0,0.0331
2776.0,0.0331
2775.0,0.0331
2774.0,0.033
2773.0,0.0329
2772.0,0.0329
2771.0,0.0329
2770.0,0.0329
2769.0,0.0328
2768.0,0.0328
2767.0,0.0328
2766.0,0.0327
2765.0,0.0327
2764.0,0.0327
2763.0,0.0328
2762.0,0.0328
2761.0,0.0328
2760.0,0.0327
2759.0,0.0327
2758.0,0.0327
2757.0,0.0327
2756.0,0.0326
2755.0,0.0325
2754.0,0.0325
2753.0,0.0325
2752.0,0.0325
2751.0,0.0325
2750.0,0.0325
2749.0,0.0325
2748.0,0.0325
2747.0,0.0324
2746.0,0.0323
2745.0,0.0323
2744.0,0.0324
2743.0,0.0324
2742.0,0.0325
2741.0,0.0324
2740.0,0.0324
2739.0,0.0323
2738.0,0.0323
2737.0,0.0322
2736.0,0.0322
2735.0,0.0322
2734.0,0.0322
2733.0,0.0322
2732.0,0.0322
2731.0,0.0321
2730.0,0.0321
2729.0,0.032
2728.0,0.032
2727.0,0.032
2726.0,0.0321
2725.0,0.0321
2724.0,0.0321
2723.0,0.032
2722.0,0.032
2721.0,0.032
2720.0,0.032
2719.0,0.032
2718.0,0.032
2717.0,0.032
2716.0,0.0319
2715.0,0.0318
2714.0,0.0318
2713.0,0.0318
2712.0,0.0318
2711.0,0.0319
2710.0,0.0319
2709.0,0.0319
2708.0,0.032
2707.0,0.032
2706.0,0.032
2705.0,0.0319
2704.0,0.0319
2703.0,0.0318
2702.0,0.0318
2701.0,0.0318
2700.0,0.0318
2699.0,0.0317
2698.0,0.0317
2697.0,0.0316
2696.0,0.0316
2695.0,0.0317
2694.0,0.0317
2693.0,0.0317
2692.0,0.0317
2691.0,0.0317
2690.0,0.0317
2689.0,0.0317
2688.0,0.0317
2687.0,0.0316
2686.0,0.0316
2685.0,0.0316
2684.0,0.0315
2683.0,0.0315
2682.0,0.0315
2681.0,0.0315
2680.0,0.0315
2679.0,0.0315
2678.0,0.0315
2677.0,0.0316
2676.0,0.0316
2675.0,0.0316
2674.0,0.0316
2673.0,0.0315
2672.0,0.0314
2671.0,0.0314
2670.0,0.0314
2669.0,0.0314
2668.0,0.0314
2667.0,0.0315
2666.0,0.0315
2665.0,0.0315
2664.0,0.0314
2663.0,0.0314
2662.0,0.0314
2661.0,0.0314
2660.0,0.0314
2659.0,0.0314
2658.0,0.0313
2657.0,0.0313
2656.0,0.0313
2655.0,0.0313
2654.0,0.0313
2653.0,0.0313
2652.0,0.0313
2651.0,0.0313
2650.0,0.0313
2649.0,0.0313
2648.0,0.0313
2647.0,0.0314
2646.0,0.0314
2645.0,0.0314
2644.0,0.0314
2643.0,0.0314
2642.0,0.0313
2641.0,0.0313
2640.0,0.0312
2639.0,0.0311
2638.0,0.0311
2637.0,0.0311
2636.0,0.0311
2635.0,0.0311
2634.0,0.0312
2633.0,0.0311
2632.0,0.0311
2631.0,0.031
2630.0,0.031
2629.0,0.0311
2628.0,0.0311
2627.0,0.0311
2626.0,0.0311
2625.0,0.0311
2624.0,0.0312
2623.0,0.0312
2622.0,0.0312
2621.0,0.0311
2620.0,0.031
2619.0,0.031
2618.0,0.0309
2617.0,0.031
2616.0,0.031
2615.0,0.031
2614.0,0.031
2613.0,0.031
2612.0,0.031
2611.0,0.031
2610.0,0.0311
2609.0,0.0311
2608.0,0.0312
2607.0,0.0312
2606.0,0.0312
2605.0,0.0311
2604.0,0.031
2603.0,0.0309
2602.0,0.0309
2601.0,0.0309
2600.0,0.0309
2599.0,0.0309
2598.0,0.0308
2597.0,0.0308
2596.0,0.0308
2595.0,0.0309
2594.0,0.0309
2593.0,0.0309
2592.0,0.0308
2591.0,0.0308
2590.0,0.0309
2589.0,0.0309
2588.0,0.0309
2587.0,0.0309
2586.0,0.0309
2585.0,0.0309
2584.0,0.0308
2583.0,0.0308
2582.0,0.0307
2581.0,0.0307
2580.0,0.0308
2579.0,0.0308
2578.0,0.0308
2577.0,0.0307
2576.0,0.0307
2575.0,0.0307
2574.0,0.0308
2573.0,0.0308
2572.0,0.0308
2571.0,0.0308
2570.0,0.0307
2569.0,0.0307
2568.0,0.0307
2567.0,0.0306
2566.0,0.0306
2565.0,0.0306
2564.0,0.0306
2563.0,0.0306
2562.0,0.0306
2561.0,0.0306
2560.0,0.0306
2559.0,0.0306
2558.0,0.0306
2557.0,0.0306
2556.0,0.0305
2555.0,0.0305
2554.0,0.0306
2553.0,0.0306
2552.0,0.0306
2551.0,0.0306
2550.0,0.0306
2549.0,0.0306
2548.0,0.0306
2547.0,0.0306
2546.0,0.0305
2545.0,0.0305
2544.0,0.0305
2543.0,0.0306
2542.0,0.0307
2541.0,0.0307
2540.0,0.0307
2539.0,0.0307
2538.0,0.0306
2537.0,0.0306
2536.0,0.0306
2535.0,0.0306
2534.0,0.0306
2533.0,0.0305
2532.0,0.0305
2531.0,0.0306
2530.0,0.0306
2529.0,0.0305
2528.0,0.0305
2527.0,0.0304
2526.0,0.0304
2525.0,0.0304
2524.0,0.0304
2523.0,0.0305
2522.0,0.0305
2521.0,0.0305
2520.0,0.0305
2519.0,0.0304
2518.0,0.0303
2517.0,0.0303
2516.0,0.0304
2515.0,0.0304
2514.0,0.0304
2513.0,0.0304
2512.0,0.0304
2511.0,0.0304
2510.0,0.0304
2509.0,0.0305
2508.0,0.0306
2507.0,0.0306
2506.0,0.0306
2505.0,0.0306
2504.0,0.0305
2503.0,0.0304
2502.0,0.0304
2501.0,0.0305
2500.0,0.0305
2499.0,0.0305
2498.0,0.0305
2497.0,0.0305
2496.0,0.0305
2495.0,0.0305
2494.0,0.0305
2493.0,0.0305
2492.0,0.0305
2491.0,0.0305
2490.0,0.0305
2489.0,0.0305
2488.0,0.0304
2487.0,0.0303
2486.0,0.0303
2485.0,0.0303
2484.0,0.0304
2483.0,0.0304
2482.0,0.0304
2481.0,0.0304
2480.0,0.0304
2479.0,0.0304
2478.0,0.0304
2477.0,0.0305
2476.0,0.0305
2475.0,0.0305
2474.0,0.0304
2473.0,0.0304
2472.0,0.0303
2471.0,0.0302
2470.0,0.0302
2469.0,0.0303
2468.0,0.0303
2467.0,0.0303
2466.0,0.0303
2465.0,0.0303
2464.0,0.0302
2463.0,0.0302
2462.0,0.0302
2461.0,0.0302
2460.0,0.0302
2459.0,0.0302
2458.0,0.0302
2457.0,0.0302
2456.0,0.0302
2455.0,0.0302
2454.0,0.0302
2453.0,0.0303
2452.0,0.0303
2451.0,0.0304
2450.0,0.0304
2449.0,0.0304
2448.0,0.0304
2447.0,0.0304
2446.0,0.0303
2445.0,0.0303
2444.0,0.0303
2443.0,0.0303
2442.0,0.0303
2441.0,0.0304
2440.0,0.0304
2439.0,0.0304
2438.0,0.0304
2437.0,0.0303
2436.0,0.0302
2435.0,0.0302
2434.0,0.0302
2433.0,0.0302
2432.0,0.0303
2431.0,0.0303
2430.0,0.0304
2429.0,0.0304
2428.0,0.0304
2427.0,0.0304
2426.0,0.0304
2425.0,0.0303
2424.0,0.0302
2423.0,0.0302
2422.0,0.0301
2421.0,0.0302
2420.0,0.0302
2419.0,0.0302
2418.0,0.0302
2417.0,0.0302
2416.0,0.0303
2415.0,0.0303
2414.0,0.0303
2413.0,0.0304
2412.0,0.0304
2411.0,0.0304
2410.0,0.0303
2409.0,0.0303
2408.0,0.0302
2407.0,0.0302
2406.0,0.0301
2405.0,0.0302
2404.0,0.0302
2403.0,0.0303
2402.0,0.0303
2401.0,0.0303
2400.0,0.0303
2399.0,0.0302
2398.0,0.0302
2397.0,0.0302
2396.0,0.0303
2395.0,0.0304
2394.0,0.0304
2393.0,0.0304
2392.0,0.0304
2391.0,0.0304
2390.0,0.0304
2389.0,0.0305
2388.0,0.0307
2387.0,0.0309
2386.0,0.0311
2385.0,0.0313
2384.0,0.0314
2383.0,0.0314
2382.0,0.0313
2381.0,0.0311
2380.0,0.0308
2379.0,0.0305
2378.0,0.0302
2377.0,0.0301
2376.0,0.0301
2375.0,0.0302
2374.0,0.0303
2373.0,0.0303
2372.0,0.0303
2371.0,0.0304
2370.0,0.0304
2369.0,0.0305
2368.0,0.0305
2367.0,0.0305
2366.0,0.0302
2365.0,0.0295
2364.0,0.029
2363.0,0.0291
2362.0,0.0297
2361.0,0.0304
2360.0,0.031
2359.0,0.0315
2358.0,0.0315
2357.0,0.0307
2356.0,0.0297
2355.0,0.0288
2354.0,0.0284
2353.0,0.0285
2352.0,0.0295
2351.0,0.0311
2350.0,0.0325
2349.0,0.0329
2348.0,0.032
2347.0,0.0306
2346.0,0.0298
2345.0,0.03
2344.0,0.0307
2343.0,0.0309
2342.0,0.0304
2341.0,0.0293
2340.0,0.0283
2339.0,0.0278
2338.0,0.0279
2337.0,0.0281
2336.0,0.0282
2335.0,0.0281
2334.0,0.0277
2333.0,0.0273
2332.0,0.0272
2331.0,0.0277
2330.0,0.0285
2329.0,0.0293
2328.0,0.03
2327.0,0.0305
2326.0,0.0305
2325.0,0.0302
2324.0,0.0297
2323.0,0.0294
2322.0,0.0296
2321.0,0.03
2320.0,0.0307
2319.0,0.0314
2318.0,0.032
2317.0,0.0322
2316.0,0.0322
2315.0,0.0321
2314.0,0.032
2313.0,0.0321
2312.0,0.0323
2311.0,0.0327
2310.0,0.0329
2309.0,0.0331
2308.0,0.033
2307.0,0.0328
2306.0,0.0326
2305.0,0.0324
2304.0,0.0323
2303.0,0.0324
2302.0,0.0325
2301.0,0.0325
2300.0,0.0324
2299.0,0.0323
2298.0,0.0322
2297.0,0.0322
2296.0,0.0322
2295.0,0.0322
2294.0,0.0321
2293.0,0.032
2292.0,0.0318
2291.0,0.0317
2290.0,0.0316
2289.0,0.0315
2288.0,0.0315
2287.0,0.0314
2286.0,0.0313
2285.0,0.0313
2284.0,0.0312
2283.0,0.0311
2282.0,0.0311
2281.0,0.0311
2280.0,0.031
2279.0,0.031
2278.0,0.031
2277.0,0.031
2276.0,0.0311
2275.0,0.0311
2274.0,0.031
2273.0,0.031
2272.0,0.0309
2271.0,0.0309
2270.0,0.0309
2269.0,0.0309
2268.0,0.0309
2267.0,0.0309
2266.0,0.0309
2265.0,0.0309
2264.0,0.0309
2263.0,0.0308
2262.0,0.0308
2261.0,0.0308
2260.0,0.0308
2259.0,0.0308
2258.0,0.0308
2257.0,0.0308
2256.0,0.0308
2255.0,0.0308
2254.0,0.0308
2253.0,0.0308
2252.0,0.0308
2251.0,0.0307
2250.0,0.0307
2249.0,0.0308
2248.0,0.0309
2247.0,0.031
2246.0,0.031
2245.0,0.0309
2244.0,0.0308
2243.0,0.0308
2242.0,0.0308
2241.0,0.0307
2240.0,0.0307
2239.0,0.0306
2238.0,0.0306
2237.0,0.0306
2236.0,0.0306
2235.0,0.0306
2234.0,0.0308
2233.0,0.0309
2232.0,0.0309
2231.0,0.0308
2230.0,0.0307
2229.0,0.0306
2228.0,0.0305
2227.0,0.0305
2226.0,0.0305
2225.0,0.0306
2224.0,0.0306
2223.0,0.0307
2222.0,0.0306
2221.0,0.0306
2220.0,0.0306
2219.0,0.0306
2218.0,0.0306
2217.0,0.0306
2216.0,0.0306
2215.0,0.0306
2214.0,0.0306
2213.0,0.0306
2212.0,0.0307
2211.0,0.0307
2210.0,0.0307
2209.0,0.0307
2208.0,0.0307
2207.0,0.0306
2206.0,0.0305
2205.0,0.0305
2204.0,0.0305
2203.0,0.0306
2202.0,0.0306
2201.0,0.0307
2200.0,0.0307
2199.0,0.0307
2198.0,0.0306
2197.0,0.0306
2196.0,0.0306
2195.0,0.0306
2194.0,0.0306
2193.0,0.0306
2192.0,0.0306
2191.0,0.0306
2190.0,0.0305
2189.0,0.0305
2188.0,0.0305
2187.0,0.0306
2186.0,0.0307
2185.0,0.0307
2184.0,0.0307
2183.0,0.0306
2182.0,0.0306
2181.0,0.0305
2180.0,0.0305
2179.0,0.0305
2178.0,0.0304
2177.0,0.0304
2176.0,0.0304
2175.0,0.0304
2174.0,0.0305
2173.0,0.0305
2172.0,0.0305
2171.0,0.0305
2170.0,0.0305
2169.0,0.0304
2168.0,0.0304
2167.0,0.0304
2166.0,0.0304
2165.0,0.0305
2164.0,0.0305
2163.0,0.0306
2162.0,0.0306
2161.0,0.0306
2160.0,0.0306
2159.0,0.0306
2158.0,0.0306
2157.0,0.0305
2156.0,0.0305
2155.0,0.0305
2154.0,0.0304
2153.0,0.0304
2152.0,0.0305
2151.0,0.0305
2150.0,0.0305
2149.0,0.0305
2148.0,0.0305
2147.0,0.0305
2146.0,0.0306
2145.0,0.0306
2144.0,0.0306
2143.0,0.0306
2142.0,0.0306
2141.0,0.0306
2140.0,0.0305
2139.0,0.0305
2138.0,0.0305
2137.0,0.0305
2136.0,0.0305
2135.0,0.0305
2134.0,0.0304
2133.0,0.0304
2132.0,0.0304
2131.0,0.0305
2130.0,0.0306
2129.0,0.0306
2128.0,0.0306
2127.0,0.0306
2126.0,0.0306
2125.0,0.0306
2124.0,0.0306
2123.0,0.0305
2122.0,0.0305
2121.0,0.0304
2120.0,0.0304
2119.0,0.0304
2118.0,0.0304
2117.0,0.0304
2116.0,0.0305
2115.0,0.0305
2114.0,0.0305
2113.0,0.0305
2112.0,0.0305
2111.0,0.0305
2110.0,0.0305
2109.0,0.0305
2108.0,0.0305
2107.0,0.0305
2106.0,0.0304
2105.0,0.0304
2104.0,0.0305
2103.0,0.0306
2102.0,0.0306
2101.0,0.0306
2100.0,0.0307
2099.0,0.0307
2098.0,0.0306
2097.0,0.0306
2096.0,0.0305
2095.0,0.0304
2094.0,0.0304
2093.0,0.0304
2092.0,0.0304
2091.0,0.0304
2090.0,0.0304
2089.0,0.0304
2088.0,0.0304
2087.0,0.0305
2086.0,0.0305
2085.0,0.0305
2084.0,0.0305
2083.0,0.0305
2082.0,0.0305
2081.0,0.0305
2080.0,0.0305
2079.0,0.0305
2078.0,0.0305
2077.0,0.0305
2076.0,0.0306
2075.0,0.0305
2074.0,0.0305
2073.0,0.0304
2072.0,0.0304
2071.0,0.0304
2070.0,0.0304
2069.0,0.0304
2068.0,0.0304
2067.0,0.0305
2066.0,0.0305
2065.0,0.0305
2064.0,0.0306
2063.0,0.0305
2062.0,0.0305
2061.0,0.0305
2060.0,0.0305
2059.0,0.0305
2058.0,0.0305
2057.0,0.0304
2056.0,0.0304
2055.0,0.0303
2054.0,0.0303
2053.0,0.0303
2052.0,0.0304
2051.0,0.0305
2050.0,0.0305
2049.0,0.0305
2048.0,0.0304
2047.0,0.0304
2046.0,0.0304
2045.0,0.0304
2044.0,0.0304
2043.0,0.0304
2042.0,0.0304
2041.0,0.0304
2040.0,0.0304
2039.0,0.0304
2038.0,0.0305
2037.0,0.0305
2036.0,0.0306
2035.0,0.0306
2034.0,0.0305
2033.0,0.0305
2032.0,0.0304
2031.0,0.0304
2030.0,0.0304
2029.0,0.0304
2028.0,0.0304
2027.0,0.0304
2026.0,0.0304
2025.0,0.0304
2024.0,0.0305
2023.0,0.0305
2022.0,0.0305
2021.0,0.0304
2020.0,0.0303
2019.0,0.0302
2018.0,0.0302
2017.0,0.0302
2016.0,0.0302
2015.0,0.0303
2014.0,0.0303
2013.0,0.0303
2012.0,0.0304
2011.0,0.0304
2010.0,0.0304
2009.0,0.0304
2008.0,0.0304
2007.0,0.0303
2006.0,0.0303
2005.0,0.0303
2004.0,0.0303
2003.0,0.0303
2002.0,0.0303
2001.0,0.0303
2000.0,0.0303
1999.0,0.0303
1998.0,0.0303
1997.0,0.0303
1996.0,0.0303
1995.0,0.0303
1994.0,0.0303
1993.0,0.0304
1992.0,0.0305
1991.0,0.0305
1990.0,0.0306
1989.0,0.0306
1988.0,0.0306
1987.0,0.0306
1986.0,0.0305
1985.0,0.0305
1984.0,0.0305
1983.0,0.0305
1982.0,0.0304
1981.0,0.0304
1980.0,0.0304
1979.0,0.0304
1978.0,0.0304
1977.0,0.0304
1976.0,0.0304
1975.0,0.0305
1974.0,0.0305
1973.0,0.0305
1972.0,0.0305
1971.0,0.0306
1970.0,0.0307
1969.0,0.0308
1968.0,0.031
1967.0,0.0311
1966.0,0.0312
1965.0,0.0313
1964.0,0.0313
1963.0,0.0314
1962.0,0.0315
1961.0,0.0316
1960.0,0.0317
1959.0,0.0318
1958.0,0.0319
1957.0,0.032
1956.0,0.0322
1955.0,0.0323
1954.0,0.0324
1953.0,0.0324
1952.0,0.0325
1951.0,0.0326
1950.0,0.0327
1949.0,0.0329
1948.0,0.0331
1947.0,0.0333
1946.0,0.0334
1945.0,0.0335
1944.0,0.0336
1943.0,0.0337
1942.0,0.0338
1941.0,0.0338
1940.0,0.0338
1939.0,0.0338
1938.0,0.0337
1937.0,0.0336
1936.0,0.0334
1935.0,0.0333
1934.0,0.0331
1933.0,0.0329
1932.0,0.0327
1931.0,0.0325
1930.0,0.0323
1929.0,0.0323
1928.0,0.0322
1927.0,0.0321
1926.0,0.0319
1925.0,0.0317
1924.0,0.0316
1923.0,0.0315
1922.0,0.0315
1921.0,0.0315
1920.0,0.0315
1919.0,0.0315
1918.0,0.0315
1917.0,0.0315
1916.0,0.0314
1915.0,0.0313
1914.0,0.0312
1913.0,0.0312
1912.0,0.0311
1911.0,0.0311
1910.0,0.031
1909.0,0.031
1908.0,0.031
1907.0,0.031
1906.0,0.031
1905.0,0.031
1904.0,0.031
1903.0,0.031
1902.0,0.031
1901.0,0.031
1900.0,0.031
1899.0,0.031
1898.0,0.0311
1897.0,0.0312
1896.0,0.0314
1895.0,0.0315
1894.0,0.0316
1893.0,0.0316
1892.0,0.0317
1891.0,0.0318
1890.0,0.0319
1889.0,0.032
1888.0,0.0321
1887.0,0.0322
1886.0,0.0323
1885.0,0.0324
1884.0,0.0324
1883.0,0.0325
1882.0,0.0325
1881.0,0.0327
1880.0,0.0328
1879.0,0.0329
1878.0,0.033
1877.0,0.0331
1876.0,0.0331
1875.0,0.0331
1874.0,0.0332
1873.0,0.0332
1872.0,0.0333
1871.0,0.0333
1870.0,0.0334
1869.0,0.0334
1868.0,0.0335
1867.0,0.0335
1866.0,0.0335
1865.0,0.0335
1864.0,0.0334
1863.0,0.0333
1862.0,0.0332
1861.0,0.033
1860.0,0.0329
1859.0,0.0327
1858.0,0.0325
1857.0,0.0324
1856.0,0.0323
1855.0,0.0322
1854.0,0.0321
1853.0,0.032
1852.0,0.032
1851.0,0.0319
1850.0,0.0319
1849.0,0.0318
1848.0,0.0318
1847.0,0.0318
1846.0,0.0318
1845.0,0.0318
1844.0,0.0319
1843.0,0.0318
1842.0,0.0317
1841.0,0.0316
1840.0,0.0314
1839.0,0.0313
1838.0,0.0313
1837.0,0.0312
1836.0,0.0313
1835.0,0.0313
1834.0,0.0313
1833.0,0.0313
1832.0,0.0313
1831.0,0.0313
1830.0,0.0313
1829.0,0.0314
1828.0,0.0314
1827.0,0.0315
1826.0,0.0317
1825.0,0.0318
1824.0,0.0319
1823.0,0.032
1822.0,0.0321
1821.0,0.0321
1820.0,0.0322
1819.0,0.0322
1818.0,0.0323
1817.0,0.0324
1816.0,0.0324
1815.0,0.0325
1814.0,0.0325
1813.0,0.0326
1812.0,0.0327
1811.0,0.0329
1810.0,0.0331
1809.0,0.0333
1808.0,0.0334
1807.0,0.0335
1806.0,0.0336
1805.0,0.0338
1804.0,0.0339
1803.0,0.0339
1802.0,0.034
1801.0,0.034
1800.0,0.034
1799.0,0.0339
1798.0,0.0338
1797.0,0.0337
1796.0,0.0336
1795.0,0.0335
1794.0,0.0333
1793.0,0.0331
1792.0,0.033
1791.0,0.0329
1790.0,0.0328
1789.0,0.0327
1788.0,0.0326
1787.0,0.0325
1786.0,0.0325
1785.0,0.0324
1784.0,0.0323
1783.0,0.0322
1782.0,0.0321
1781.0,0.032
1780.0,0.0321
1779.0,0.0321
1778.0,0.0321
1777.0,0.032
1776.0,0.032
1775.0,0.0321
1774.0,0.032
1773.0,0.032
1772.0,0.032
1771.0,0.032
1770.0,0.0321
1769.0,0.0322
1768.0,0.0323
1767.0,0.0323
1766.0,0.0322
1765.0,0.0322
1764.0,0.0323
1763.0,0.0324
1762.0,0.0326
1761.0,0.0327
1760.0,0.0327
1759.0,0.0327
1758.0,0.0328
1757.0,0.033
1756.0,0.0332
1755.0,0.0333
1754.0,0.0334
1753.0,0.0336
1752.0,0.0339
1751.0,0.0342
1750.0,0.0344
1749.0,0.0344
1748.0,0.0345
1747.0,0.0347
1746.0,0.0348
1745.0,0.0348
1744.0,0.0349
1743.0,0.0349
1742.0,0.0349
1741.0,0.0349
1740.0,0.0351
1739.0,0.0352
1738.0,0.0353
1737.0,0.0353
1736.0,0.0353
1735.0,0.0354
1734.0,0.0354
1733.0,0.0352
1732.0,0.035
1731.0,0.0348
1730.0,0.0347
1729.0,0.0346
1728.0,0.0346
1727.0,0.0346
1726.0,0.0345
1725.0,0.0345
1724.0,0.0345
1723.0,0.0345
1722.0,0.0345
1721.0,0.0345
1720.0,0.0345
1719.0,0.0345
1718.0,0.0345
1717.0,0.0346
1716.0,0.0347
1715.0,0.0347
1714.0,0.0348
1713.0,0.0349
1712.0,0.0349
1711.0,0.0349
1710.0,0.0349
1709.0,0.035
1708.0,0.0351
1707.0,0.0352
1706.0,0.0353
1705.0,0.0355
1704.0,0.0357
1703.0,0.0359
1702.0,0.0361
1701.0,0.0365
1700.0,0.0369
1699.0,0.0369
1698.0,0.0369
1697.0,0.037
1696.0,0.0373
1695.0,0.0375
1694.0,0.0377
1693.0,0.0378
1692.0,0.0379
1691.0,0.0381
1690.0,0.0383
1689.0,0.0386
1688.0,0.0388
1687.0,0.039
1686.0,0.039
1685.0,0.0395
1684.0,0.0401
1683.0,0.0405
1682.0,0.0406
1681.0,0.0408
1680.0,0.041
1679.0,0.0413
1678.0,0.0416
1677.0,0.0418
1676.0,0.0422
1675.0,0.0426
1674.0,0.0428
1673.0,0.0429
1672.0,0.0429
1671.0,0.0432
1670.0,0.0437
1669.0,0.0443
1668.0,0.0448
1667.0,0.045
1666.0,0.0451
1665.0,0.0452
1664.0,0.0453
1663.0,0.0457
1662.0,0.046
1661.0,0.0463
1660.0,0.0464
1659.0,0.0466
1658.0,0.0466
1657.0,0.0466
1656.0,0.0467
1655.0,0.0467
1654.0,0.0472
1653.0,0.0482
1652.0,0.0487
1651.0,0.0487
1650.0,0.0486
1649.0,0.0486
1648.0,0.0489
1647.0,0.0498
1646.0,0.0505
1645.0,0.0508
1644.0,0.0509
1643.0,0.051
1642.0,0.0511
1641.0,0.0512
1640.0,0.0511
1639.0,0.051
1638.0,0.0507
1637.0,0.0503
1636.0,0.0501
1635.0,0.0499
1634.0,0.0496
1633.0,0.0492
1632.0,0.0488
1631.0,0.0485
1630.0,0.0482
1629.0,0.0479
1628.0,0.0477
1627.0,0.0476
1626.0,0.0474
1625.0,0.0472
1624.0,0.0472
1623.0,0.0471
1622.0,0.047
1621.0,0.0468
1620.0,0.0465
1619.0,0.0462
1618.0,0.046
1617.0,0.0458
1616.0,0.0457
1615.0,0.0457
1614.0,0.0456
1613.0,0.0455
1612.0,0.0455
1611.0,0.0457
1610.0,0.0462
1609.0,0.0472
1608.0,0.0486
1607.0,0.0507
1606.0,0.0532
1605.0,0.0559
1604.0,0.059
1603.0,0.062
1602.0,0.0641
1601.0,0.065
1600.0,0.0646
1599.0,0.0631
1598.0,0.0609
1597.0,0.0584
1596.0,0.056
1595.0,0.0541
1594.0,0.0524
1593.0,0.051
1592.0,0.0498
1591.0,0.0487
1590.0,0.0479
1589.0,0.0473
1588.0,0.0472
1587.0,0.0474
1586.0,0.048
1585.0,0.0487
1584.0,0.0492
1583.0,0.0494
1582.0,0.0488
1581.0,0.0478
1580.0,0.0466
1579.0,0.0455
1578.0,0.0445
1577.0,0.0435
1576.0,0.0426
1575.0,0.0421
1574.0,0.0416
1573.0,0.0412
1572.0,0.0408
1571.0,0.0404
1570.0,0.04
1569.0,0.0397
1568.0,0.0395
1567.0,0.0393
1566.0,0.039
1565.0,0.0388
1564.0,0.0386
1563.0,0.0385
1562.0,0.0383
1561.0,0.038
1560.0,0.0377
1559.0,0.0379
1558.0,0.038
1557.0,0.038
1556.0,0.0379
1555.0,0.038
1554.0,0.038
1553.0,0.038
1552.0,0.0379
1551.0,0.0379
1550.0,0.038
1549.0,0.0381
1548.0,0.0382
1547.0,0.0383
1546.0,0.0384
1545.0,0.0386
1544.0,0.0387
1543.0,0.0388
1542.0,0.0388
1541.0,0.0386
1540.0,0.0385
1539.0,0.0384
1538.0,0.0383
1537.0,0.0382
1536.0,0.038
1535.0,0.0378
1534.0,0.0376
1533.0,0.0373
1532.0,0.0371
1531.0,0.0369
1530.0,0.0366
1529.0,0.0364
1528.0,0.0363
1527.0,0.0362
1526.0,0.0359
1525.0,0.0357
1524.0,0.0354
1523.0,0.0352
1522.0,0.0351
1521.0,0.0351
1520.0,0.035
1519.0,0.0348
1518.0,0.0345
1517.0,0.0343
1516.0,0.0343
1515.0,0.0343
1514.0,0.0342
1513.0,0.034
1512.0,0.0338
1511.0,0.0337
1510.0,0.0335
1509.0,0.0333
1508.0,0.0331
1507.0,0.0331
1506.0,0.033
1505.0,0.033
1504.0,0.0331
1503.0,0.0333
1502.0,0.0337
1501.0,0.0345
1500.0,0.036
1499.0,0.039
1498.0,0.0451
1497.0,0.0556
1496.0,0.0688
1495.0,0.0805
1494.0,0.0889
1493.0,0.0937
1492.0,0.0943
1491.0,0.0897
1490.0,0.0808
1489.0,0.0718
1488.0,0.0653
1487.0,0.0607
1486.0,0.0573
1485.0,0.0545
1484.0,0.0522
1483.0,0.0501
1482.0,0.0482
1481.0,0.0467
1480.0,0.0456
1479.0,0.0447
1478.0,0.044
1477.0,0.0433
1476.0,0.0428
1475.0,0.0423
1474.0,0.0419
1473.0,0.0417
1472.0,0.0416
1471.0,0.0413
1470.0,0.0411
1469.0,0.041
1468.0,0.041
1467.0,0.0409
1466.0,0.0407
1465.0,0.0407
1464.0,0.0407
1463.0,0.0405
1462.0,0.0404
1461.0,0.0404
1460.0,0.0408
1459.0,0.0424
1458.0,0.0479
1457.0,0.0593
1456.0,0.0711
1455.0,0.0803
1454.0,0.0878
1453.0,0.0937
1452.0,0.0969
1451.0,0.0966
1450.0,0.0938
1449.0,0.0899
1448.0,0.0857
1447.0,0.0822
1446.0,0.0794
1445.0,0.0769
1444.0,0.0745
1443.0,0.0719
1442.0,0.0696
1441.0,0.0676
1440.0,0.0658
1439.0,0.0641
1438.0,0.0624
1437.0,0.0605
1436.0,0.0585
1435.0,0.0567
1434.0,0.0552
1433.0,0.0538
1432.0,0.0524
1431.0,0.0512
1430.0,0.0501
1429.0,0.0493
1428.0,0.0485
1427.0,0.0479
1426.0,0.0473
1425.0,0.0468
1424.0,0.0463
1423.0,0.046
1422.0,0.0457
1421.0,0.0455
1420.0,0.0452
1419.0,0.0451
1418.0,0.045
1417.0,0.0447
1416.0,0.0444
1415.0,0.0441
1414.0,0.0439
1413.0,0.0436
1412.0,0.0434
1411.0,0.0433
1410.0,0.0432
1409.0,0.043
1408.0,0.0429
1407.0,0.0428
1406.0,0.0427
1405.0,0.0426
1404.0,0.0426
1403.0,0.0425
1402.0,0.0424
1401.0,0.0422
1400.0,0.0421
1399.0,0.0421
1398.0,0.0422
1397.0,0.0422
1396.0,0.0423
1395.0,0.0424
1394.0,0.0426
1393.0,0.0428
1392.0,0.0429
1391.0,0.0431
1390.0,0.0434
1389.0,0.0437
1388.0,0.0442
1387.0,0.0448
1386.0,0.0453
1385.0,0.0457
1384.0,0.046
1383.0,0.0465
1382.0,0.047
1381.0,0.0475
1380.0,0.048
1379.0,0.0486
1378.0,0.0491
1377.0,0.0495
1376.0,0.0499
1375.0,0.0502
1374.0,0.0506
1373.0,0.0508
1372.0,0.0508
1371.0,0.0507
1370.0,0.0505
1369.0,0.0504
1368.0,0.0503
1367.0,0.0502
1366.0,0.0501
1365.0,0.0499
1364.0,0.0498
1363.0,0.0497
1362.0,0.0497
1361.0,0.0494
1360.0,0.0491
1359.0,0.0487
1358.0,0.0483
1357.0,0.048
1356.0,0.0477
1355.0,0.0475
1354.0,0.0473
1353.0,0.0472
1352.0,0.0471
1351.0,0.047
1350.0,0.047
1349.0,0.0469
1348.0,0.0469
1347.0,0.0468
1346.0,0.0466
1345.0,0.0464
1344.0,0.0461
1343.0,0.0458
1342.0,0.0455
1341.0,0.0453
1340.0,0.0452
1339.0,0.0451
1338.0,0.0451
1337.0,0.0451
1336.0,0.0452
1335.0,0.0452
1334.0,0.0454
1333.0,0.0456
1332.0,0.0459
1331.0,0.0462
1330.0,0.0465
1329.0,0.0466
1328.0,0.0467
1327.0,0.0466
1326.0,0.0466
1325.0,0.0464
1324.0,0.0462
1323.0,0.0461
1322.0,0.0459
1321.0,0.0458
1320.0,0.0458
1319.0,0.0459
1318.0,0.046
1317.0,0.0461
1316.0,0.0463
1315.0,0.0464
1314.0,0.0466
1313.0,0.0468
1312.0,0.0468
1311.0,0.0468
1310.0,0.0468
1309.0,0.0467
1308.0,0.0465
1307.0,0.0464
1306.0,0.0463
1305.0,0.0461
1304.0,0.046
1303.0,0.0459
1302.0,0.0458
1301.0,0.0456
1300.0,0.0455
1299.0,0.0454
1298.0,0.0453
1297.0,0.0452
1296.0,0.0451
1295.0,0.045
1294.0,0.045
1293.0,0.045
1292.0,0.0449
1291.0,0.0449
1290.0,0.0449
1289.0,0.0449
1288.0,0.0449
1287.0,0.0448
1286.0,0.0448
1285.0,0.0448
1284.0,0.0447
1283.0,0.0447
1282.0,0.0447
1281.0,0.0447
1280.0,0.0446
1279.0,0.0446
1278.0,0.0445
1277.0,0.0444
1276.0,0.0443
1275.0,0.0442
1274.0,0.0441
1273.0,0.044
1272.0,0.0439
1271.0,0.0438
1270.0,0.0437
1269.0,0.0437
1268.0,0.0437
1267.0,0.0437
1266.0,0.0437
1265.0,0.0437
1264.0,0.0437
1263.0,0.0436
1262.0,0.0435
1261.0,0.0435
1260.0,0.0435
1259.0,0.0435
1258.0,0.0435
1257.0,0.0435
1256.0,0.0435
1255.0,0.0436
1254.0,0.0436
1253.0,0.0436
1252.0,0.0437
1251.0,0.0437
1250.0,0.0438
1249.0,0.0439
1248.0,0.0439
1247.0,0.044
1246.0,0.044
1245.0,0.044
1244.0,0.0441
1243.0,0.0442
1242.0,0.0442
1241.0,0.0443
1240.0,0.0444
1239.0,0.0445
1238.0,0.0446
1237.0,0.0446
1236.0,0.0447
1235.0,0.0448
1234.0,0.0448
1233.0,0.045
1232.0,0.0451
1231.0,0.0453
1230.0,0.0455
1229.0,0.0458
1228.0,0.046
1227.0,0.0462
1226.0,0.0464
1225.0,0.0467
1224.0,0.0469
1223.0,0.0471
1222.0,0.0473
1221.0,0.0475
1220.0,0.0477
1219.0,0.048
1218.0,0.0483
1217.0,0.0485
1216.0,0.0488
1215.0,0.0492
1214.0,0.0495
1213.0,0.0498
1212.0,0.0502
1211.0,0.0506
1210.0,0.0511
1209.0,0.0516
1208.0,0.052
1207.0,0.0525
1206.0,0.053
1205.0,0.0536
1204.0,0.0542
1203.0,0.0548
1202.0,0.0555
1201.0,0.0561
1200.0,0.0567
1199.0,0.0572
1198.0,0.0578
1197.0,0.0583
1196.0,0.0588
1195.0,0.0593
1194.0,0.0598
1193.0,0.0604
1192.0,0.0609
1191.0,0.0614
1190.0,0.0619
1189.0,0.0624
1188.0,0.0631
1187.0,0.0638
1186.0,0.0646
1185.0,0.0656
1184.0,0.0667
1183.0,0.0677
1182.0,0.0686
1181.0,0.0691
1180.0,0.0694
1179.0,0.0693
1178.0,0.069
1177.0,0.0686
1176.0,0.0682
1175.0,0.0678
1174.0,0.0676
1173.0,0.0675
1172.0,0.0675
1171.0,0.0675
1170.0,0.0676
1169.0,0.0676
1168.0,0.0677
1167.0,0.0678
1166.0,0.0679
1165.0,0.0681
1164.0,0.0683
1163.0,0.0685
1162.0,0.0688
1161.0,0.0693
1160.0,0.07
1159.0,0.071
1158.0,0.072
1157.0,0.0731
1156.0,0.0742
1155.0,0.075
1154.0,0.0754
1153.0,0.0755
1152.0,0.0753
1151.0,0.0748
1150.0,0.0742
1149.0,0.0737
1148.0,0.0733
1147.0,0.0731
1146.0,0.0728
1145.0,0.0726
1144.0,0.0724
1143.0,0.0723
1142.0,0.0723
1141.0,0.0723
1140.0,0.0722
1139.0,0.0721
1138.0,0.0719
1137.0,0.0717
1136.0,0.0716
1135.0,0.0715
1134.0,0.0714
1133.0,0.0713
1132.0,0.0712
1131.0,0.071
1130.0,0.0709
1129.0,0.0708
1128.0,0.0706
1127.0,0.0704
1126.0,0.0702
1125.0,0.07
1124.0,0.0699
1123.0,0.0698
1122.0,0.0696
1121.0,0.0695
1120.0,0.0694
1119.0,0.0694
1118.0,0.0694
1117.0,0.0694
1116.0,0.0694
1115.0,0.0693
1114.0,0.0693
1113.0,0.0693
1112.0,0.0694
1111.0,0.0693
1110.0,0.0692
1109.0,0.069
1108.0,0.0689
1107.0,0.0688
1106.0,0.0687
1105.0,0.0686
1104.0,0.0685
1103.0,0.0685
1102.0,0.0685
1101.0,0.0686
1100.0,0.0686
1099.0,0.0687
1098.0,0.0687
1097.0,0.0686
1096.0,0.0686
1095.0,0.0686
1094.0,0.0687
1093.0,0.0688
1092.0,0.0688
1091.0,0.0689
1090.0,0.0688
1089.0,0.0688
1088.0,0.0689
1087.0,0.0689
1086.0,0.069
1085.0,0.0689
1084.0,0.0689
1083.0,0.0689
1082.0,0.0689
1081.0,0.069
1080.0,0.069
1079.0,0.069
1078.0,0.069
1077.0,0.0692
1076.0,0.0693
1075.0,0.0695
1074.0,0.0698
1073.0,0.0701
1072.0,0.0704
1071.0,0.0705
1070.0,0.0705
1069.0,0.0702
1068.0,0.0697
1067.0,0.069
1066.0,0.0681
1065.0,0.0671
1064.0,0.066
1063.0,0.0648
1062.0,0.0636
1061.0,0.0625
1060.0,0.0615
1059.0,0.0607
1058.0,0.0599
1057.0,0.0591
1056.0,0.0584
1055.0,0.0577
1054.0,0.057
1053.0,0.0563
1052.0,0.0557
1051.0,0.0551
1050.0,0.0547
1049.0,0.0542
1048.0,0.0537
1047.0,0.0532
1046.0,0.0528
1045.0,0.0525
1044.0,0.0522
1043.0,0.0519
1042.0,0.0516
1041.0,0.0514
1040.0,0.0513
1039.0,0.0513
1038.0,0.0517
1037.0,0.0526
1036.0,0.0541
1035.0,0.0562
1034.0,0.0588
1033.0,0.0619
1032.0,0.0652
1031.0,0.0684
1030.0,0.0711
1029.0,0.0731
1028.0,0.074
1027.0,0.0739
1026.0,0.0727
1025.0,0.071
1024.0,0.069
1023.0,0.0672
1022.0,0.0655
1021.0,0.064
1020.0,0.0628
1019.0,0.0618
1018.0,0.0609
1017.0,0.0601
1016.0,0.0594
1015.0,0.0588
1014.0,0.0583
1013.0,0.0579
1012.0,0.0576
1011.0,0.0573
1010.0,0.0571
1009.0,0.057
1008.0,0.057
1007.0,0.0571
1006.0,0.0574
1005.0,0.0578
1004.0,0.0582
1003.0,0.0583
1002.0,0.058
1001.0,0.0574
1000.0,0.0565
999.0,0.0556
998.0,0.0549
997.0,0.0543
996.0,0.0539
995.0,0.0535
994.0,0.0533
993.0,0.053
992.0,0.0528
991.0,0.0527
990.0,0.0526
989.0,0.0526
988.0,0.0527
987.0,0.0528
986.0,0.053
985.0,0.0532
984.0,0.0535
983.0,0.0538
982.0,0.054
981.0,0.0541
980.0,0.0541
979.0,0.054
978.0,0.0539
977.0,0.0536
976.0,0.0533
975.0,0.053
974.0,0.0528
973.0,0.0526
972.0,0.0525
971.0,0.0526
970.0,0.0529
969.0,0.0533
968.0,0.0538
967.0,0.0543
966.0,0.0547
965.0,0.055
964.0,0.0552
963.0,0.0551
962.0,0.0549
961.0,0.0544
960.0,0.0539
959.0,0.0533
958.0,0.0527
957.0,0.0523
956.0,0.0519
955.0,0.0516
954.0,0.0514
953.0,0.0513
952.0,0.0512
951.0,0.0512
950.0,0.0512
949.0,0.0513
948.0,0.0515
947.0,0.0518
946.0,0.0521
945.0,0.0522
944.0,0.0523
943.0,0.0523
942.0,0.0523
941.0,0.0522
940.0,0.052
939.0,0.0518
938.0,0.0515
937.0,0.0511
936.0,0.0507
935.0,0.0503
934.0,0.0499
933.0,0.0496
932.0,0.0493
931.0,0.0491
930.0,0.0489
929.0,0.0487
928.0,0.0486
927.0,0.0485
926.0,0.0485
925.0,0.0485
924.0,0.0485
923.0,0.0485
922.0,0.0485
921.0,0.0486
920.0,0.0488
919.0,0.0491
918.0,0.0496
917.0,0.0502
916.0,0.0509
915.0,0.0519
914.0,0.053
913.0,0.0542
912.0,0.0557
911.0,0.0573
910.0,0.059
909.0,0.0605
908.0,0.0619
907.0,0.0629
906.0,0.0635
905.0,0.0636
904.0,0.0631
903.0,0.0622
902.0,0.061
901.0,0.0597
900.0,0.0584
899.0,0.0571
898.0,0.0559
897.0,0.0547
896.0,0.0538
895.0,0.053
894.0,0.0524
893.0,0.0519
892.0,0.0515
891.0,0.0512
890.0,0.0509
889.0,0.0507
888.0,0.0504
887.0,0.0502
886.0,0.05
885.0,0.0498
884.0,0.0497
883.0,0.0496
882.0,0.0496
881.0,0.0496
880.0,0.0497
879.0,0.0496
878.0,0.0494
877.0,0.0492
876.0,0.049
875.0,0.0489
874.0,0.0488
873.0,0.0487
872.0,0.0487
871.0,0.0487
870.0,0.0487
869.0,0.0486
868.0,0.0484
867.0,0.0482
866.0,0.048
865.0,0.0479
864.0,0.048
863.0,0.048
862.0,0.048
861.0,0.048
860.0,0.048
859.0,0.048
858.0,0.0479
857.0,0.0478
856.0,0.0477
855.0,0.0477
854.0,0.0477
853.0,0.0479
852.0,0.0481
851.0,0.0484
850.0,0.0487
849.0,0.0491
848.0,0.0496
847.0,0.0502
846.0,0.051
845.0,0.0518
844.0,0.0525
843.0,0.0531
842.0,0.0535
841.0,0.0537
840.0,0.0536
839.0,0.0533
838.0,0.0528
837.0,0.0523
836.0,0.0517
835.0,0.0511
834.0,0.0505
833.0,0.0499
832.0,0.0493
831.0,0.0488
830.0,0.0485
829.0,0.0482
828.0,0.0479
827.0,0.0477
826.0,0.0476
825.0,0.0475
824.0,0.0475
823.0,0.0475
822.0,0.0473
821.0,0.0471
820.0,0.047
819.0,0.0468
818.0,0.0466
817.0,0.0465
816.0,0.0464
815.0,0.0464
814.0,0.0465
813.0,0.0465
812.0,0.0466
811.0,0.0465
810.0,0.0463
809.0,0.046
808.0,0.0458
807.0,0.0457
806.0,0.0456
805.0,0.0455
804.0,0.0456
803.0,0.0457
802.0,0.0458
801.0,0.0459
800.0,0.0458
799.0,0.0456
798.0,0.0455
797.0,0.0455
796.0,0.0455
795.0,0.0455
794.0,0.0455
793.0,0.0455
792.0,0.0456
791.0,0.0458
790.0,0.0461
789.0,0.0465
788.0,0.0468
787.0,0.0471
786.0,0.0475
785.0,0.0479
784.0,0.0484
783.0,0.0491
782.0,0.0499
781.0,0.0509
780.0,0.0521
779.0,0.0535
778.0,0.0552
777.0,0.0573
776.0,0.0597
775.0,0.0625
774.0,0.0656
773.0,0.069
772.0,0.0727
771.0,0.0767
770.0,0.0811
769.0,0.0856
768.0,0.0902
767.0,0.0947
766.0,0.0991
765.0,0.1036
764.0,0.1082
763.0,0.1128
762.0,0.1175
761.0,0.1222
760.0,0.1268
759.0,0.1311
758.0,0.1348
757.0,0.1378
756.0,0.1401
755.0,0.1418
754.0,0.1428
753.0,0.1432
752.0,0.1435
751.0,0.1439
750.0,0.1445
749.0,0.1453
748.0,0.1457
747.0,0.1453
746.0,0.1435
745.0,0.1403
744.0,0.1358
743.0,0.1304
742.0,0.1246
741.0,0.1188
740.0,0.113
739.0,0.1075
738.0,0.1024
737.0,0.0977
736.0,0.0933
735.0,0.0889
734.0,0.0845
733.0,0.0802
732.0,0.0762
731.0,0.0726
730.0,0.0695
729.0,0.0667
728.0,0.0642
727.0,0.062
726.0,0.0599
725.0,0.0579
724.0,0.056
723.0,0.0543
722.0,0.0527
721.0,0.0511
720.0,0.0494
719.0,0.0473
718.0,0.0453
717.0,0.0435
716.0,0.042
715.0,0.0409
714.0,0.0404
713.0,0.0406
712.0,0.0418
711.0,0.0443
710.0,0.0489
709.0,0.0562
708.0,0.0664
707.0,0.0798
706.0,0.0965
705.0,0.1166
704.0,0.1401
703.0,0.167
702.0,0.1978
701.0,0.2328
700.0,0.2718
699.0,0.3129
698.0,0.3526
697.0,0.3853
696.0,0.4034
695.0,0.4007
694.0,0.3776
693.0,0.3423
692.0,0.3042
691.0,0.2695
690.0,0.2401
689.0,0.2164
688.0,0.1981
687.0,0.1843
686.0,0.1738
685.0,0.1653
684.0,0.1581
683.0,0.1518
682.0,0.1463
681.0,0.1416
680.0,0.1377
679.0,0.1348
678.0,0.1329
677.0,0.1319
676.0,0.131
675.0,0.1296
674.0,0.1274
673.0,0.1248
672.0,0.122
671.0,0.1186
670.0,0.114
669.0,0.1093
668.0,0.1067
667.0,0.108
666.0,0.1104
665.0,0.1117
664.0,0.1121
663.0,0.1123
662.0,0.1121
661.0,0.1116
660.0,0.1108
659.0,0.1103
658.0,0.1098
657.0,0.1089
656.0,0.1076
655.0,0.1061
654.0,0.105
653.0,0.1043
652.0,0.1038
651.0,0.1032
650.0,0.1023
649.0,0.1014
648.0,0.1006
647.0,0.1
646.0,0.0997
645.0,0.0995
644.0,0.0993
643.0,0.099
642.0,0.0987
641.0,0.0985
640.0,0.0987
639.0,0.0994
638.0,0.1009
637.0,0.1029
636.0,0.1047
635.0,0.1056
634.0,0.1055
633.0,0.1052
632.0,0.1051
631.0,0.1047
630.0,0.104
629.0,0.103
628.0,0.1021
627.0,0.1014
626.0,0.1009
625.0,0.1006
624.0,0.1005
623.0,0.1005
622.0,0.1005
621.0,0.1005
620.0,0.1006
619.0,0.1006
618.0,0.0999
617.0,0.0984
616.0,0.0964
615.0,0.0948
614.0,0.0941
613.0,0.0942
612.0,0.0948
611.0,0.0956
610.0,0.0964
609.0,0.0971
608.0,0.0977
607.0,0.098
606.0,0.0984
605.0,0.099
604.0,0.0999
603.0,0.1013
602.0,0.1027
601.0,0.1036
600.0,0.1036
